0:00:00.00 77 N 0 0 0
0:00:00.00 370 N 0 0 0
0:00:00.00 663 N 0 0 0
0:00:00.00 947 N 0 0 0
0:00:00.00 1231 N 0 0 0
0:00:00.00 1515 N 0 0 0
0:00:00.00 1810 N 0 0 0
0:00:00.00 2045 N 0 0 0
0:00:00.00 2403 N 0 0 0
0:00:00.00 2706 N 0 0 0
0:00:00.00 2998 N 0 0 0
0:00:00.00 3283 N 0 0 0
0:00:00.00 3560 N 0 0 0
0:00:00.00 3863 N 0 0 0
0:00:00.00 4171 N 0 0 0
0:00:00.00 4466 N 0 0 0
0:00:00.00 4765 N 0 0 0
0:00:00.00 5061 N 0 0 0
0:00:00.00 5347 N 0 0 0
0:00:00.00 5634 N 0 0 0
0:00:00.00 5919 N 0 0 0
0:00:00.00 6215 N 0 0 0
0:00:00.00 6527 N 0 0 0
0:00:00.00 6824 N 0 0 0
0:00:00.00 7106 N 0 0 0
0:00:00.00 7392 N 0 0 0
0:00:00.00 7670 N 0 0 0
0:00:00.00 7953 N 0 0 0
0:00:00.00 8246 N 0 0 0
0:00:00.00 8539 N 0 0 0
0:00:00.00 8838 N 0 0 0
0:00:00.00 9142 N 0 0 0
0:00:00.00 9432 N 0 0 0
0:00:00.00 9711 N 0 0 0
0:00:00.00 9998 N 0 0 0
0:00:00.00 10283 N 0 0 0
0:00:00.00 10591 N 0 0 0
0:00:00.00 10895 N 0 0 0
0:00:00.00 11192 N 0 0 0
0:00:00.00 11481 N 0 0 0
0:00:00.00 11781 N 0 0 0
0:00:00.00 12066 N 0 0 0
0:00:00.00 12351 N 0 0 0
0:00:00.00 12645 N 0 0 0
0:00:00.00 12950 N 0 0 0
0:00:00.00 13267 N 0 0 0
0:00:00.00 13562 N 0 0 0
0:00:00.00 13842 N 0 0 0
0:00:00.00 14131 N 0 0 0
0:00:00.00 14423 N 0 0 0
0:00:00.00 14711 N 0 0 0
0:00:00.00 15012 N 0 0 0
0:00:00.00 15310 N 0 0 0
0:00:00.00 15607 N 0 0 0
0:00:00.00 15900 N 0 0 0
0:00:00.00 16183 N 0 0 0
0:00:00.00 16465 N 0 0 0
0:00:00.00 16756 N 0 0 0
0:00:00.00 17058 N 0 0 0
0:00:00.00 17359 N 0 0 0
0:00:00.00 17657 N 0 0 0
0:00:00.00 17947 N 0 0 0
0:00:00.00 18227 N 0 0 0
0:00:00.00 18514 N 0 0 0
0:00:00.00 18796 N 0 0 0
0:00:00.00 19081 N 0 0 0
0:00:00.00 19389 N 0 0 0
0:00:00.00 19694 N 0 0 0
0:00:00.00 19990 N 0 0 0
0:00:00.00 20272 N 0 0 0
0:00:00.00 20554 N 0 0 0
0:00:00.00 20838 N 0 0 0
0:00:00.00 21132 N 0 0 0
0:00:00.00 21424 N 0 0 0
0:00:00.00 21729 N 0 0 0
0:00:00.00 22030 N 0 0 0
0:00:00.00 22321 N 0 0 0
0:00:00.00 22603 N 0 0 0
0:00:00.00 22881 N 0 0 0
0:00:00.00 23164 N 0 0 0
0:00:00.00 23454 N 0 0 0
0:00:00.00 23757 N 0 0 0
0:00:00.00 24053 N 0 0 0
0:00:00.00 24346 N 0 0 0
0:00:00.00 24626 N 0 0 0
0:00:00.00 24914 N 0 0 0
0:00:00.00 25198 N 0 0 0
0:00:00.00 25485 N 0 0 0
0:00:00.00 25780 N 0 0 0
0:00:00.00 26089 N 0 0 0
0:00:00.00 26387 N 0 0 0
0:00:00.00 26671 N 0 0 0
0:00:00.00 26952 N 0 0 0
0:00:00.00 27238 N 0 0 0
0:00:00.00 27536 N 0 0 0
0:00:00.00 27833 N 0 0 0
0:00:00.00 28133 N 0 0 0
0:00:00.00 28431 N 0 0 0
0:00:00.00 28727 N 0 0 0
0:00:00.00 29015 N 0 0 0
0:00:00.00 29294 N 0 0 0
0:00:00.00 29581 N 0 0 0
0:00:00.00 29873 N 0 0 0
0:00:00.00 30182 N 0 0 0
0:00:00.00 30487 N 0 0 0
0:00:00.00 30780 N 0 0 0
0:00:00.00 31065 N 0 0 0
0:00:00.00 31349 N 0 0 0
0:00:00.00 31636 N 0 0 0
0:00:00.00 31928 N 0 0 0
0:00:00.00 32225 N 0 0 0
0:00:00.00 32530 N 0 0 0
0:00:00.00 32837 N 0 0 0
0:00:00.00 33127 N 0 0 0
0:00:00.00 33404 N 0 0 0
0:00:00.00 33692 N 0 0 0
0:00:00.00 33981 N 0 0 0
0:00:00.00 34274 N 0 0 0
0:00:00.00 34575 N 0 0 0
0:00:00.00 34870 N 0 0 0
0:00:00.00 35168 N 0 0 0
0:00:00.00 35455 N 0 0 0
0:00:00.00 35737 N 0 0 0
0:00:00.00 36016 N 0 0 0
0:00:00.00 36310 N 0 0 0
0:00:00.00 36605 N 0 0 0
0:00:00.00 36916 N 0 0 0
0:00:00.00 37215 N 0 0 0
0:00:00.00 37500 N 0 0 0
0:00:00.00 37783 N 0 0 0
0:00:00.00 38071 N 0 0 0
0:00:00.00 38357 N 0 0 0
0:00:00.00 38652 N 0 0 0
0:00:00.00 38951 N 0 0 0
0:00:00.00 39253 N 0 0 0
0:00:00.00 39548 N 0 0 0
0:00:00.00 39826 N 0 0 0
0:00:00.00 40096 N 0 0 0
0:00:00.00 40382 N 0 0 0
0:00:00.00 40678 N 0 0 0
0:00:00.00 40970 N 0 0 0
0:00:00.00 41272 N 0 0 0
0:00:00.00 41567 N 0 0 0
0:00:00.00 41850 N 0 0 0
0:00:00.00 42117 N 0 0 0
0:00:00.00 42416 N 0 0 0
0:00:00.00 42698 N 0 0 0
0:00:00.00 42997 N 0 0 0
0:00:00.00 43307 N 0 0 0
0:00:00.00 43604 N 0 0 0
0:00:00.00 43893 N 0 0 0
0:00:00.00 44172 N 0 0 0
0:00:00.00 44456 N 0 0 0
0:00:00.00 44743 N 0 0 0
0:00:00.00 45030 N 0 0 0
0:00:00.00 45323 N 0 0 0
0:00:00.00 45628 N 0 0 0
0:00:00.00 45925 N 0 0 0
0:00:00.00 46204 N 0 0 0
0:00:00.00 46479 N 0 0 0
0:00:00.00 46760 N 0 0 0
0:00:00.00 47037 N 0 0 0
0:00:00.00 47335 N 0 0 0
0:00:00.00 47633 N 0 0 0
0:00:00.00 47920 N 0 0 0
0:00:00.00 48203 N 0 0 0
0:00:00.00 48486 N 0 0 0
0:00:00.00 48766 N 0 0 0
0:00:00.00 49040 N 0 0 0
0:00:00.00 49323 N 0 0 0
0:00:00.00 49618 N 0 0 0
0:00:00.00 49923 N 0 0 0
0:00:00.00 50214 N 0 0 0
0:00:00.00 50491 N 0 0 0
0:00:00.00 50772 N 0 0 0
0:00:00.00 51056 N 0 0 0
0:00:00.00 51340 N 0 0 0
0:00:00.00 51627 N 0 0 0
0:00:00.00 51921 N 0 0 0
0:00:00.00 52216 N 0 0 0
0:00:00.00 52506 N 0 0 0
0:00:00.00 52784 N 0 0 0
0:00:00.00 53063 N 0 0 0
0:00:00.00 53341 N 0 0 0
0:00:00.00 53632 N 0 0 0
0:00:00.00 53923 N 0 0 0
0:00:00.00 54220 N 0 0 0
0:00:00.00 54508 N 0 0 0
0:00:00.00 54785 N 0 0 0
0:00:00.00 55064 N 0 0 0
0:00:00.00 55344 N 0 0 0
0:00:00.00 55626 N 0 0 0
0:00:00.00 55908 N 0 0 0
0:00:00.00 56208 N 0 0 0
0:00:00.00 56502 N 0 0 0
0:00:00.00 56785 N 0 0 0
0:00:00.00 57055 N 0 0 0
0:00:00.00 57333 N 0 0 0
0:00:00.00 57616 N 0 0 0
0:00:00.00 57901 N 0 0 0
0:00:00.00 58192 N 0 0 0
0:00:00.00 58490 N 0 0 0
0:00:00.00 58788 N 0 0 0
0:00:00.00 59077 N 0 0 0
0:00:00.00 59355 N 0 0 0
0:00:00.00 59632 N 0 0 0
0:00:00.00 59920 N 0 0 0
0:00:00.00 60214 N 0 0 0
0:00:00.00 60516 N 0 0 0
0:00:00.00 60818 N 0 0 0
0:00:00.00 61106 N 0 0 0
0:00:00.00 61392 N 0 0 0
0:00:00.00 61680 N 0 0 0
0:00:00.00 61964 N 0 0 0
0:00:00.00 62248 N 0 0 0
0:00:00.00 62547 N 0 0 0
0:00:00.00 62852 N 0 0 0
0:00:00.00 63155 N 0 0 0
0:00:00.00 63439 N 0 0 0
0:00:00.00 63712 N 0 0 0
0:00:00.00 63999 N 0 0 0
0:00:00.00 64288 N 0 0 0
0:00:00.00 64582 N 0 0 0
0:00:00.00 64876 N 0 0 0
0:00:00.00 65175 N 0 0 0
0:00:00.00 65464 N 0 0 0
0:00:00.00 65750 N 0 0 0
0:00:00.00 66031 N 0 0 0
0:00:00.00 66308 N 0 0 0
0:00:00.00 66605 N 0 0 0
0:00:00.00 66792 N 0 0 0
0:00:00.00 67131 N 0 0 0
0:00:00.00 67434 N 0 0 0
0:00:00.00 67729 N 0 0 0
0:00:00.00 68008 N 0 0 0
0:00:00.00 68302 N 0 0 0
0:00:00.00 68595 N 0 0 0
0:00:00.00 68886 N 0 0 0
0:00:00.00 69191 N 0 0 0
0:00:00.00 69504 N 0 0 0
0:00:00.00 69796 N 0 0 0
0:00:00.00 70074 N 0 0 0
0:00:00.00 70357 N 0 0 0
0:00:00.00 70643 N 0 0 0
0:00:00.00 70942 N 0 0 0
0:00:00.00 71240 N 0 0 0
0:00:00.00 71540 N 0 0 0
0:00:00.00 71846 N 0 0 0
0:00:00.00 72138 N 0 0 0
0:00:00.00 72417 N 0 0 0
0:00:00.00 72704 N 0 0 0
0:00:00.00 72998 N 0 0 0
0:00:00.00 73302 N 0 0 0
0:00:00.00 73612 N 0 0 0
0:00:00.00 73912 N 0 0 0
0:00:00.00 74196 N 0 0 0
0:00:00.00 74484 N 0 0 0
0:00:00.00 74767 N 0 0 0
0:00:00.00 74986 N 0 0 0
0:00:00.00 75333 N 0 0 0
0:00:00.00 75632 N 0 0 0
0:00:00.00 75935 N 0 0 0
0:00:00.00 76234 N 0 0 0
0:00:00.00 76515 N 0 0 0
0:00:00.00 76786 N 0 0 0
0:00:00.00 77074 N 0 0 0
0:00:00.00 77367 N 0 0 0
0:00:00.00 77664 N 0 0 0
0:00:00.00 77954 N 0 0 0
0:00:00.00 78251 N 0 0 0
0:00:00.00 78539 N 0 0 0
0:00:00.00 78825 N 0 0 0
0:00:00.00 79100 N 0 0 0
0:00:00.00 79386 N 0 0 0
0:00:00.00 79689 N 0 0 0
0:00:00.00 79992 N 0 0 0
0:00:00.00 80291 N 0 0 0
0:00:00.00 80583 N 0 0 0
0:00:00.00 80869 N 0 0 0
0:00:00.00 81152 N 0 0 0
0:00:00.00 81439 N 0 0 0
0:00:00.00 81731 N 0 0 0
0:00:00.00 82031 N 0 0 0
0:00:00.00 82336 N 0 0 0
0:00:00.00 82637 N 0 0 0
0:00:00.00 82927 N 0 0 0
0:00:00.00 83210 N 0 0 0
0:00:00.00 83493 N 0 0 0
0:00:00.00 83795 N 0 0 0
0:00:00.00 84104 N 0 0 0
0:00:00.00 84408 N 0 0 0
0:00:00.00 84710 N 0 0 0
0:00:00.00 85010 N 0 0 0
0:00:00.00 85303 N 0 0 0
0:00:00.00 85580 N 0 0 0
0:00:00.00 85871 N 0 0 0
0:00:00.00 86172 N 0 0 0
0:00:00.00 86478 N 0 0 0
0:00:00.00 86781 N 0 0 0
0:00:00.00 87079 N 0 0 0
0:00:00.00 87365 N 0 0 0
0:00:00.00 87652 N 0 0 0
0:00:00.00 87942 N 0 0 0
0:00:00.00 88232 N 0 0 0
0:00:00.00 88531 N 0 0 0
0:00:00.00 88834 N 0 0 0
0:00:00.00 89136 N 0 0 0
0:00:00.00 89421 N 0 0 0
0:00:00.00 89704 N 0 0 0
0:00:00.00 89988 N 0 0 0
0:00:00.00 90286 N 0 0 0
0:00:00.00 90590 N 0 0 0
0:00:00.00 90885 N 0 0 0
0:00:00.00 91190 N 0 0 0
0:00:00.00 91482 N 0 0 0
0:00:00.00 91761 N 0 0 0
0:00:00.00 92047 N 0 0 0
0:00:00.00 92338 N 0 0 0
0:00:00.00 92634 N 0 0 0
0:00:00.00 92945 N 0 0 0
0:00:00.00 93246 N 0 0 0
0:00:00.00 93534 N 0 0 0
0:00:00.00 93824 N 0 0 0
0:00:00.00 94103 N 0 0 0
0:00:00.00 94396 N 0 0 0
0:00:00.00 94693 N 0 0 0
0:00:00.00 94996 N 0 0 0
0:00:00.00 95299 N 0 0 0
0:00:00.00 95607 N 0 0 0
0:00:00.00 95893 N 0 0 0
0:00:00.00 96171 N 0 0 0
0:00:00.00 96451 N 0 0 0
0:00:00.00 96747 N 0 0 0
0:00:00.00 97050 N 0 0 0
0:00:00.00 97348 N 0 0 0
0:00:00.00 97645 N 0 0 0
0:00:00.00 97937 N 0 0 0
0:00:00.00 98228 N 0 0 0
0:00:00.00 98509 N 0 0 0
0:00:00.00 98790 N 0 0 0
0:00:00.00 99084 N 0 0 0
0:00:00.00 99382 N 0 0 0
0:00:00.00 99580 N 0 0 0
0:00:00.00 99930 N 0 0 0
0:00:00.00 100218 N 0 0 0
0:00:00.00 100496 N 0 0 0
0:00:00.00 100782 N 0 0 0
0:00:00.00 101071 N 0 0 0
0:00:00.00 101361 N 0 0 0
0:00:00.00 101654 N 0 0 0
0:00:00.00 101942 N 0 0 0
0:00:00.00 102235 N 0 0 0
0:00:00.00 102517 N 0 0 0
0:00:00.00 102793 N 0 0 0
0:00:00.00 103074 N 0 0 0
0:00:00.00 103371 N 0 0 0
0:00:00.00 103670 N 0 0 0
0:00:00.00 103964 N 0 0 0
0:00:00.00 104262 N 0 0 0
0:00:00.00 104546 N 0 0 0
0:00:00.00 104831 N 0 0 0
0:00:00.00 105119 N 0 0 0
0:00:00.00 105407 N 0 0 0
0:00:00.00 105707 N 0 0 0
0:00:00.00 106016 N 0 0 0
0:00:00.00 106315 N 0 0 0
0:00:00.00 106601 N 0 0 0
0:00:00.00 106882 N 0 0 0
0:00:00.00 107159 N 0 0 0
0:00:00.00 107454 N 0 0 0
0:00:00.00 107752 N 0 0 0
0:00:00.00 108045 N 0 0 0
0:00:00.00 108342 N 0 0 0
0:00:00.00 108644 N 0 0 0
0:00:00.00 108926 N 0 0 0
0:00:00.00 109200 N 0 0 0
0:00:00.00 109486 N 0 0 0
0:00:00.00 109773 N 0 0 0
0:00:00.00 110077 N 0 0 0
0:00:00.00 110375 N 0 0 0
0:00:00.00 110674 N 0 0 0
0:00:00.00 110963 N 0 0 0
0:00:00.00 111244 N 0 0 0
0:00:00.00 111524 N 0 0 0
0:00:00.00 111811 N 0 0 0
0:00:00.00 112108 N 0 0 0
0:00:00.00 112405 N 0 0 0
0:00:00.00 112711 N 0 0 0
0:00:00.00 113001 N 0 0 0
0:00:00.00 113281 N 0 0 0
0:00:00.00 113563 N 0 0 0
0:00:00.00 113850 N 0 0 0
0:00:00.00 114142 N 0 0 0
0:00:00.00 114429 N 0 0 0
0:00:00.00 114716 N 0 0 0
0:00:00.00 115001 N 0 0 0
0:00:00.00 115281 N 0 0 0
0:00:00.00 115548 N 0 0 0
0:00:00.00 115815 N 0 0 0
0:00:00.00 116084 N 0 0 0
0:00:00.00 116370 N 0 0 0
0:00:00.00 116654 N 0 0 0
0:00:00.00 116940 N 0 0 0
0:00:00.00 117214 N 0 0 0
0:00:00.00 117494 N 0 0 0
0:00:00.00 117766 N 0 0 0
0:00:00.00 118044 N 0 0 0
0:00:00.00 118323 N 0 0 0
0:00:00.00 118608 N 0 0 0
0:00:00.00 118912 N 0 0 0
0:00:00.00 119216 N 0 0 0
0:00:00.00 119510 N 0 0 0
0:00:00.00 119792 N 0 0 0
0:00:00.00 120077 N 0 0 0
0:00:00.00 120376 N 0 0 0
0:00:00.00 120677 N 0 0 0
0:00:00.00 120991 N 0 0 0
0:00:00.00 121301 N 0 0 0
0:00:00.00 121605 N 0 0 0
0:00:00.00 121890 N 0 0 0
0:00:00.00 122170 N 0 0 0
0:00:00.00 122461 N 0 0 0
0:00:00.00 122751 N 0 0 0
0:00:00.00 123051 N 0 0 0
0:00:00.00 123360 N 0 0 0
0:00:00.00 123664 N 0 0 0
0:00:00.00 123936 N 0 0 0
0:00:00.00 124222 N 0 0 0
0:00:00.00 124508 N 0 0 0
0:00:00.00 124776 N 0 0 0
0:00:00.00 125060 N 0 0 0
0:00:00.00 125355 N 0 0 0
0:00:00.00 125649 N 0 0 0
0:00:00.00 125926 N 0 0 0
0:00:00.00 126204 N 0 0 0
0:00:00.00 126477 N 0 0 0
0:00:00.00 126747 N 0 0 0
0:00:00.00 127025 N 0 0 0
0:00:00.00 127314 N 0 0 0
0:00:00.00 127604 N 0 0 0
0:00:00.00 127893 N 0 0 0
0:00:00.00 128086 N 0 0 0
0:00:00.00 128423 N 0 0 0
0:00:00.00 128698 N 0 0 0
0:00:00.00 128958 N 0 0 0
0:00:00.00 129231 N 0 0 0
0:00:00.00 129520 N 0 0 0
0:00:00.00 129799 N 0 0 0
0:00:00.00 130057 N 0 0 0
0:00:00.00 130319 N 0 0 0
0:00:00.00 130568 N 0 0 0
0:00:00.00 130819 N 0 0 0
0:00:00.00 131074 N 0 0 0
0:00:00.00 131327 N 0 0 0
0:00:00.00 131585 N 0 0 0
0:00:00.00 131852 N 0 0 0
0:00:00.00 132122 N 0 0 0
0:00:00.00 132381 N 0 0 0
0:00:00.00 132629 N 0 0 0
0:00:00.00 132883 N 0 0 0
0:00:00.00 133132 N 0 0 0
0:00:00.00 133390 N 0 0 0
0:00:00.00 133663 N 0 0 0
0:00:00.00 133934 N 0 0 0
0:00:00.00 134197 N 0 0 0
0:00:00.00 134464 N 0 0 0
0:00:00.00 134738 N 0 0 0
0:00:00.00 134990 N 0 0 0
0:00:00.00 135244 N 0 0 0
0:00:00.00 135505 N 0 0 0
0:00:00.00 135781 N 0 0 0
0:00:00.00 136062 N 0 0 0
0:00:00.00 136351 N 0 0 0
0:00:00.00 136630 N 0 0 0
0:00:00.00 136900 N 0 0 0
0:00:00.00 137172 N 0 0 0
0:00:00.00 137449 N 0 0 0
0:00:00.00 137729 N 0 0 0
0:00:00.00 138008 N 0 0 0
0:00:00.00 138304 N 0 0 0
0:00:00.00 138599 N 0 0 0
0:00:00.00 138889 N 0 0 0
0:00:00.00 139164 N 0 0 0
0:00:00.00 139440 N 0 0 0
0:00:00.00 139720 N 0 0 0
0:00:00.00 140010 N 0 0 0
0:00:00.00 140303 N 0 0 0
0:00:00.00 140599 N 0 0 0
0:00:00.00 140882 N 0 0 0
0:00:00.00 141153 N 0 0 0
0:00:00.00 141424 N 0 0 0
0:00:00.00 141684 N 0 0 0
0:00:00.00 141943 N 0 0 0
0:00:00.00 142208 N 0 0 0
0:00:00.00 142480 N 0 0 0
0:00:00.00 142747 N 0 0 0
0:00:00.00 143011 N 0 0 0
0:00:00.00 143265 N 0 0 0
0:00:00.00 143515 N 0 0 0
0:00:00.00 143766 N 0 0 0
0:00:00.00 144026 N 0 0 0
0:00:00.00 144286 N 0 0 0
0:00:00.00 144558 N 0 0 0
0:00:00.00 144833 N 0 0 0
0:00:00.00 145112 N 0 0 0
0:00:00.00 145382 N 0 0 0
0:00:00.00 145647 N 0 0 0
0:00:00.00 145903 N 0 0 0
0:00:00.00 146170 N 0 0 0
0:00:00.00 146446 N 0 0 0
0:00:00.00 146737 N 0 0 0
0:00:00.00 147013 N 0 0 0
0:00:00.00 147291 N 0 0 0
0:00:00.00 147566 N 0 0 0
0:00:00.00 147833 N 0 0 0
0:00:00.00 148099 N 0 0 0
0:00:00.00 148365 N 0 0 0
0:00:00.00 148638 N 0 0 0
0:00:00.00 148917 N 0 0 0
0:00:00.00 149205 N 0 0 0
0:00:00.00 149489 N 0 0 0
0:00:00.00 149769 N 0 0 0
0:00:00.00 150030 N 0 0 0
0:00:00.00 150304 N 0 0 0
0:00:00.00 150576 N 0 0 0
0:00:00.00 150850 N 0 0 0
0:00:00.00 151123 N 0 0 0
0:00:00.00 151407 N 0 0 0
0:00:00.00 151700 N 0 0 0
0:00:00.00 151974 N 0 0 0
0:00:00.00 152237 N 0 0 0
0:00:00.00 152511 N 0 0 0
0:00:00.00 152782 N 0 0 0
0:00:00.00 153068 N 0 0 0
0:00:00.00 153363 N 0 0 0
0:00:00.00 153645 N 0 0 0
0:00:00.00 153923 N 0 0 0
0:00:00.00 154193 N 0 0 0
0:00:00.00 154471 N 0 0 0
0:00:00.00 154742 N 0 0 0
0:00:00.00 155009 N 0 0 0
0:00:00.00 155292 N 0 0 0
0:00:00.00 155589 N 0 0 0
0:00:00.00 155865 N 0 0 0
0:00:00.00 156133 N 0 0 0
0:00:00.00 156395 N 0 0 0
0:00:00.00 156648 N 0 0 0
0:00:00.00 156907 N 0 0 0
0:00:00.00 157169 N 0 0 0
0:00:00.00 157431 N 0 0 0
0:00:00.00 157696 N 0 0 0
0:00:00.00 157960 N 0 0 0
0:00:00.00 158234 N 0 0 0
0:00:00.00 158490 N 0 0 0
0:00:00.00 158730 N 0 0 0
0:00:00.00 158974 N 0 0 0
0:00:00.00 159226 N 0 0 0
0:00:00.00 159480 N 0 0 0
0:00:00.00 159738 N 0 0 0
0:00:00.00 160002 N 0 0 0
0:00:00.00 160260 N 0 0 0
0:00:00.00 160507 N 0 0 0
0:00:00.00 160755 N 0 0 0
0:00:00.00 161005 N 0 0 0
0:00:00.00 161254 N 0 0 0
0:00:00.00 161501 N 0 0 0
0:00:00.00 161765 N 0 0 0
0:00:00.00 162036 N 0 0 0
0:00:00.00 162309 N 0 0 0
0:00:00.00 162574 N 0 0 0
0:00:00.00 162836 N 0 0 0
0:00:00.00 163094 N 0 0 0
0:00:00.00 163363 N 0 0 0
0:00:00.00 163630 N 0 0 0
0:00:00.00 163899 N 0 0 0
0:00:00.00 164182 N 0 0 0
0:00:00.00 164461 N 0 0 0
0:00:00.00 164732 N 0 0 0
0:00:00.00 164992 N 0 0 0
0:00:00.00 165246 N 0 0 0
0:00:00.00 165499 N 0 0 0
0:00:00.00 165757 N 0 0 0
0:00:00.00 166033 N 0 0 0
0:00:00.00 166301 N 0 0 0
0:00:00.00 166570 N 0 0 0
0:00:00.00 166842 N 0 0 0
0:00:00.00 167112 N 0 0 0
0:00:00.00 167371 N 0 0 0
0:00:00.00 167642 N 0 0 0
0:00:00.00 167912 N 0 0 0
0:00:00.00 168191 N 0 0 0
0:00:00.00 168485 N 0 0 0
0:00:00.00 168785 N 0 0 0
0:00:00.00 169074 N 0 0 0
0:00:00.00 169350 N 0 0 0
0:00:00.00 169630 N 0 0 0
0:00:00.00 169907 N 0 0 0
0:00:00.00 170202 N 0 0 0
0:00:00.00 170495 N 0 0 0
0:00:00.00 170719 N 0 0 0
0:00:00.00 171075 N 0 0 0
0:00:00.00 171372 N 0 0 0
0:00:00.00 171653 N 0 0 0
0:00:00.00 171921 N 0 0 0
0:00:00.00 172200 N 0 0 0
0:00:00.00 172482 N 0 0 0
0:00:00.00 172776 N 0 0 0
0:00:00.00 173067 N 0 0 0
0:00:00.00 173352 N 0 0 0
0:00:00.00 173630 N 0 0 0
0:00:00.00 173907 N 0 0 0
0:00:00.00 174177 N 0 0 0
0:00:00.00 174452 N 0 0 0
0:00:00.00 174738 N 0 0 0
0:00:00.00 175024 N 0 0 0
0:00:00.00 175323 N 0 0 0
0:00:00.00 175609 N 0 0 0
0:00:00.00 175877 N 0 0 0
0:00:00.00 176146 N 0 0 0
0:00:00.00 176428 N 0 0 0
0:00:00.00 176699 N 0 0 0
0:00:00.00 176976 N 0 0 0
0:00:00.00 177249 N 0 0 0
0:00:00.00 177523 N 0 0 0
0:00:00.00 177798 N 0 0 0
0:00:00.00 178060 N 0 0 0
0:00:00.00 178317 N 0 0 0
0:00:00.00 178578 N 0 0 0
0:00:00.00 178842 N 0 0 0
0:00:00.00 179118 N 0 0 0
0:00:00.00 179388 N 0 0 0
0:00:00.00 179662 N 0 0 0
0:00:00.00 179927 N 0 0 0
0:00:00.00 180183 N 0 0 0
0:00:00.00 180444 N 0 0 0
0:00:00.00 180706 N 0 0 0
0:00:00.00 180964 N 0 0 0
0:00:00.00 181237 N 0 0 0
0:00:00.00 181524 N 0 0 0
0:00:00.00 181811 N 0 0 0
0:00:00.00 182085 N 0 0 0
0:00:00.00 182354 N 0 0 0
0:00:00.00 182624 N 0 0 0
0:00:00.00 182897 N 0 0 0
0:00:00.00 183182 N 0 0 0
0:00:00.00 183475 N 0 0 0
0:00:00.00 183779 N 0 0 0
0:00:00.00 184072 N 0 0 0
0:00:00.00 184362 N 0 0 0
0:00:00.00 184650 N 0 0 0
0:00:00.00 184934 N 0 0 0
0:00:00.00 185214 N 0 0 0
0:00:00.00 185511 N 0 0 0
0:00:00.00 185829 N 0 0 0
0:00:00.00 186138 N 0 0 0
0:00:00.00 186428 N 0 0 0
0:00:00.00 186717 N 0 0 0
0:00:00.00 187005 N 0 0 0
0:00:00.00 187291 N 0 0 0
0:00:00.00 187578 N 0 0 0
0:00:00.00 187872 N 0 0 0
0:00:00.00 188179 N 0 0 0
0:00:00.00 188481 N 0 0 0
0:00:00.00 188764 N 0 0 0
0:00:00.00 189043 N 0 0 0
0:00:00.00 189330 N 0 0 0
0:00:00.00 189625 N 0 0 0
0:00:00.00 189930 N 0 0 0
0:00:00.00 190229 N 0 0 0
0:00:00.00 190529 N 0 0 0
0:00:00.00 190821 N 0 0 0
0:00:00.00 191113 N 0 0 0
0:00:00.00 191396 N 0 0 0
0:00:00.00 191674 N 0 0 0
0:00:00.00 191977 N 0 0 0
0:00:00.00 192282 N 0 0 0
0:00:00.00 192576 N 0 0 0
0:00:00.00 192862 N 0 0 0
0:00:00.00 193147 N 0 0 0
0:00:00.00 193424 N 0 0 0
0:00:00.00 193703 N 0 0 0
0:00:00.00 193995 N 0 0 0
0:00:00.00 194281 N 0 0 0
0:00:00.00 194575 N 0 0 0
0:00:00.00 194869 N 0 0 0
0:00:00.00 195156 N 0 0 0
0:00:00.00 195427 N 0 0 0
0:00:00.00 195701 N 0 0 0
0:00:00.00 195979 N 0 0 0
0:00:00.00 196269 N 0 0 0
0:00:00.00 196561 N 0 0 0
0:00:00.00 196848 N 0 0 0
0:00:00.00 197133 N 0 0 0
0:00:00.00 197415 N 0 0 0
0:00:00.00 197685 N 0 0 0
0:00:00.00 197950 N 0 0 0
0:00:00.00 198225 N 0 0 0
0:00:00.00 198505 N 0 0 0
0:00:00.00 198792 N 0 0 0
0:00:00.00 199076 N 0 0 0
0:00:00.00 199353 N 0 0 0
0:00:00.00 199619 N 0 0 0
0:00:00.00 199895 N 0 0 0
0:00:00.00 200162 N 0 0 0
0:00:00.00 200435 N 0 0 0
0:00:00.00 200715 N 0 0 0
0:00:00.00 200993 N 0 0 0
0:00:00.00 201272 N 0 0 0
0:00:00.00 201545 N 0 0 0
0:00:00.00 201807 N 0 0 0
0:00:00.00 202067 N 0 0 0
0:00:00.00 202340 N 0 0 0
0:00:00.00 202615 N 0 0 0
0:00:00.00 202897 N 0 0 0
0:00:00.00 203183 N 0 0 0
0:00:00.00 203469 N 0 0 0
0:00:00.00 203742 N 0 0 0
0:00:00.00 204022 N 0 0 0
0:00:00.00 204300 N 0 0 0
0:00:00.00 204575 N 0 0 0
0:00:00.00 204855 N 0 0 0
0:00:00.00 205159 N 0 0 0
0:00:00.00 205459 N 0 0 0
0:00:00.00 205737 N 0 0 0
0:00:00.00 206017 N 0 0 0
0:00:00.00 206289 N 0 0 0
0:00:00.00 206567 N 0 0 0
0:00:00.00 206845 N 0 0 0
0:00:00.00 207130 N 0 0 0
0:00:00.00 207421 N 0 0 0
0:00:00.00 207725 N 0 0 0
0:00:00.00 208005 N 0 0 0
0:00:00.00 208278 N 0 0 0
0:00:00.00 208548 N 0 0 0
0:00:00.00 208823 N 0 0 0
0:00:00.00 209101 N 0 0 0
0:00:00.00 209393 N 0 0 0
0:00:00.00 209684 N 0 0 0
0:00:00.00 209973 N 0 0 0
0:00:00.00 210256 N 0 0 0
0:00:00.00 210534 N 0 0 0
0:00:00.00 210809 N 0 0 0
0:00:00.00 211086 N 0 0 0
0:00:00.00 211365 N 0 0 0
0:00:00.00 211654 N 0 0 0
0:00:00.00 211952 N 0 0 0
0:00:00.00 212229 N 0 0 0
0:00:00.00 212503 N 0 0 0
0:00:00.00 212778 N 0 0 0
0:00:00.00 213059 N 0 0 0
0:00:00.00 213327 N 0 0 0
0:00:00.00 213607 N 0 0 0
0:00:00.00 213895 N 0 0 0
0:00:00.00 214181 N 0 0 0
0:00:00.00 214465 N 0 0 0
0:00:00.00 214738 N 0 0 0
0:00:00.00 215005 N 0 0 0
0:00:00.00 215281 N 0 0 0
0:00:00.00 215563 N 0 0 0
0:00:00.00 215851 N 0 0 0
0:00:00.00 216141 N 0 0 0
0:00:00.00 216432 N 0 0 0
0:00:00.00 216710 N 0 0 0
0:00:00.00 216990 N 0 0 0
0:00:00.00 217269 N 0 0 0
0:00:00.00 217547 N 0 0 0
0:00:00.00 217825 N 0 0 0
0:00:00.00 218123 N 0 0 0
0:00:00.00 218417 N 0 0 0
0:00:00.00 218704 N 0 0 0
0:00:00.00 218973 N 0 0 0
0:00:00.00 219247 N 0 0 0
0:00:00.00 219530 N 0 0 0
0:00:00.00 219813 N 0 0 0
0:00:00.00 220099 N 0 0 0
0:00:00.00 220392 N 0 0 0
0:00:00.00 220691 N 0 0 0
0:00:00.00 220977 N 0 0 0
0:00:00.00 221253 N 0 0 0
0:00:00.00 221527 N 0 0 0
0:00:00.00 221804 N 0 0 0
0:00:00.00 222082 N 0 0 0
0:00:00.00 222376 N 0 0 0
0:00:00.00 222666 N 0 0 0
0:00:00.00 222952 N 0 0 0
0:00:00.00 223228 N 0 0 0
0:00:00.00 223507 N 0 0 0
0:00:00.00 223784 N 0 0 0
0:00:00.00 224047 N 0 0 0
0:00:00.00 224329 N 0 0 0
0:00:00.00 224622 N 0 0 0
0:00:00.00 224916 N 0 0 0
0:00:00.00 225195 N 0 0 0
0:00:00.00 225473 N 0 0 0
0:00:00.00 225743 N 0 0 0
0:00:00.00 226025 N 0 0 0
0:00:00.00 226297 N 0 0 0
0:00:00.00 226574 N 0 0 0
0:00:00.00 226863 N 0 0 0
0:00:00.00 227145 N 0 0 0
0:00:00.00 227427 N 0 0 0
0:00:00.00 227702 N 0 0 0
0:00:00.00 227976 N 0 0 0
0:00:00.00 228239 N 0 0 0
0:00:00.00 228517 N 0 0 0
0:00:00.00 228808 N 0 0 0
0:00:00.00 229095 N 0 0 0
0:00:00.00 229377 N 0 0 0
0:00:00.00 229660 N 0 0 0
0:00:00.00 229936 N 0 0 0
0:00:00.00 230214 N 0 0 0
0:00:00.00 230485 N 0 0 0
0:00:00.00 230761 N 0 0 0
0:00:00.00 231058 N 0 0 0
0:00:00.00 231358 N 0 0 0
0:00:00.00 231639 N 0 0 0
0:00:00.00 231914 N 0 0 0
0:00:00.00 232190 N 0 0 0
0:00:00.00 232460 N 0 0 0
0:00:00.00 232732 N 0 0 0
0:00:00.00 233016 N 0 0 0
0:00:00.00 233302 N 0 0 0
0:00:00.00 233589 N 0 0 0
0:00:00.00 233875 N 0 0 0
0:00:00.00 234151 N 0 0 0
0:00:00.00 234415 N 0 0 0
0:00:00.00 234685 N 0 0 0
0:00:00.00 234960 N 0 0 0
0:00:00.00 235250 N 0 0 0
0:00:00.00 235547 N 0 0 0
0:00:00.00 235828 N 0 0 0
0:00:00.00 236109 N 0 0 0
0:00:00.00 236391 N 0 0 0
0:00:00.00 236665 N 0 0 0
0:00:00.00 236928 N 0 0 0
0:00:00.00 237206 N 0 0 0
0:00:00.00 237496 N 0 0 0
0:00:00.00 237784 N 0 0 0
0:00:00.00 238071 N 0 0 0
0:00:00.00 238344 N 0 0 0
0:00:00.00 238611 N 0 0 0
0:00:00.00 238885 N 0 0 0
0:00:00.00 239158 N 0 0 0
0:00:00.00 239434 N 0 0 0
0:00:00.00 239718 N 0 0 0
0:00:00.00 239997 N 0 0 0
0:00:00.00 240267 N 0 0 0
0:00:00.00 240541 N 0 0 0
0:00:00.00 240810 N 0 0 0
0:00:00.00 241066 N 0 0 0
0:00:00.00 241319 N 0 0 0
0:00:00.00 241589 N 0 0 0
0:00:00.00 241856 N 0 0 0
0:00:00.00 242115 N 0 0 0
0:00:00.00 242374 N 0 0 0
0:00:00.00 242632 N 0 0 0
0:00:00.00 242880 N 0 0 0
0:00:00.00 243132 N 0 0 0
0:00:00.00 243388 N 0 0 0
0:00:00.00 243644 N 0 0 0
0:00:00.00 243909 N 0 0 0
0:00:00.00 244192 N 0 0 0
0:00:00.00 244462 N 0 0 0
0:00:00.00 244730 N 0 0 0
0:00:00.00 244985 N 0 0 0
0:00:00.00 245247 N 0 0 0
0:00:00.00 245516 N 0 0 0
0:00:00.00 245792 N 0 0 0
0:00:00.00 246066 N 0 0 0
0:00:00.00 246352 N 0 0 0
0:00:00.00 246648 N 0 0 0
0:00:00.00 246935 N 0 0 0
0:00:00.00 247202 N 0 0 0
0:00:00.00 247469 N 0 0 0
0:00:00.00 247742 N 0 0 0
0:00:00.00 248018 N 0 0 0
0:00:00.00 248300 N 0 0 0
0:00:00.00 248587 N 0 0 0
0:00:00.00 248878 N 0 0 0
0:00:00.00 249158 N 0 0 0
0:00:00.00 249434 N 0 0 0
0:00:00.00 249706 N 0 0 0
0:00:00.00 249989 N 0 0 0
0:00:00.00 250273 N 0 0 0
0:00:00.00 250558 N 0 0 0
0:00:00.00 250859 N 0 0 0
0:00:00.00 251160 N 0 0 0
0:00:00.00 251442 N 0 0 0
0:00:00.00 251711 N 0 0 0
0:00:00.00 251994 N 0 0 0
0:00:00.00 252286 N 0 0 0
0:00:00.00 252585 N 0 0 0
0:00:00.00 252868 N 0 0 0
0:00:00.00 253160 N 0 0 0
0:00:00.00 253456 N 0 0 0
0:00:00.00 253742 N 0 0 0
0:00:00.00 254010 N 0 0 0
0:00:00.00 254283 N 0 0 0
0:00:00.00 254585 N 0 0 0
0:00:00.00 254892 N 0 0 0
0:00:00.00 255171 N 0 0 0
0:00:00.00 255453 N 0 0 0
0:00:00.00 255739 N 0 0 0
0:00:00.00 256027 N 0 0 0
0:00:00.00 256296 N 0 0 0
0:00:00.00 256572 N 0 0 0
0:00:00.00 256861 N 0 0 0
0:00:00.00 257158 N 0 0 0
0:00:00.00 257440 N 0 0 0
0:00:00.00 257710 N 0 0 0
0:00:00.00 257966 N 0 0 0
0:00:00.00 258226 N 0 0 0
0:00:00.00 258479 N 0 0 0
0:00:00.00 258738 N 0 0 0
0:00:00.00 259005 N 0 0 0
0:00:00.00 259280 N 0 0 0
0:00:00.00 259541 N 0 0 0
0:00:00.00 259812 N 0 0 0
0:00:00.00 260077 N 0 0 0
0:00:00.00 260335 N 0 0 0
0:00:00.00 260586 N 0 0 0
0:00:00.00 260853 N 0 0 0
0:00:00.00 261133 N 0 0 0
0:00:00.00 261418 N 0 0 0
0:00:00.00 261691 N 0 0 0
0:00:00.00 261968 N 0 0 0
0:00:00.00 262241 N 0 0 0
0:00:00.00 262517 N 0 0 0
0:00:00.00 262789 N 0 0 0
0:00:00.00 263063 N 0 0 0
0:00:00.00 263350 N 0 0 0
0:00:00.00 263641 N 0 0 0
0:00:00.00 263931 N 0 0 0
0:00:00.00 264218 N 0 0 0
0:00:00.00 264499 N 0 0 0
0:00:00.00 264773 N 0 0 0
0:00:00.00 265062 N 0 0 0
0:00:00.00 265354 N 0 0 0
0:00:00.00 265652 N 0 0 0
0:00:00.00 265947 N 0 0 0
0:00:00.00 266239 N 0 0 0
0:00:00.00 266529 N 0 0 0
0:00:00.00 266815 N 0 0 0
0:00:00.00 267099 N 0 0 0
0:00:00.00 267376 N 0 0 0
0:00:00.00 267680 N 0 0 0
0:00:00.00 267979 N 0 0 0
0:00:00.00 268260 N 0 0 0
0:00:00.00 268545 N 0 0 0
0:00:00.00 268823 N 0 0 0
0:00:00.00 269102 N 0 0 0
0:00:00.00 269384 N 0 0 0
0:00:00.00 269670 N 0 0 0
0:00:00.00 269960 N 0 0 0
0:00:00.00 270257 N 0 0 0
0:00:00.00 270551 N 0 0 0
0:00:00.00 270822 N 0 0 0
0:00:00.00 271095 N 0 0 0
0:00:00.00 271371 N 0 0 0
0:00:00.00 271656 N 0 0 0
0:00:00.00 271953 N 0 0 0
0:00:00.00 272245 N 0 0 0
0:00:00.00 272533 N 0 0 0
0:00:00.00 272839 N 0 0 0
0:00:00.00 273124 N 0 0 0
0:00:00.00 273394 N 0 0 0
0:00:00.00 273676 N 0 0 0
0:00:00.00 273968 N 0 0 0
0:00:00.00 274265 N 0 0 0
0:00:00.00 274561 N 0 0 0
0:00:00.00 274853 N 0 0 0
0:00:00.00 275132 N 0 0 0
0:00:00.00 275403 N 0 0 0
0:00:00.00 275672 N 0 0 0
0:00:00.00 275949 N 0 0 0
0:00:00.00 276236 N 0 0 0
0:00:00.00 276517 N 0 0 0
0:00:00.00 276805 N 0 0 0
0:00:00.00 277103 N 0 0 0
0:00:00.00 277389 N 0 0 0
0:00:00.00 277650 N 0 0 0
0:00:00.00 277923 N 0 0 0
0:00:00.00 278212 N 0 0 0
0:00:00.00 278518 N 0 0 0
0:00:00.00 278814 N 0 0 0
0:00:00.00 279099 N 0 0 0
0:00:00.00 279382 N 0 0 0
0:00:00.00 279576 N 0 0 0
0:00:00.00 279918 N 0 0 0
0:00:00.00 280209 N 0 0 0
0:00:00.00 280512 N 0 0 0
0:00:00.00 280815 N 0 0 0
0:00:00.00 281110 N 0 0 0
0:00:00.00 281402 N 0 0 0
0:00:00.00 281682 N 0 0 0
0:00:00.00 281955 N 0 0 0
0:00:00.00 282233 N 0 0 0
0:00:00.00 282514 N 0 0 0
0:00:00.00 282802 N 0 0 0
0:00:00.00 283097 N 0 0 0
0:00:00.00 283389 N 0 0 0
0:00:00.00 283672 N 0 0 0
0:00:00.00 283944 N 0 0 0
0:00:00.00 284217 N 0 0 0
0:00:00.00 284492 N 0 0 0
0:00:00.00 284779 N 0 0 0
0:00:00.00 285073 N 0 0 0
0:00:00.00 285363 N 0 0 0
0:00:00.00 285653 N 0 0 0
0:00:00.00 285937 N 0 0 0
0:00:00.00 286210 N 0 0 0
0:00:00.00 286487 N 0 0 0
0:00:00.00 286764 N 0 0 0
0:00:00.00 287052 N 0 0 0
0:00:00.00 287354 N 0 0 0
0:00:00.00 287656 N 0 0 0
0:00:00.00 287945 N 0 0 0
0:00:00.00 288226 N 0 0 0
0:00:00.00 288507 N 0 0 0
0:00:00.00 288793 N 0 0 0
0:00:00.00 289077 N 0 0 0
0:00:00.00 289373 N 0 0 0
0:00:00.00 289667 N 0 0 0
0:00:00.00 289971 N 0 0 0
0:00:00.00 290258 N 0 0 0
0:00:00.00 290538 N 0 0 0
0:00:00.00 290814 N 0 0 0
0:00:00.00 291110 N 0 0 0
0:00:00.00 291408 N 0 0 0
0:00:00.00 291697 N 0 0 0
0:00:00.00 291990 N 0 0 0
0:00:00.00 292282 N 0 0 0
0:00:00.00 292567 N 0 0 0
0:00:00.00 292845 N 0 0 0
0:00:00.00 293123 N 0 0 0
0:00:00.00 293412 N 0 0 0
0:00:00.00 293713 N 0 0 0
0:00:00.00 294011 N 0 0 0
0:00:00.00 294296 N 0 0 0
0:00:00.00 294582 N 0 0 0
0:00:00.00 294857 N 0 0 0
0:00:00.00 295143 N 0 0 0
0:00:00.00 295422 N 0 0 0
0:00:00.00 295718 N 0 0 0
0:00:00.00 296014 N 0 0 0
0:00:00.00 296320 N 0 0 0
0:00:00.00 296612 N 0 0 0
0:00:00.00 296889 N 0 0 0
0:00:00.00 297170 N 0 0 0
0:00:00.00 297451 N 0 0 0
0:00:00.00 297739 N 0 0 0
0:00:00.00 298033 N 0 0 0
0:00:00.00 298335 N 0 0 0
0:00:00.00 298628 N 0 0 0
0:00:00.00 298921 N 0 0 0
0:00:00.00 299206 N 0 0 0
0:00:00.00 299484 N 0 0 0
0:00:00.00 299757 N 0 0 0
0:00:00.00 300052 N 0 0 0
0:00:00.00 300360 N 0 0 0
0:00:00.00 300663 N 0 0 0
0:00:00.00 300940 N 0 0 0
0:00:00.00 301211 N 0 0 0
0:00:00.00 301495 N 0 0 0
0:00:00.00 301782 N 0 0 0
0:00:00.00 302064 N 0 0 0
0:00:00.00 302348 N 0 0 0
0:00:00.00 302645 N 0 0 0
0:00:00.00 302948 N 0 0 0
0:00:00.00 303241 N 0 0 0
0:00:00.00 303503 N 0 0 0
0:00:00.00 303773 N 0 0 0
0:00:00.00 304066 N 0 0 0
0:00:00.00 304362 N 0 0 0
0:00:00.00 304639 N 0 0 0
0:00:00.00 304924 N 0 0 0
0:00:00.00 305211 N 0 0 0
0:00:00.00 305498 N 0 0 0
0:00:00.00 305709 N 0 0 0
0:00:00.00 306036 N 0 0 0
0:00:00.00 306337 N 0 0 0
0:00:00.00 306641 N 0 0 0
0:00:00.00 306944 N 0 0 0
0:00:00.00 307234 N 0 0 0
0:00:00.00 307514 N 0 0 0
0:00:00.00 307745 N 0 0 0
0:00:00.00 308063 N 0 0 0
0:00:00.00 308350 N 0 0 0
0:00:00.00 308625 N 0 0 0
0:00:00.00 308912 N 0 0 0
0:00:00.00 309217 N 0 0 0
0:00:00.00 309516 N 0 0 0
0:00:00.00 309780 N 0 0 0
0:00:00.00 310053 N 0 0 0
0:00:00.00 310333 N 0 0 0
0:00:00.00 310627 N 0 0 0
0:00:00.00 310915 N 0 0 0
0:00:00.00 311199 N 0 0 0
0:00:00.00 311488 N 0 0 0
0:00:00.00 311783 N 0 0 0
0:00:00.00 312062 N 0 0 0
0:00:00.00 312328 N 0 0 0
0:00:00.00 312605 N 0 0 0
0:00:00.00 312826 N 0 0 0
0:00:00.00 313194 N 0 0 0
0:00:00.00 313509 N 0 0 0
0:00:00.00 313808 N 0 0 0
0:00:00.00 314091 N 0 0 0
0:00:00.00 314373 N 0 0 0
0:00:00.00 314665 N 0 0 0
0:00:00.00 314952 N 0 0 0
0:00:00.00 315246 N 0 0 0
0:00:00.00 315542 N 0 0 0
0:00:00.00 315844 N 0 0 0
0:00:00.00 316136 N 0 0 0
0:00:00.00 316416 N 0 0 0
0:00:00.00 316694 N 0 0 0
0:00:00.00 316981 N 0 0 0
0:00:00.00 317266 N 0 0 0
0:00:00.00 317561 N 0 0 0
0:00:00.00 317785 N 0 0 0
0:00:00.00 318145 N 0 0 0
0:00:00.00 318438 N 0 0 0
0:00:00.00 318729 N 0 0 0
0:00:00.00 319011 N 0 0 0
0:00:00.00 319223 N 0 0 0
0:00:00.00 319587 N 0 0 0
0:00:00.00 319905 N 0 0 0
0:00:00.00 320205 N 0 0 0
0:00:00.00 320494 N 0 0 0
0:00:00.00 320786 N 0 0 0
0:00:00.00 321073 N 0 0 0
0:00:00.00 321372 N 0 0 0
0:00:00.00 321664 N 0 0 0
0:00:00.00 321968 N 0 0 0
0:00:00.00 322275 N 0 0 0
0:00:00.00 322573 N 0 0 0
0:00:00.00 322857 N 0 0 0
0:00:00.00 323138 N 0 0 0
0:00:00.00 323426 N 0 0 0
0:00:00.00 323731 N 0 0 0
0:00:00.00 324045 N 0 0 0
0:00:00.00 324341 N 0 0 0
0:00:00.00 324641 N 0 0 0
0:00:00.00 324930 N 0 0 0
0:00:00.00 325216 N 0 0 0
0:00:00.00 325495 N 0 0 0
0:00:00.00 325783 N 0 0 0
0:00:00.00 326089 N 0 0 0
0:00:00.00 326396 N 0 0 0
0:00:00.00 326698 N 0 0 0
0:00:00.00 326987 N 0 0 0
0:00:00.00 327277 N 0 0 0
0:00:00.00 327566 N 0 0 0
0:00:00.00 327859 N 0 0 0
0:00:00.00 328150 N 0 0 0
0:00:00.00 328452 N 0 0 0
0:00:00.00 328754 N 0 0 0
0:00:00.00 329057 N 0 0 0
0:00:00.00 329339 N 0 0 0
0:00:00.00 329620 N 0 0 0
0:00:00.00 329913 N 0 0 0
0:00:00.00 330217 N 0 0 0
0:00:00.00 330524 N 0 0 0
0:00:00.00 330820 N 0 0 0
0:00:00.00 331124 N 0 0 0
0:00:00.00 331411 N 0 0 0
0:00:00.00 331705 N 0 0 0
0:00:00.00 331989 N 0 0 0
0:00:00.00 332280 N 0 0 0
0:00:00.00 332589 N 0 0 0
0:00:00.00 332898 N 0 0 0
0:00:00.00 333200 N 0 0 0
0:00:00.00 333479 N 0 0 0
0:00:00.00 333768 N 0 0 0
0:00:00.00 334057 N 0 0 0
0:00:00.00 334348 N 0 0 0
0:00:00.00 334644 N 0 0 0
0:00:00.00 334944 N 0 0 0
0:00:00.00 335249 N 0 0 0
0:00:00.00 335543 N 0 0 0
0:00:00.00 335823 N 0 0 0
0:00:00.00 336100 N 0 0 0
0:00:00.00 336386 N 0 0 0
0:00:00.00 336680 N 0 0 0
0:00:00.00 336980 N 0 0 0
0:00:00.00 337282 N 0 0 0
0:00:00.00 337571 N 0 0 0
0:00:00.00 337863 N 0 0 0
0:00:00.00 338146 N 0 0 0
0:00:00.00 338432 N 0 0 0
0:00:00.00 338721 N 0 0 0
0:00:00.00 339025 N 0 0 0
0:00:00.00 339327 N 0 0 0
0:00:00.00 339635 N 0 0 0
0:00:00.00 339926 N 0 0 0
0:00:00.00 340206 N 0 0 0
0:00:00.00 340493 N 0 0 0
0:00:00.00 340780 N 0 0 0
0:00:00.00 341075 N 0 0 0
0:00:00.00 341379 N 0 0 0
0:00:00.00 341685 N 0 0 0
0:00:00.00 341974 N 0 0 0
0:00:00.00 342266 N 0 0 0
0:00:00.00 342547 N 0 0 0
0:00:00.00 342822 N 0 0 0
0:00:00.00 343116 N 0 0 0
0:00:00.00 343410 N 0 0 0
0:00:00.00 343706 N 0 0 0
0:00:00.00 343995 N 0 0 0
0:00:00.00 344280 N 0 0 0
0:00:00.00 344557 N 0 0 0
0:00:00.00 344843 N 0 0 0
0:00:00.00 345129 N 0 0 0
0:00:00.00 345416 N 0 0 0
0:00:00.00 345723 N 0 0 0
0:00:00.00 346018 N 0 0 0
0:00:00.00 346309 N 0 0 0
0:00:00.00 346597 N 0 0 0
0:00:00.00 346804 N 0 0 0
0:00:00.00 347148 N 0 0 0
0:00:00.00 347455 N 0 0 0
0:00:00.00 347760 N 0 0 0
0:00:00.00 348063 N 0 0 0
0:00:00.00 348367 N 0 0 0
0:00:00.00 348659 N 0 0 0
0:00:00.00 348935 N 0 0 0
0:00:00.00 349222 N 0 0 0
0:00:00.00 349503 N 0 0 0
0:00:00.00 349805 N 0 0 0
0:00:00.00 350112 N 0 0 0
0:00:00.00 350410 N 0 0 0
0:00:00.00 350693 N 0 0 0
0:00:00.00 350980 N 0 0 0
0:00:00.00 351266 N 0 0 0
0:00:00.00 351481 N 0 0 0
0:00:00.00 351821 N 0 0 0
0:00:00.00 352116 N 0 0 0
0:00:00.00 352416 N 0 0 0
0:00:00.00 352711 N 0 0 0
0:00:00.00 352987 N 0 0 0
0:00:00.00 353257 N 0 0 0
0:00:00.00 353549 N 0 0 0
0:00:00.00 353833 N 0 0 0
0:00:00.00 354129 N 0 0 0
0:00:00.00 354426 N 0 0 0
0:00:00.00 354718 N 0 0 0
0:00:00.00 355016 N 0 0 0
0:00:00.00 355303 N 0 0 0
0:00:00.00 355580 N 0 0 0
0:00:00.00 355858 N 0 0 0
0:00:00.00 356165 N 0 0 0
0:00:00.00 356464 N 0 0 0
0:00:00.00 356759 N 0 0 0
0:00:00.00 357046 N 0 0 0
0:00:00.00 357328 N 0 0 0
0:00:00.00 357611 N 0 0 0
0:00:00.00 357901 N 0 0 0
0:00:00.00 358186 N 0 0 0
0:00:00.00 358483 N 0 0 0
0:00:00.00 358789 N 0 0 0
0:00:00.00 359087 N 0 0 0
0:00:00.00 359365 N 0 0 0
0:00:00.00 359634 N 0 0 0
0:00:00.00 359903 N 0 0 0
0:00:00.00 360182 N 0 0 0
0:00:00.00 360471 N 0 0 0
0:00:00.00 360764 N 0 0 0
0:00:00.00 361052 N 0 0 0
0:00:00.00 361344 N 0 0 0
0:00:00.00 361626 N 0 0 0
0:00:00.00 361895 N 0 0 0
0:00:00.00 362163 N 0 0 0
0:00:00.00 362451 N 0 0 0
0:00:00.00 362733 N 0 0 0
0:00:00.00 363027 N 0 0 0
0:00:00.00 363319 N 0 0 0
0:00:00.00 363606 N 0 0 0
0:00:00.00 363878 N 0 0 0
0:00:00.00 364159 N 0 0 0
0:00:00.00 364447 N 0 0 0
0:00:00.00 364731 N 0 0 0
0:00:00.00 365023 N 0 0 0
0:00:00.00 365331 N 0 0 0
0:00:00.00 365640 N 0 0 0
0:00:00.00 365915 N 0 0 0
0:00:00.00 366192 N 0 0 0
0:00:00.00 366483 N 0 0 0
0:00:00.00 366778 N 0 0 0
0:00:00.00 367064 N 0 0 0
0:00:00.00 367364 N 0 0 0
0:00:00.00 367675 N 0 0 0
0:00:00.00 367960 N 0 0 0
0:00:00.00 368248 N 0 0 0
0:00:00.00 368532 N 0 0 0
0:00:00.00 368824 N 0 0 0
0:00:00.00 369110 N 0 0 0
0:00:00.00 369410 N 0 0 0
0:00:00.00 369715 N 0 0 0
0:00:00.00 370011 N 0 0 0
0:00:00.00 370280 N 0 0 0
0:00:00.00 370557 N 0 0 0
0:00:00.00 370843 N 0 0 0
0:00:00.00 371132 N 0 0 0
0:00:00.00 371406 N 0 0 0
0:00:00.00 371704 N 0 0 0
0:00:00.00 372007 N 0 0 0
0:00:00.00 372300 N 0 0 0
0:00:00.00 372558 N 0 0 0
0:00:00.00 372835 N 0 0 0
0:00:00.00 373124 N 0 0 0
0:00:00.00 373428 N 0 0 0
0:00:00.00 373713 N 0 0 0
0:00:00.00 374000 N 0 0 0
0:00:00.00 374304 N 0 0 0
0:00:00.00 374595 N 0 0 0
0:00:00.00 374855 N 0 0 0
0:00:00.00 375125 N 0 0 0
0:00:00.00 375413 N 0 0 0
0:00:00.00 375716 N 0 0 0
0:00:00.00 375998 N 0 0 0
0:00:00.00 376288 N 0 0 0
0:00:00.00 376576 N 0 0 0
0:00:00.00 376861 N 0 0 0
0:00:00.00 377081 N 0 0 0
0:00:00.00 377405 N 0 0 0
0:00:00.00 377700 N 0 0 0
0:00:00.00 378005 N 0 0 0
0:00:00.00 378309 N 0 0 0
0:00:00.00 378608 N 0 0 0
0:00:00.00 378886 N 0 0 0
0:00:00.00 379159 N 0 0 0
0:00:00.00 379440 N 0 0 0
0:00:00.00 379732 N 0 0 0
0:00:00.00 380024 N 0 0 0
0:00:00.00 380312 N 0 0 0
0:00:00.00 380611 N 0 0 0
0:00:00.00 380899 N 0 0 0
0:00:00.00 381173 N 0 0 0
0:00:00.00 381453 N 0 0 0
0:00:00.00 381725 N 0 0 0
0:00:00.00 382015 N 0 0 0
0:00:00.00 382309 N 0 0 0
0:00:00.00 382608 N 0 0 0
0:00:00.00 382895 N 0 0 0
0:00:00.00 383184 N 0 0 0
0:00:00.00 383458 N 0 0 0
0:00:00.00 383744 N 0 0 0
0:00:00.00 384027 N 0 0 0
0:00:00.00 384317 N 0 0 0
0:00:00.00 384615 N 0 0 0
0:00:00.00 384916 N 0 0 0
0:00:00.00 385206 N 0 0 0
0:00:00.00 385488 N 0 0 0
0:00:00.00 385769 N 0 0 0
0:00:00.00 386051 N 0 0 0
0:00:00.00 386349 N 0 0 0
0:00:00.00 386650 N 0 0 0
0:00:00.00 386941 N 0 0 0
0:00:00.00 387242 N 0 0 0
0:00:00.00 387533 N 0 0 0
0:00:00.00 387812 N 0 0 0
0:00:00.00 388085 N 0 0 0
0:00:00.00 388373 N 0 0 0
0:00:00.00 388672 N 0 0 0
0:00:00.00 388980 N 0 0 0
0:00:00.00 389278 N 0 0 0
0:00:00.00 389564 N 0 0 0
0:00:00.00 389860 N 0 0 0
0:00:00.00 390150 N 0 0 0
0:00:00.00 390434 N 0 0 0
0:00:00.00 390731 N 0 0 0
0:00:00.00 391040 N 0 0 0
0:00:00.00 391345 N 0 0 0
0:00:00.00 391641 N 0 0 0
0:00:00.00 391924 N 0 0 0
0:00:00.00 392204 N 0 0 0
0:00:00.00 392494 N 0 0 0
0:00:00.00 392781 N 0 0 0
0:00:00.00 393077 N 0 0 0
0:00:00.00 393378 N 0 0 0
0:00:00.00 393675 N 0 0 0
0:00:00.00 393957 N 0 0 0
0:00:00.00 394244 N 0 0 0
0:00:00.00 394520 N 0 0 0
0:00:00.00 394801 N 0 0 0
0:00:00.00 395097 N 0 0 0
0:00:00.00 395402 N 0 0 0
0:00:00.00 395697 N 0 0 0
0:00:00.00 395989 N 0 0 0
0:00:00.00 396269 N 0 0 0
0:00:00.00 396553 N 0 0 0
0:00:00.00 396846 N 0 0 0
0:00:00.00 397134 N 0 0 0
0:00:00.00 397336 N 0 0 0
0:00:00.00 397705 N 0 0 0
0:00:00.00 398008 N 0 0 0
0:00:00.00 398295 N 0 0 0
0:00:00.00 398569 N 0 0 0
0:00:00.00 398854 N 0 0 0
0:00:00.00 399140 N 0 0 0
0:00:00.00 399436 N 0 0 0
0:00:00.00 399731 N 0 0 0
0:00:00.00 400024 N 0 0 0
0:00:00.00 400323 N 0 0 0
0:00:00.00 400600 N 0 0 0
0:00:00.00 400878 N 0 0 0
0:00:00.00 401164 N 0 0 0
0:00:00.00 401453 N 0 0 0
0:00:00.00 401758 N 0 0 0
0:00:00.00 402061 N 0 0 0
0:00:00.00 402361 N 0 0 0
0:00:00.00 402646 N 0 0 0
0:00:00.00 402933 N 0 0 0
0:00:00.00 403216 N 0 0 0
0:00:00.00 403509 N 0 0 0
0:00:00.00 403805 N 0 0 0
0:00:00.00 404101 N 0 0 0
0:00:00.00 404404 N 0 0 0
0:00:00.00 404697 N 0 0 0
0:00:00.00 404980 N 0 0 0
0:00:00.00 405255 N 0 0 0
0:00:00.00 405544 N 0 0 0
0:00:00.00 405836 N 0 0 0
0:00:00.00 406131 N 0 0 0
0:00:00.00 406426 N 0 0 0
0:00:00.00 406716 N 0 0 0
0:00:00.00 407006 N 0 0 0
0:00:00.00 407289 N 0 0 0
0:00:00.00 407560 N 0 0 0
0:00:00.00 407850 N 0 0 0
0:00:00.00 408152 N 0 0 0
0:00:00.00 408452 N 0 0 0
0:00:00.00 408746 N 0 0 0
0:00:00.00 409030 N 0 0 0
0:00:00.00 409314 N 0 0 0
0:00:00.00 409597 N 0 0 0
0:00:00.00 409881 N 0 0 0
0:00:00.00 410177 N 0 0 0
0:00:00.00 410477 N 0 0 0
0:00:00.00 410782 N 0 0 0
0:00:00.00 411072 N 0 0 0
0:00:00.00 411353 N 0 0 0
0:00:00.00 411633 N 0 0 0
0:00:00.00 411916 N 0 0 0
0:00:00.00 412206 N 0 0 0
0:00:00.00 412512 N 0 0 0
0:00:00.00 412817 N 0 0 0
0:00:00.00 413109 N 0 0 0
0:00:00.00 413402 N 0 0 0
0:00:00.00 413692 N 0 0 0
0:00:00.00 413969 N 0 0 0
0:00:00.00 414250 N 0 0 0
0:00:00.00 414542 N 0 0 0
0:00:00.00 414848 N 0 0 0
0:00:00.00 415144 N 0 0 0
0:00:00.00 415431 N 0 0 0
0:00:00.00 415704 N 0 0 0
0:00:00.00 415995 N 0 0 0
0:00:00.00 416276 N 0 0 0
0:00:00.00 416556 N 0 0 0
0:00:00.00 416850 N 0 0 0
0:00:00.00 417153 N 0 0 0
0:00:00.00 417445 N 0 0 0
0:00:00.00 417729 N 0 0 0
0:00:00.00 418007 N 0 0 0
0:00:00.00 418284 N 0 0 0
0:00:00.00 418577 N 0 0 0
0:00:00.00 418866 N 0 0 0
0:00:00.00 419156 N 0 0 0
0:00:00.00 419454 N 0 0 0
0:00:00.00 419745 N 0 0 0
0:00:00.00 420022 N 0 0 0
0:00:00.00 420302 N 0 0 0
0:00:00.00 420584 N 0 0 0
0:00:00.00 420874 N 0 0 0
0:00:00.00 421173 N 0 0 0
0:00:00.00 421474 N 0 0 0
0:00:00.00 421767 N 0 0 0
0:00:00.00 421995 N 0 0 0
0:00:00.00 422321 N 0 0 0
0:00:00.00 422604 N 0 0 0
0:00:00.00 422819 N 0 0 0
0:00:00.00 423164 N 0 0 0
0:00:00.00 423462 N 0 0 0
0:00:00.00 423768 N 0 0 0
0:00:00.00 424064 N 0 0 0
0:00:00.00 424340 N 0 0 0
0:00:00.00 424616 N 0 0 0
0:00:00.00 424894 N 0 0 0
0:00:00.00 425189 N 0 0 0
0:00:00.00 425492 N 0 0 0
0:00:00.00 425789 N 0 0 0
0:00:00.00 426078 N 0 0 0
0:00:00.00 426381 N 0 0 0
0:00:00.00 426662 N 0 0 0
0:00:00.00 426939 N 0 0 0
0:00:00.00 427225 N 0 0 0
0:00:00.00 427524 N 0 0 0
0:00:00.00 427828 N 0 0 0
0:00:00.00 428129 N 0 0 0
0:00:00.00 428413 N 0 0 0
0:00:00.00 428699 N 0 0 0
0:00:00.00 428992 N 0 0 0
0:00:00.00 429277 N 0 0 0
0:00:00.00 429559 N 0 0 0
0:00:00.00 429867 N 0 0 0
0:00:00.00 430166 N 0 0 0
0:00:00.00 430470 N 0 0 0
0:00:00.00 430755 N 0 0 0
0:00:00.00 431035 N 0 0 0
0:00:00.00 431316 N 0 0 0
0:00:00.00 431616 N 0 0 0
0:00:00.00 431911 N 0 0 0
0:00:00.00 432209 N 0 0 0
0:00:00.00 432510 N 0 0 0
0:00:00.00 432799 N 0 0 0
0:00:00.00 433082 N 0 0 0
0:00:00.00 433365 N 0 0 0
0:00:00.00 433648 N 0 0 0
0:00:00.00 433842 N 0 0 0
0:00:00.00 434212 N 0 0 0
0:00:00.00 434513 N 0 0 0
0:00:00.00 434811 N 0 0 0
0:00:00.00 435096 N 0 0 0
0:00:00.00 435371 N 0 0 0
0:00:00.00 435659 N 0 0 0
0:00:00.00 435952 N 0 0 0
0:00:00.00 436150 N 0 0 0
0:00:00.00 436513 N 0 0 0
0:00:00.00 436820 N 0 0 0
0:00:00.00 437118 N 0 0 0
0:00:00.00 437401 N 0 0 0
0:00:00.00 437682 N 0 0 0
0:00:00.00 437965 N 0 0 0
0:00:00.00 438269 N 0 0 0
0:00:00.00 438571 N 0 0 0
0:00:00.00 438866 N 0 0 0
0:00:00.00 439158 N 0 0 0
0:00:00.00 439454 N 0 0 0
0:00:00.00 439740 N 0 0 0
0:00:00.00 440023 N 0 0 0
0:00:00.00 440313 N 0 0 0
0:00:00.00 440623 N 0 0 0
0:00:00.00 440934 N 0 0 0
0:00:00.00 441231 N 0 0 0
0:00:00.00 441519 N 0 0 0
0:00:00.00 441815 N 0 0 0
0:00:00.00 442109 N 0 0 0
0:00:00.00 442406 N 0 0 0
0:00:00.00 442623 N 0 0 0
0:00:00.00 442993 N 0 0 0
0:00:00.00 443305 N 0 0 0
0:00:00.00 443607 N 0 0 0
0:00:00.00 443888 N 0 0 0
0:00:00.00 444176 N 0 0 0
0:00:00.00 444474 N 0 0 0
0:00:00.00 444705 N 0 0 0
0:00:00.00 445061 N 0 0 0
0:00:00.00 445363 N 0 0 0
0:00:00.00 445659 N 0 0 0
0:00:00.00 445948 N 0 0 0
0:00:00.00 446227 N 0 0 0
0:00:00.00 446507 N 0 0 0
0:00:00.00 446800 N 0 0 0
0:00:00.00 447105 N 0 0 0
0:00:00.00 447402 N 0 0 0
0:00:00.00 447696 N 0 0 0
0:00:00.00 447980 N 0 0 0
0:00:00.00 448264 N 0 0 0
0:00:00.00 448548 N 0 0 0
0:00:00.00 448835 N 0 0 0
0:00:00.00 449138 N 0 0 0
0:00:00.00 449442 N 0 0 0
0:00:00.00 449748 N 0 0 0
0:00:00.00 450038 N 0 0 0
0:00:00.00 450326 N 0 0 0
0:00:00.00 450607 N 0 0 0
0:00:00.00 450895 N 0 0 0
0:00:00.00 451193 N 0 0 0
0:00:00.00 451501 N 0 0 0
0:00:00.00 451806 N 0 0 0
0:00:00.00 452101 N 0 0 0
0:00:00.00 452390 N 0 0 0
0:00:00.00 452678 N 0 0 0
0:00:00.00 452959 N 0 0 0
0:00:00.00 453251 N 0 0 0
0:00:00.00 453545 N 0 0 0
0:00:00.00 453852 N 0 0 0
0:00:00.00 454155 N 0 0 0
0:00:00.00 454444 N 0 0 0
0:00:00.00 454652 N 0 0 0
0:00:00.00 454997 N 0 0 0
0:00:00.00 455294 N 0 0 0
0:00:00.00 455588 N 0 0 0
0:00:00.00 455888 N 0 0 0
0:00:00.00 456190 N 0 0 0
0:00:00.00 456488 N 0 0 0
0:00:00.00 456772 N 0 0 0
0:00:00.00 457046 N 0 0 0
0:00:00.00 457333 N 0 0 0
0:00:00.00 457635 N 0 0 0
0:00:00.00 457937 N 0 0 0
0:00:00.00 458169 N 0 0 0
0:00:00.00 458524 N 0 0 0
0:00:00.00 458816 N 0 0 0
0:00:00.00 459104 N 0 0 0
0:00:00.00 459381 N 0 0 0
0:00:00.00 459664 N 0 0 0
0:00:00.00 459967 N 0 0 0
0:00:00.00 460275 N 0 0 0
0:00:00.00 460572 N 0 0 0
0:00:00.00 460858 N 0 0 0
0:00:00.00 461149 N 0 0 0
0:00:00.00 461434 N 0 0 0
0:00:00.00 461721 N 0 0 0
0:00:00.00 462014 N 0 0 0
0:00:00.00 462315 N 0 0 0
0:00:00.00 462622 N 0 0 0
0:00:00.00 462919 N 0 0 0
0:00:00.00 463198 N 0 0 0
0:00:00.00 463482 N 0 0 0
0:00:00.00 463765 N 0 0 0
0:00:00.00 464049 N 0 0 0
0:00:00.00 464361 N 0 0 0
0:00:00.00 464665 N 0 0 0
0:00:00.00 464960 N 0 0 0
0:00:00.00 465257 N 0 0 0
0:00:00.00 465539 N 0 0 0
0:00:00.00 465820 N 0 0 0
0:00:00.00 466105 N 0 0 0
0:00:00.00 466405 N 0 0 0
0:00:00.00 466708 N 0 0 0
0:00:00.00 467011 N 0 0 0
0:00:00.00 467308 N 0 0 0
0:00:00.00 467589 N 0 0 0
0:00:00.00 467878 N 0 0 0
0:00:00.00 468165 N 0 0 0
0:00:00.00 468459 N 0 0 0
0:00:00.00 468762 N 0 0 0
0:00:00.00 469066 N 0 0 0
0:00:00.00 469363 N 0 0 0
0:00:00.00 469661 N 0 0 0
0:00:00.00 469942 N 0 0 0
0:00:00.00 470231 N 0 0 0
0:00:00.00 470531 N 0 0 0
0:00:00.00 470837 N 0 0 0
0:00:00.00 471139 N 0 0 0
0:00:00.00 471444 N 0 0 0
0:00:00.00 471727 N 0 0 0
0:00:00.00 472019 N 0 0 0
0:00:00.00 472304 N 0 0 0
0:00:00.00 472589 N 0 0 0
0:00:00.00 472888 N 0 0 0
0:00:00.00 473202 N 0 0 0
0:00:00.00 473499 N 0 0 0
0:00:00.00 473792 N 0 0 0
0:00:00.00 474074 N 0 0 0
0:00:00.00 474363 N 0 0 0
0:00:00.00 474653 N 0 0 0
0:00:00.00 474943 N 0 0 0
0:00:00.00 475238 N 0 0 0
0:00:00.00 475548 N 0 0 0
0:00:00.00 475851 N 0 0 0
0:00:00.00 476137 N 0 0 0
0:00:00.00 476417 N 0 0 0
0:00:00.00 476706 N 0 0 0
0:00:00.00 477000 N 0 0 0
0:00:00.00 477308 N 0 0 0
0:00:00.00 477605 N 0 0 0
0:00:00.00 477899 N 0 0 0
0:00:00.00 478196 N 0 0 0
0:00:00.00 478481 N 0 0 0
0:00:00.00 478757 N 0 0 0
0:00:00.00 479040 N 0 0 0
0:00:00.00 479332 N 0 0 0
0:00:00.00 479634 N 0 0 0
0:00:00.00 479931 N 0 0 0
0:00:00.00 480218 N 0 0 0
0:00:00.00 480494 N 0 0 0
0:00:00.00 480780 N 0 0 0
0:00:00.00 481057 N 0 0 0
0:00:00.00 481341 N 0 0 0
0:00:00.00 481642 N 0 0 0
0:00:00.00 481941 N 0 0 0
0:00:00.00 482240 N 0 0 0
0:00:00.00 482525 N 0 0 0
0:00:00.00 482802 N 0 0 0
0:00:00.00 483072 N 0 0 0
0:00:00.00 483351 N 0 0 0
0:00:00.00 483635 N 0 0 0
0:00:00.00 483931 N 0 0 0
0:00:00.00 484221 N 0 0 0
0:00:00.00 484507 N 0 0 0
0:00:00.00 484786 N 0 0 0
0:00:00.00 485073 N 0 0 0
0:00:00.00 485353 N 0 0 0
0:00:00.00 485641 N 0 0 0
0:00:00.00 485939 N 0 0 0
0:00:00.00 486253 N 0 0 0
0:00:00.00 486557 N 0 0 0
0:00:00.00 486845 N 0 0 0
0:00:00.00 487129 N 0 0 0
0:00:00.00 487424 N 0 0 0
0:00:00.00 487719 N 0 0 0
0:00:00.00 488019 N 0 0 0
0:00:00.00 488321 N 0 0 0
0:00:00.00 488636 N 0 0 0
0:00:00.00 488932 N 0 0 0
0:00:00.00 489215 N 0 0 0
0:00:00.00 489497 N 0 0 0
0:00:00.00 489789 N 0 0 0
0:00:00.00 490091 N 0 0 0
0:00:00.00 490394 N 0 0 0
0:00:00.00 490696 N 0 0 0
0:00:00.00 490995 N 0 0 0
0:00:00.00 491287 N 0 0 0
0:00:00.00 491570 N 0 0 0
0:00:00.00 491850 N 0 0 0
0:00:00.00 492146 N 0 0 0
0:00:00.00 492445 N 0 0 0
0:00:00.00 492751 N 0 0 0
0:00:00.00 493046 N 0 0 0
0:00:00.00 493340 N 0 0 0
0:00:00.00 493624 N 0 0 0
0:00:00.00 493914 N 0 0 0
0:00:00.00 494200 N 0 0 0
0:00:00.00 494492 N 0 0 0
0:00:00.00 494791 N 0 0 0
0:00:00.00 495086 N 0 0 0
0:00:00.00 495370 N 0 0 0
0:00:00.00 495649 N 0 0 0
0:00:00.00 495925 N 0 0 0
0:00:00.00 496202 N 0 0 0
0:00:00.00 496500 N 0 0 0
0:00:00.00 496713 N 0 0 0
0:00:00.00 497075 N 0 0 0
0:00:00.00 497377 N 0 0 0
0:00:00.00 497665 N 0 0 0
0:00:00.00 497945 N 0 0 0
0:00:00.00 498231 N 0 0 0
0:00:00.00 498518 N 0 0 0
0:00:00.00 498812 N 0 0 0
0:00:00.00 499115 N 0 0 0
0:00:00.00 499418 N 0 0 0
0:00:00.00 499702 N 0 0 0
0:00:00.00 499987 N 0 0 0
0:00:00.00 500268 N 0 0 0
0:00:00.00 500549 N 0 0 0
0:00:00.00 500848 N 0 0 0
0:00:00.00 501146 N 0 0 0
0:00:00.00 501449 N 0 0 0
0:00:00.00 501746 N 0 0 0
0:00:00.00 502040 N 0 0 0
0:00:00.00 502317 N 0 0 0
0:00:00.00 502601 N 0 0 0
0:00:00.00 502889 N 0 0 0
0:00:00.00 503191 N 0 0 0
0:00:00.00 503497 N 0 0 0
0:00:00.00 503794 N 0 0 0
0:00:00.00 504081 N 0 0 0
0:00:00.00 504374 N 0 0 0
0:00:00.00 504655 N 0 0 0
0:00:00.00 504936 N 0 0 0
0:00:00.00 505228 N 0 0 0
0:00:00.00 505529 N 0 0 0
0:00:00.00 505830 N 0 0 0
0:00:00.00 506125 N 0 0 0
0:00:00.00 506398 N 0 0 0
0:00:00.00 506679 N 0 0 0
0:00:00.00 506970 N 0 0 0
0:00:00.00 507257 N 0 0 0
0:00:00.00 507553 N 0 0 0
0:00:00.00 507855 N 0 0 0
0:00:00.00 508160 N 0 0 0
0:00:00.00 508456 N 0 0 0
0:00:00.00 508744 N 0 0 0
0:00:00.00 509020 N 0 0 0
0:00:00.00 509320 N 0 0 0
0:00:00.00 509624 N 0 0 0
0:00:00.00 509924 N 0 0 0
0:00:00.00 510221 N 0 0 0
0:00:00.00 510521 N 0 0 0
0:00:00.00 510805 N 0 0 0
0:00:00.00 511093 N 0 0 0
0:00:00.00 511372 N 0 0 0
0:00:00.00 511660 N 0 0 0
0:00:00.00 511971 N 0 0 0
0:00:00.00 512278 N 0 0 0
0:00:00.00 512568 N 0 0 0
0:00:00.00 512851 N 0 0 0
0:00:00.00 513136 N 0 0 0
0:00:00.00 513424 N 0 0 0
0:00:00.00 513720 N 0 0 0
0:00:00.00 514014 N 0 0 0
0:00:00.00 514318 N 0 0 0
0:00:00.00 514628 N 0 0 0
0:00:00.00 514919 N 0 0 0
0:00:00.00 515195 N 0 0 0
0:00:00.00 515476 N 0 0 0
0:00:00.00 515763 N 0 0 0
0:00:00.00 516065 N 0 0 0
0:00:00.00 516372 N 0 0 0
0:00:00.00 516668 N 0 0 0
0:00:00.00 516971 N 0 0 0
0:00:00.00 517266 N 0 0 0
0:00:00.00 517554 N 0 0 0
0:00:00.00 517832 N 0 0 0
0:00:00.00 518128 N 0 0 0
0:00:00.00 518427 N 0 0 0
0:00:00.00 518734 N 0 0 0
0:00:00.00 519029 N 0 0 0
0:00:00.00 519308 N 0 0 0
0:00:00.00 519594 N 0 0 0
0:00:00.00 519883 N 0 0 0
0:00:00.00 520150 N 0 0 0
0:00:00.00 520463 N 0 0 0
0:00:00.00 520769 N 0 0 0
0:00:00.00 520982 N 0 0 0
0:00:00.00 521342 N 0 0 0
0:00:00.00 521628 N 0 0 0
0:00:00.00 521913 N 0 0 0
0:00:00.00 522209 N 0 0 0
0:00:00.00 522512 N 0 0 0
0:00:00.00 522816 N 0 0 0
0:00:00.00 523117 N 0 0 0
0:00:00.00 523417 N 0 0 0
0:00:00.00 523708 N 0 0 0
0:00:00.00 523999 N 0 0 0
0:00:00.00 524280 N 0 0 0
0:00:00.00 524578 N 0 0 0
0:00:00.00 524891 N 0 0 0
0:00:00.00 525199 N 0 0 0
0:00:00.00 525492 N 0 0 0
0:00:00.00 525781 N 0 0 0
0:00:00.00 526065 N 0 0 0
0:00:00.00 526356 N 0 0 0
0:00:00.00 526647 N 0 0 0
0:00:00.00 526941 N 0 0 0
0:00:00.00 527244 N 0 0 0
0:00:00.00 527549 N 0 0 0
0:00:00.00 527839 N 0 0 0
0:00:00.00 528119 N 0 0 0
0:00:00.00 528403 N 0 0 0
0:00:00.00 528690 N 0 0 0
0:00:00.00 528992 N 0 0 0
0:00:00.00 529293 N 0 0 0
0:00:00.00 529600 N 0 0 0
0:00:00.00 529897 N 0 0 0
0:00:00.00 530191 N 0 0 0
0:00:00.00 530472 N 0 0 0
0:00:00.00 530763 N 0 0 0
0:00:00.00 531058 N 0 0 0
0:00:00.00 531358 N 0 0 0
0:00:00.00 531668 N 0 0 0
0:00:00.00 531968 N 0 0 0
0:00:00.00 532258 N 0 0 0
0:00:00.00 532544 N 0 0 0
0:00:00.00 532828 N 0 0 0
0:00:00.00 533122 N 0 0 0
0:00:00.00 533416 N 0 0 0
0:00:00.00 533720 N 0 0 0
0:00:00.00 534013 N 0 0 0
0:00:00.00 534308 N 0 0 0
0:00:00.00 534593 N 0 0 0
0:00:00.00 534873 N 0 0 0
0:00:00.00 535161 N 0 0 0
0:00:00.00 535459 N 0 0 0
0:00:00.00 535768 N 0 0 0
0:00:00.00 536068 N 0 0 0
0:00:00.00 536365 N 0 0 0
0:00:00.00 536645 N 0 0 0
0:00:00.00 536931 N 0 0 0
0:00:00.00 537212 N 0 0 0
0:00:00.00 537506 N 0 0 0
0:00:00.00 537811 N 0 0 0
0:00:00.00 538116 N 0 0 0
0:00:00.00 538422 N 0 0 0
0:00:00.00 538708 N 0 0 0
0:00:00.00 538993 N 0 0 0
0:00:00.00 539278 N 0 0 0
0:00:00.00 539575 N 0 0 0
0:00:00.00 539875 N 0 0 0
0:00:00.00 540172 N 0 0 0
0:00:00.00 540472 N 0 0 0
0:00:00.00 540769 N 0 0 0
0:00:00.00 541052 N 0 0 0
0:00:00.00 541334 N 0 0 0
0:00:00.00 541617 N 0 0 0
0:00:00.00 541917 N 0 0 0
0:00:00.00 542227 N 0 0 0
0:00:00.00 542530 N 0 0 0
0:00:00.00 542826 N 0 0 0
0:00:00.00 543116 N 0 0 0
0:00:00.00 543408 N 0 0 0
0:00:00.00 543689 N 0 0 0
0:00:00.00 543984 N 0 0 0
0:00:00.00 544286 N 0 0 0
0:00:00.00 544590 N 0 0 0
0:00:00.00 544896 N 0 0 0
0:00:00.00 545182 N 0 0 0
0:00:00.00 545456 N 0 0 0
0:00:00.00 545742 N 0 0 0
0:00:00.00 546023 N 0 0 0
0:00:00.00 546307 N 0 0 0
0:00:00.00 546600 N 0 0 0
0:00:00.00 546730 N 0 0 0
0:00:00.00 547200 N 0 0 0
0:00:00.00 547483 N 0 0 0
0:00:00.00 547758 N 0 0 0
0:00:00.00 548032 N 0 0 0
0:00:00.00 548335 N 0 0 0
0:00:00.00 548633 N 0 0 0
0:00:00.00 548926 N 0 0 0
0:00:00.00 549218 N 0 0 0
0:00:00.00 549502 N 0 0 0
0:00:00.00 549785 N 0 0 0
0:00:00.00 550070 N 0 0 0
0:00:00.00 550349 N 0 0 0
0:00:00.00 550641 N 0 0 0
0:00:00.00 550953 N 0 0 0
0:00:00.00 551254 N 0 0 0
0:00:00.00 551533 N 0 0 0
0:00:00.00 551816 N 0 0 0
0:00:00.00 552097 N 0 0 0
0:00:00.00 552386 N 0 0 0
0:00:00.00 552680 N 0 0 0
0:00:00.00 552975 N 0 0 0
0:00:00.00 553283 N 0 0 0
0:00:00.00 553589 N 0 0 0
0:00:00.00 553877 N 0 0 0
0:00:00.00 554155 N 0 0 0
0:00:00.00 554439 N 0 0 0
0:00:00.00 554724 N 0 0 0
0:00:00.00 555027 N 0 0 0
0:00:00.00 555324 N 0 0 0
0:00:00.00 555614 N 0 0 0
0:00:00.00 555915 N 0 0 0
0:00:00.00 556204 N 0 0 0
0:00:00.00 556486 N 0 0 0
0:00:00.00 556766 N 0 0 0
0:00:00.00 557056 N 0 0 0
0:00:00.00 557361 N 0 0 0
0:00:00.00 557668 N 0 0 0
0:00:00.00 557962 N 0 0 0
0:00:00.00 558239 N 0 0 0
0:00:00.00 558528 N 0 0 0
0:00:00.00 558813 N 0 0 0
0:00:00.00 559103 N 0 0 0
0:00:00.00 559396 N 0 0 0
0:00:00.00 559696 N 0 0 0
0:00:00.00 559998 N 0 0 0
0:00:00.00 560296 N 0 0 0
0:00:00.00 560577 N 0 0 0
0:00:00.00 560847 N 0 0 0
0:00:00.00 561142 N 0 0 0
0:00:00.00 561436 N 0 0 0
0:00:00.00 561733 N 0 0 0
0:00:00.00 562020 N 0 0 0
0:00:00.00 562309 N 0 0 0
0:00:00.00 562592 N 0 0 0
0:00:00.00 562813 N 0 0 0
0:00:00.00 563142 N 0 0 0
0:00:00.00 563424 N 0 0 0
0:00:00.00 563732 N 0 0 0
0:00:00.00 564031 N 0 0 0
0:00:00.00 564320 N 0 0 0
0:00:00.00 564602 N 0 0 0
0:00:00.00 564883 N 0 0 0
0:00:00.00 565164 N 0 0 0
0:00:00.00 565453 N 0 0 0
0:00:00.00 565741 N 0 0 0
0:00:00.00 566041 N 0 0 0
0:00:00.00 566260 N 0 0 0
0:00:00.00 566616 N 0 0 0
0:00:00.00 566899 N 0 0 0
0:00:00.00 567185 N 0 0 0
0:00:00.00 567380 N 0 0 0
0:00:00.00 567721 N 0 0 0
0:00:00.00 568027 N 0 0 0
0:00:00.00 568327 N 0 0 0
0:00:00.00 568625 N 0 0 0
0:00:00.00 568920 N 0 0 0
0:00:00.00 569205 N 0 0 0
0:00:00.00 569482 N 0 0 0
0:00:00.00 569763 N 0 0 0
0:00:00.00 570059 N 0 0 0
0:00:00.00 570366 N 0 0 0
0:00:00.00 570668 N 0 0 0
0:00:00.00 570958 N 0 0 0
0:00:00.00 571246 N 0 0 0
0:00:00.00 571539 N 0 0 0
0:00:00.00 571831 N 0 0 0
0:00:00.00 572123 N 0 0 0
0:00:00.00 572428 N 0 0 0
0:00:00.00 572731 N 0 0 0
0:00:00.00 573040 N 0 0 0
0:00:00.00 573328 N 0 0 0
0:00:00.00 573608 N 0 0 0
0:00:00.00 573894 N 0 0 0
0:00:00.00 574193 N 0 0 0
0:00:00.00 574430 N 0 0 0
0:00:00.00 574786 N 0 0 0
0:00:00.00 575096 N 0 0 0
0:00:00.00 575387 N 0 0 0
0:00:00.00 575678 N 0 0 0
0:00:00.00 575959 N 0 0 0
0:00:00.00 576249 N 0 0 0
0:00:00.00 576551 N 0 0 0
0:00:00.00 576863 N 0 0 0
0:00:00.00 577163 N 0 0 0
0:00:00.00 577456 N 0 0 0
0:00:00.00 577741 N 0 0 0
0:00:00.00 578025 N 0 0 0
0:00:00.00 578311 N 0 0 0
0:00:00.00 578601 N 0 0 0
0:00:00.00 578901 N 0 0 0
0:00:00.00 579205 N 0 0 0
0:00:00.00 579448 N 0 0 0
0:00:00.00 579791 N 0 0 0
0:00:00.00 580075 N 0 0 0
0:00:00.00 580357 N 0 0 0
0:00:00.00 580648 N 0 0 0
0:00:00.00 580948 N 0 0 0
0:00:00.00 581246 N 0 0 0
0:00:00.00 581543 N 0 0 0
0:00:00.00 581835 N 0 0 0
0:00:00.00 582120 N 0 0 0
0:00:00.00 582395 N 0 0 0
0:00:00.00 582669 N 0 0 0
0:00:00.00 582920 N 0 0 0
0:00:00.00 583239 N 0 0 0
0:00:00.00 583539 N 0 0 0
0:00:00.00 583822 N 0 0 0
0:00:00.00 584098 N 0 0 0
0:00:00.00 584364 N 0 0 0
0:00:00.00 584635 N 0 0 0
0:00:00.00 584903 N 0 0 0
0:00:00.00 585175 N 0 0 0
0:00:00.00 585455 N 0 0 0
0:00:00.00 585731 N 0 0 0
0:00:00.00 586012 N 0 0 0
0:00:00.00 586276 N 0 0 0
0:00:00.00 586525 N 0 0 0
0:00:00.00 586771 N 0 0 0
0:00:00.00 587031 N 0 0 0
0:00:00.00 587300 N 0 0 0
0:00:00.00 587572 N 0 0 0
0:00:00.00 587843 N 0 0 0
0:00:00.00 588113 N 0 0 0
0:00:00.00 588377 N 0 0 0
0:00:00.00 588643 N 0 0 0
0:00:00.00 588906 N 0 0 0
0:00:00.00 589177 N 0 0 0
0:00:00.00 589454 N 0 0 0
0:00:00.00 589747 N 0 0 0
0:00:00.00 590041 N 0 0 0
0:00:00.00 590317 N 0 0 0
0:00:00.00 590588 N 0 0 0
0:00:00.00 590864 N 0 0 0
0:00:00.00 591144 N 0 0 0
0:00:00.00 591418 N 0 0 0
0:00:00.00 591707 N 0 0 0
0:00:00.00 592000 N 0 0 0
0:00:00.00 592288 N 0 0 0
0:00:00.00 592572 N 0 0 0
0:00:00.00 592854 N 0 0 0
0:00:00.00 593068 N 0 0 0
0:00:00.00 593387 N 0 0 0
0:00:00.00 593684 N 0 0 0
0:00:00.00 593991 N 0 0 0
0:00:00.00 594281 N 0 0 0
0:00:00.00 594563 N 0 0 0
0:00:00.00 594855 N 0 0 0
0:00:00.00 595127 N 0 0 0
0:00:00.00 595402 N 0 0 0
0:00:00.00 595690 N 0 0 0
0:00:00.00 595993 N 0 0 0
0:00:00.00 596278 N 0 0 0
0:00:00.00 596584 N 0 0 0
0:00:00.00 596880 N 0 0 0
0:00:00.00 597137 N 0 0 0
0:00:00.00 597402 N 0 0 0
0:00:00.00 597670 N 0 0 0
0:00:00.00 597925 N 0 0 0
0:00:00.00 598186 N 0 0 0
0:00:00.00 598459 N 0 0 0
0:00:00.00 598713 N 0 0 0
0:00:00.00 598969 N 0 0 0
0:00:00.00 599222 N 0 0 0
0:00:00.00 599469 N 0 0 0
0:00:00.00 599704 N 0 0 0
0:00:00.00 599953 N 0 0 0
0:00:00.00 600215 N 0 0 0
0:00:00.00 600484 N 0 0 0
0:00:00.00 600739 N 0 0 0
0:00:00.00 601011 N 0 0 0
0:00:00.00 601273 N 0 0 0
0:00:00.00 601538 N 0 0 0
0:00:00.00 601800 N 0 0 0
0:00:00.00 602064 N 0 0 0
0:00:00.00 602330 N 0 0 0
0:00:00.00 602611 N 0 0 0
0:00:00.00 602894 N 0 0 0
0:00:00.00 603179 N 0 0 0
0:00:00.00 603455 N 0 0 0
0:00:00.00 603723 N 0 0 0
0:00:00.00 603989 N 0 0 0
0:00:00.00 604277 N 0 0 0
0:00:00.00 604564 N 0 0 0
0:00:00.00 604845 N 0 0 0
0:00:00.00 605149 N 0 0 0
0:00:00.00 605460 N 0 0 0
0:00:00.00 605737 N 0 0 0
0:00:00.00 606008 N 0 0 0
0:00:00.00 606294 N 0 0 0
0:00:00.00 606588 N 0 0 0
0:00:00.00 606881 N 0 0 0
0:00:00.00 607179 N 0 0 0
0:00:00.00 607475 N 0 0 0
0:00:00.00 607767 N 0 0 0
0:00:00.00 608044 N 0 0 0
0:00:00.00 608309 N 0 0 0
0:00:00.00 608576 N 0 0 0
0:00:00.00 608854 N 0 0 0
0:00:00.00 609137 N 0 0 0
0:00:00.00 609426 N 0 0 0
0:00:00.00 609716 N 0 0 0
0:00:00.00 609988 N 0 0 0
0:00:00.00 610262 N 0 0 0
0:00:00.00 610545 N 0 0 0
0:00:00.00 610824 N 0 0 0
0:00:00.00 611109 N 0 0 0
0:00:00.00 611400 N 0 0 0
0:00:00.00 611696 N 0 0 0
0:00:00.00 611987 N 0 0 0
0:00:00.00 612264 N 0 0 0
0:00:00.00 612540 N 0 0 0
0:00:00.00 612820 N 0 0 0
0:00:00.00 613108 N 0 0 0
0:00:00.00 613400 N 0 0 0
0:00:00.00 613694 N 0 0 0
0:00:00.00 613984 N 0 0 0
0:00:00.00 614260 N 0 0 0
0:00:00.00 614540 N 0 0 0
0:00:00.00 614817 N 0 0 0
0:00:00.00 615090 N 0 0 0
0:00:00.00 615371 N 0 0 0
0:00:00.00 615677 N 0 0 0
0:00:00.00 615969 N 0 0 0
0:00:00.00 616250 N 0 0 0
0:00:00.00 616527 N 0 0 0
0:00:00.00 616803 N 0 0 0
0:00:00.00 617086 N 0 0 0
0:00:00.00 617367 N 0 0 0
0:00:00.00 617656 N 0 0 0
0:00:00.00 617950 N 0 0 0
0:00:00.00 618248 N 0 0 0
0:00:00.00 618529 N 0 0 0
0:00:00.00 618805 N 0 0 0
0:00:00.00 619082 N 0 0 0
0:00:00.00 619363 N 0 0 0
0:00:00.00 619654 N 0 0 0
0:00:00.00 619952 N 0 0 0
0:00:00.00 620250 N 0 0 0
0:00:00.00 620541 N 0 0 0
0:00:00.00 620826 N 0 0 0
0:00:00.00 621103 N 0 0 0
0:00:00.00 621379 N 0 0 0
0:00:00.00 621661 N 0 0 0
0:00:00.00 621944 N 0 0 0
0:00:00.00 622247 N 0 0 0
0:00:00.00 622542 N 0 0 0
0:00:00.00 622824 N 0 0 0
0:00:00.00 623089 N 0 0 0
0:00:00.00 623368 N 0 0 0
0:00:00.00 623639 N 0 0 0
0:00:00.00 623918 N 0 0 0
0:00:00.00 624191 N 0 0 0
0:00:00.00 624482 N 0 0 0
0:00:00.00 624766 N 0 0 0
0:00:00.00 625049 N 0 0 0
0:00:00.00 625310 N 0 0 0
0:00:00.00 625579 N 0 0 0
0:00:00.00 625854 N 0 0 0
0:00:00.00 626139 N 0 0 0
0:00:00.00 626428 N 0 0 0
0:00:00.00 626716 N 0 0 0
0:00:00.00 627000 N 0 0 0
0:00:00.00 627281 N 0 0 0
0:00:00.00 627555 N 0 0 0
0:00:00.00 627827 N 0 0 0
0:00:00.00 628103 N 0 0 0
0:00:00.00 628392 N 0 0 0
0:00:00.00 628689 N 0 0 0
0:00:00.00 628981 N 0 0 0
0:00:00.00 629171 N 0 0 0
0:00:00.00 629496 N 0 0 0
0:00:00.00 629761 N 0 0 0
0:00:00.00 630028 N 0 0 0
0:00:00.00 630290 N 0 0 0
0:00:00.00 630562 N 0 0 0
0:00:00.00 630838 N 0 0 0
0:00:00.00 631110 N 0 0 0
0:00:00.00 631378 N 0 0 0
0:00:00.00 631636 N 0 0 0
0:00:00.00 631899 N 0 0 0
0:00:00.00 632157 N 0 0 0
0:00:00.00 632415 N 0 0 0
0:00:00.00 632688 N 0 0 0
0:00:00.00 632959 N 0 0 0
0:00:00.00 633229 N 0 0 0
0:00:00.00 633499 N 0 0 0
0:00:00.00 633768 N 0 0 0
0:00:00.00 634028 N 0 0 0
0:00:00.00 634284 N 0 0 0
0:00:00.00 634546 N 0 0 0
0:00:00.00 634827 N 0 0 0
0:00:00.00 635108 N 0 0 0
0:00:00.00 635395 N 0 0 0
0:00:00.00 635685 N 0 0 0
0:00:00.00 635967 N 0 0 0
0:00:00.00 636239 N 0 0 0
0:00:00.00 636521 N 0 0 0
0:00:00.00 636812 N 0 0 0
0:00:00.00 637106 N 0 0 0
0:00:00.00 637400 N 0 0 0
0:00:00.00 637704 N 0 0 0
0:00:00.00 637998 N 0 0 0
0:00:00.00 638283 N 0 0 0
0:00:00.00 638561 N 0 0 0
0:00:00.00 638847 N 0 0 0
0:00:00.00 639141 N 0 0 0
0:00:00.00 639447 N 0 0 0
0:00:00.00 639745 N 0 0 0
0:00:00.00 640040 N 0 0 0
0:00:00.00 640330 N 0 0 0
0:00:00.00 640616 N 0 0 0
0:00:00.00 640901 N 0 0 0
0:00:00.00 641178 N 0 0 0
0:00:00.00 641480 N 0 0 0
0:00:00.00 641777 N 0 0 0
0:00:00.00 642066 N 0 0 0
0:00:00.00 642337 N 0 0 0
0:00:00.00 642614 N 0 0 0
0:00:00.00 642888 N 0 0 0
0:00:00.00 643165 N 0 0 0
0:00:00.00 643439 N 0 0 0
0:00:00.00 643722 N 0 0 0
0:00:00.00 644006 N 0 0 0
0:00:00.00 644287 N 0 0 0
0:00:00.00 644548 N 0 0 0
0:00:00.00 644808 N 0 0 0
0:00:00.00 645063 N 0 0 0
0:00:00.00 645321 N 0 0 0
0:00:00.00 645582 N 0 0 0
0:00:00.00 645864 N 0 0 0
0:00:00.00 646133 N 0 0 0
0:00:00.00 646394 N 0 0 0
0:00:00.00 646659 N 0 0 0
0:00:00.00 646917 N 0 0 0
0:00:00.00 647168 N 0 0 0
0:00:00.00 647415 N 0 0 0
0:00:00.00 647672 N 0 0 0
0:00:00.00 647935 N 0 0 0
0:00:00.00 648204 N 0 0 0
0:00:00.00 648478 N 0 0 0
0:00:00.00 648733 N 0 0 0
0:00:00.00 648978 N 0 0 0
0:00:00.00 649232 N 0 0 0
0:00:00.00 649485 N 0 0 0
0:00:00.00 649734 N 0 0 0
0:00:00.00 649991 N 0 0 0
