0:00:00.00 11 N 0 0 0
0:00:00.00 83 N 0 0 0
0:00:00.00 398 N 0 0 0
0:00:00.00 713 N 0 0 0
0:00:00.00 1033 N 0 0 0
0:00:00.00 1370 N 0 0 0
0:00:00.00 1714 N 0 0 0
0:00:00.00 2036 N 0 0 0
0:00:00.00 2349 N 0 0 0
0:00:00.00 2664 N 0 0 0
0:00:00.00 2972 N 0 0 0
0:00:00.00 3303 N 0 0 0
0:00:00.00 3632 N 0 0 0
0:00:00.00 3962 N 0 0 0
0:00:00.00 4284 N 0 0 0
0:00:00.00 4612 N 0 0 0
0:00:00.00 4930 N 0 0 0
0:00:00.00 5242 N 0 0 0
0:00:00.00 5569 N 0 0 0
0:00:00.00 5899 N 0 0 0
0:00:00.00 6224 N 0 0 0
0:00:00.00 6530 N 0 0 0
0:00:00.00 6831 N 0 0 0
0:00:00.00 7144 N 0 0 0
0:00:00.00 7465 N 0 0 0
0:00:00.00 7787 N 0 0 0
0:00:00.00 8105 N 0 0 0
0:00:00.00 8415 N 0 0 0
0:00:00.00 8723 N 0 0 0
0:00:00.00 9027 N 0 0 0
0:00:00.00 9322 N 0 0 0
0:00:00.00 9630 N 0 0 0
0:00:00.00 9954 N 0 0 0
0:00:00.00 10283 N 0 0 0
0:00:00.00 10591 N 0 0 0
0:00:00.00 10894 N 0 0 0
0:00:00.00 11187 N 0 0 0
0:00:00.00 11470 N 0 0 0
0:00:00.00 11761 N 0 0 0
0:00:00.00 12051 N 0 0 0
0:00:00.00 12339 N 0 0 0
0:00:00.00 12623 N 0 0 0
0:00:00.00 12913 N 0 0 0
0:00:00.00 13183 N 0 0 0
0:00:00.00 13459 N 0 0 0
0:00:00.00 13741 N 0 0 0
0:00:00.00 14031 N 0 0 0
0:00:00.00 14335 N 0 0 0
0:00:00.00 14641 N 0 0 0
0:00:00.00 14924 N 0 0 0
0:00:00.00 15197 N 0 0 0
0:00:00.00 15475 N 0 0 0
0:00:00.00 15761 N 0 0 0
0:00:00.00 16052 N 0 0 0
0:00:00.00 16353 N 0 0 0
0:00:00.00 16657 N 0 0 0
0:00:00.00 16958 N 0 0 0
0:00:00.00 17251 N 0 0 0
0:00:00.00 17532 N 0 0 0
0:00:00.00 17815 N 0 0 0
0:00:00.00 18099 N 0 0 0
0:00:00.00 18398 N 0 0 0
0:00:00.00 18689 N 0 0 0
0:00:00.00 18977 N 0 0 0
0:00:00.00 19267 N 0 0 0
0:00:00.00 19561 N 0 0 0
0:00:00.00 19861 N 0 0 0
0:00:00.00 20174 N 0 0 0
0:00:00.00 20495 N 0 0 0
0:00:00.00 20824 N 0 0 0
0:00:00.00 21168 N 0 0 0
0:00:00.00 21499 N 0 0 0
0:00:00.00 21811 N 0 0 0
0:00:00.00 22131 N 0 0 0
0:00:00.00 22451 N 0 0 0
0:00:00.00 22783 N 0 0 0
0:00:00.00 23126 N 0 0 0
0:00:00.00 23458 N 0 0 0
0:00:00.00 23774 N 0 0 0
0:00:00.00 24091 N 0 0 0
0:00:00.00 24404 N 0 0 0
0:00:00.00 24721 N 0 0 0
0:00:00.00 25042 N 0 0 0
0:00:00.00 25375 N 0 0 0
0:00:00.00 25704 N 0 0 0
0:00:00.00 26010 N 0 0 0
0:00:00.00 26311 N 0 0 0
0:00:00.00 26638 N 0 0 0
0:00:00.00 26969 N 0 0 0
0:00:00.00 27304 N 0 0 0
0:00:00.00 27623 N 0 0 0
0:00:00.00 27936 N 0 0 0
0:00:00.00 28244 N 0 0 0
0:00:00.00 28559 N 0 0 0
0:00:00.00 28863 N 0 0 0
0:00:00.00 29156 N 0 0 0
0:00:00.00 29470 N 0 0 0
0:00:00.00 29783 N 0 0 0
0:00:00.00 30091 N 0 0 0
0:00:00.00 30388 N 0 0 0
0:00:00.00 30690 N 0 0 0
0:00:00.00 30987 N 0 0 0
0:00:00.00 31311 N 0 0 0
0:00:00.00 31637 N 0 0 0
0:00:00.00 31948 N 0 0 0
0:00:00.00 32263 N 0 0 0
0:00:00.00 32567 N 0 0 0
0:00:00.00 32868 N 0 0 0
0:00:00.00 33165 N 0 0 0
0:00:00.00 33467 N 0 0 0
0:00:00.00 33781 N 0 0 0
0:00:00.00 34094 N 0 0 0
0:00:00.00 34394 N 0 0 0
0:00:00.00 34682 N 0 0 0
0:00:00.00 34983 N 0 0 0
0:00:00.00 35291 N 0 0 0
0:00:00.00 35600 N 0 0 0
0:00:00.00 35914 N 0 0 0
0:00:00.00 36218 N 0 0 0
0:00:00.00 36531 N 0 0 0
0:00:00.00 36839 N 0 0 0
0:00:00.00 37141 N 0 0 0
0:00:00.00 37451 N 0 0 0
0:00:00.00 37775 N 0 0 0
0:00:00.00 38101 N 0 0 0
0:00:00.00 38430 N 0 0 0
0:00:00.00 38749 N 0 0 0
0:00:00.00 39060 N 0 0 0
0:00:00.00 39377 N 0 0 0
0:00:00.00 39692 N 0 0 0
0:00:00.00 40016 N 0 0 0
0:00:00.00 40340 N 0 0 0
0:00:00.00 40669 N 0 0 0
0:00:00.00 40880 N 0 0 0
0:00:00.00 40954 N 0 0 0
0:00:00.00 41265 N 0 0 0
0:00:00.00 41544 N 0 0 0
0:00:00.00 41832 N 0 0 0
0:00:00.00 42127 N 0 0 0
0:00:00.00 42421 N 0 0 0
0:00:00.00 42716 N 0 0 0
0:00:00.00 42991 N 0 0 0
0:00:00.00 43268 N 0 0 0
0:00:00.00 43547 N 0 0 0
0:00:00.00 43817 N 0 0 0
0:00:00.00 44096 N 0 0 0
0:00:00.00 44390 N 0 0 0
0:00:00.00 44676 N 0 0 0
0:00:00.00 44978 N 0 0 0
0:00:00.00 45270 N 0 0 0
0:00:00.00 45554 N 0 0 0
0:00:00.00 45841 N 0 0 0
0:00:00.00 46138 N 0 0 0
0:00:00.00 46442 N 0 0 0
0:00:00.00 46751 N 0 0 0
0:00:00.00 47061 N 0 0 0
0:00:00.00 47362 N 0 0 0
0:00:00.00 47657 N 0 0 0
0:00:00.00 47945 N 0 0 0
0:00:00.00 48231 N 0 0 0
0:00:00.00 48517 N 0 0 0
0:00:00.00 48821 N 0 0 0
0:00:00.00 49126 N 0 0 0
0:00:00.00 49423 N 0 0 0
0:00:00.00 49700 N 0 0 0
0:00:00.00 49979 N 0 0 0
0:00:00.00 50249 N 0 0 0
0:00:00.00 50528 N 0 0 0
0:00:00.00 50816 N 0 0 0
0:00:00.00 51116 N 0 0 0
0:00:00.00 51401 N 0 0 0
0:00:00.00 51689 N 0 0 0
0:00:00.00 51968 N 0 0 0
0:00:00.00 52240 N 0 0 0
0:00:00.00 52511 N 0 0 0
0:00:00.00 52794 N 0 0 0
0:00:00.00 53087 N 0 0 0
0:00:00.00 53381 N 0 0 0
0:00:00.00 53669 N 0 0 0
0:00:00.00 53948 N 0 0 0
0:00:00.00 54221 N 0 0 0
0:00:00.00 54518 N 0 0 0
0:00:00.00 54815 N 0 0 0
0:00:00.00 55109 N 0 0 0
0:00:00.00 55408 N 0 0 0
0:00:00.00 55712 N 0 0 0
0:00:00.00 56012 N 0 0 0
0:00:00.00 56308 N 0 0 0
0:00:00.00 56608 N 0 0 0
0:00:00.00 56920 N 0 0 0
0:00:00.00 57254 N 0 0 0
0:00:00.00 57593 N 0 0 0
0:00:00.00 57929 N 0 0 0
0:00:00.00 58246 N 0 0 0
0:00:00.00 58543 N 0 0 0
0:00:00.00 58847 N 0 0 0
0:00:00.00 59168 N 0 0 0
0:00:00.00 59490 N 0 0 0
0:00:00.00 59823 N 0 0 0
0:00:00.00 60158 N 0 0 0
0:00:00.00 60478 N 0 0 0
0:00:00.00 60786 N 0 0 0
0:00:00.00 61090 N 0 0 0
0:00:00.00 61396 N 0 0 0
0:00:00.00 61729 N 0 0 0
0:00:00.00 62059 N 0 0 0
0:00:00.00 62361 N 0 0 0
0:00:00.00 62672 N 0 0 0
0:00:00.00 62996 N 0 0 0
0:00:00.00 63097 N 0 0 0
0:00:00.00 63414 N 0 0 0
0:00:00.00 63634 N 0 0 0
0:00:00.00 63968 N 0 0 0
0:00:00.00 64292 N 0 0 0
0:00:00.00 64629 N 0 0 0
0:00:00.00 64931 N 0 0 0
0:00:00.00 65246 N 0 0 0
0:00:00.00 65578 N 0 0 0
0:00:00.00 65907 N 0 0 0
0:00:00.00 66226 N 0 0 0
0:00:00.00 66566 N 0 0 0
0:00:00.00 66890 N 0 0 0
0:00:00.00 67201 N 0 0 0
0:00:00.00 67511 N 0 0 0
0:00:00.00 67833 N 0 0 0
0:00:00.00 68166 N 0 0 0
0:00:00.00 68506 N 0 0 0
0:00:00.00 68832 N 0 0 0
0:00:00.00 69138 N 0 0 0
0:00:00.00 69448 N 0 0 0
0:00:00.00 69759 N 0 0 0
0:00:00.00 70083 N 0 0 0
0:00:00.00 70420 N 0 0 0
0:00:00.00 70753 N 0 0 0
0:00:00.00 71089 N 0 0 0
0:00:00.00 71402 N 0 0 0
0:00:00.00 71712 N 0 0 0
0:00:00.00 72022 N 0 0 0
0:00:00.00 72351 N 0 0 0
0:00:00.00 72680 N 0 0 0
0:00:00.00 73004 N 0 0 0
0:00:00.00 73309 N 0 0 0
0:00:00.00 73602 N 0 0 0
0:00:00.00 73913 N 0 0 0
0:00:00.00 74230 N 0 0 0
0:00:00.00 74558 N 0 0 0
0:00:00.00 74898 N 0 0 0
0:00:00.00 75215 N 0 0 0
0:00:00.00 75539 N 0 0 0
0:00:00.00 75856 N 0 0 0
0:00:00.00 76169 N 0 0 0
0:00:00.00 76495 N 0 0 0
0:00:00.00 76833 N 0 0 0
0:00:00.00 77162 N 0 0 0
0:00:00.00 77499 N 0 0 0
0:00:00.00 77828 N 0 0 0
0:00:00.00 78149 N 0 0 0
0:00:00.00 78475 N 0 0 0
0:00:00.00 78817 N 0 0 0
0:00:00.00 79160 N 0 0 0
0:00:00.00 79517 N 0 0 0
0:00:00.00 79855 N 0 0 0
0:00:00.00 80163 N 0 0 0
0:00:00.00 80465 N 0 0 0
0:00:00.00 80775 N 0 0 0
0:00:00.00 81110 N 0 0 0
0:00:00.00 81454 N 0 0 0
0:00:00.00 81792 N 0 0 0
0:00:00.00 82114 N 0 0 0
0:00:00.00 82445 N 0 0 0
0:00:00.00 82775 N 0 0 0
0:00:00.00 83108 N 0 0 0
0:00:00.00 83435 N 0 0 0
0:00:00.00 83777 N 0 0 0
0:00:00.00 84119 N 0 0 0
0:00:00.00 84429 N 0 0 0
0:00:00.00 84735 N 0 0 0
0:00:00.00 85073 N 0 0 0
0:00:00.00 85419 N 0 0 0
0:00:00.00 85754 N 0 0 0
0:00:00.00 86071 N 0 0 0
0:00:00.00 86373 N 0 0 0
0:00:00.00 86684 N 0 0 0
0:00:00.00 86994 N 0 0 0
0:00:00.00 87307 N 0 0 0
0:00:00.00 87656 N 0 0 0
0:00:00.00 88002 N 0 0 0
0:00:00.00 88340 N 0 0 0
0:00:00.00 88670 N 0 0 0
0:00:00.00 88999 N 0 0 0
0:00:00.00 89347 N 0 0 0
0:00:00.00 89701 N 0 0 0
0:00:00.00 90061 N 0 0 0
0:00:00.00 90401 N 0 0 0
0:00:00.00 90738 N 0 0 0
0:00:00.00 91071 N 0 0 0
0:00:00.00 91399 N 0 0 0
0:00:00.00 91744 N 0 0 0
0:00:00.00 92095 N 0 0 0
0:00:00.00 92450 N 0 0 0
0:00:00.00 92794 N 0 0 0
0:00:00.00 93132 N 0 0 0
0:00:00.00 93472 N 0 0 0
0:00:00.00 93820 N 0 0 0
0:00:00.00 94158 N 0 0 0
0:00:00.00 94518 N 0 0 0
0:00:00.00 94871 N 0 0 0
0:00:00.00 95200 N 0 0 0
0:00:00.00 95530 N 0 0 0
0:00:00.00 95864 N 0 0 0
0:00:00.00 96228 N 0 0 0
0:00:00.00 96592 N 0 0 0
0:00:00.00 96943 N 0 0 0
0:00:00.00 97286 N 0 0 0
0:00:00.00 97614 N 0 0 0
0:00:00.00 97951 N 0 0 0
0:00:00.00 98293 N 0 0 0
0:00:00.00 98649 N 0 0 0
0:00:00.00 99013 N 0 0 0
0:00:00.00 99360 N 0 0 0
0:00:00.00 99693 N 0 0 0
0:00:00.00 100017 N 0 0 0
0:00:00.00 100363 N 0 0 0
0:00:00.00 100724 N 0 0 0
0:00:00.00 101088 N 0 0 0
0:00:00.00 101428 N 0 0 0
0:00:00.00 101772 N 0 0 0
0:00:00.00 102114 N 0 0 0
0:00:00.00 102458 N 0 0 0
0:00:00.00 102827 N 0 0 0
0:00:00.00 103199 N 0 0 0
0:00:00.00 103558 N 0 0 0
0:00:00.00 103882 N 0 0 0
0:00:00.00 104211 N 0 0 0
0:00:00.00 104549 N 0 0 0
0:00:00.00 104884 N 0 0 0
0:00:00.00 105199 N 0 0 0
0:00:00.00 105534 N 0 0 0
0:00:00.00 105853 N 0 0 0
0:00:00.00 106184 N 0 0 0
0:00:00.00 106506 N 0 0 0
0:00:00.00 106844 N 0 0 0
0:00:00.00 107210 N 0 0 0
0:00:00.00 107570 N 0 0 0
0:00:00.00 107919 N 0 0 0
0:00:00.00 108254 N 0 0 0
0:00:00.00 108576 N 0 0 0
0:00:00.00 108920 N 0 0 0
0:00:00.00 109276 N 0 0 0
0:00:00.00 109636 N 0 0 0
0:00:00.00 110000 N 0 0 0
0:00:00.00 110347 N 0 0 0
0:00:00.00 110693 N 0 0 0
0:00:00.00 111049 N 0 0 0
0:00:00.00 111411 N 0 0 0
0:00:00.00 111793 N 0 0 0
0:00:00.00 112167 N 0 0 0
0:00:00.00 112523 N 0 0 0
0:00:00.00 112882 N 0 0 0
0:00:00.00 113247 N 0 0 0
0:00:00.00 113616 N 0 0 0
0:00:00.00 113985 N 0 0 0
0:00:00.00 114354 N 0 0 0
0:00:00.00 114669 N 0 0 0
0:00:00.00 114743 N 0 0 0
0:00:00.00 115061 N 0 0 0
0:00:00.00 115160 N 0 0 0
0:00:00.00 115290 N 0 0 0
0:00:00.00 115742 N 0 0 0
0:00:00.00 116091 N 0 0 0
0:00:00.00 116437 N 0 0 0
0:00:00.00 116771 N 0 0 0
0:00:00.00 117076 N 0 0 0
0:00:00.00 117434 N 0 0 0
0:00:00.00 117781 N 0 0 0
0:00:00.00 118145 N 0 0 0
0:00:00.00 118514 N 0 0 0
0:00:00.00 118854 N 0 0 0
0:00:00.00 119178 N 0 0 0
0:00:00.00 119515 N 0 0 0
0:00:00.00 119848 N 0 0 0
0:00:00.00 120172 N 0 0 0
0:00:00.00 120505 N 0 0 0
0:00:00.00 120825 N 0 0 0
0:00:00.00 121149 N 0 0 0
0:00:00.00 121460 N 0 0 0
0:00:00.00 121761 N 0 0 0
0:00:00.00 122094 N 0 0 0
0:00:00.00 122447 N 0 0 0
0:00:00.00 122803 N 0 0 0
0:00:00.00 123147 N 0 0 0
0:00:00.00 123476 N 0 0 0
0:00:00.00 123826 N 0 0 0
0:00:00.00 124180 N 0 0 0
0:00:00.00 124537 N 0 0 0
0:00:00.00 124895 N 0 0 0
0:00:00.00 125235 N 0 0 0
0:00:00.00 125564 N 0 0 0
0:00:00.00 125890 N 0 0 0
0:00:00.00 126229 N 0 0 0
0:00:00.00 126594 N 0 0 0
0:00:00.00 126954 N 0 0 0
0:00:00.00 127300 N 0 0 0
0:00:00.00 127638 N 0 0 0
0:00:00.00 127969 N 0 0 0
0:00:00.00 128291 N 0 0 0
0:00:00.00 128633 N 0 0 0
0:00:00.00 128986 N 0 0 0
0:00:00.00 129353 N 0 0 0
0:00:00.00 129695 N 0 0 0
0:00:00.00 130009 N 0 0 0
0:00:00.00 130334 N 0 0 0
0:00:00.00 130651 N 0 0 0
0:00:00.00 130990 N 0 0 0
0:00:00.00 131321 N 0 0 0
0:00:00.00 131648 N 0 0 0
0:00:00.00 131958 N 0 0 0
0:00:00.00 132268 N 0 0 0
0:00:00.00 132577 N 0 0 0
0:00:00.00 132912 N 0 0 0
0:00:00.00 133274 N 0 0 0
0:00:00.00 133650 N 0 0 0
0:00:00.00 134019 N 0 0 0
0:00:00.00 134366 N 0 0 0
0:00:00.00 134723 N 0 0 0
0:00:00.00 135106 N 0 0 0
0:00:00.00 135301 N 0 0 0
0:00:00.00 135725 N 0 0 0
0:00:00.00 136089 N 0 0 0
0:00:00.00 136436 N 0 0 0
0:00:00.00 136787 N 0 0 0
0:00:00.00 137138 N 0 0 0
0:00:00.00 137509 N 0 0 0
0:00:00.00 137887 N 0 0 0
0:00:00.00 138233 N 0 0 0
0:00:00.00 138582 N 0 0 0
0:00:00.00 138937 N 0 0 0
0:00:00.00 139311 N 0 0 0
0:00:00.00 139691 N 0 0 0
0:00:00.00 140063 N 0 0 0
0:00:00.00 140434 N 0 0 0
0:00:00.00 140776 N 0 0 0
0:00:00.00 141127 N 0 0 0
0:00:00.00 141496 N 0 0 0
0:00:00.00 141874 N 0 0 0
0:00:00.00 142252 N 0 0 0
0:00:00.00 142610 N 0 0 0
0:00:00.00 142949 N 0 0 0
0:00:00.00 143309 N 0 0 0
0:00:00.00 143681 N 0 0 0
0:00:00.00 144061 N 0 0 0
0:00:00.00 144441 N 0 0 0
0:00:00.00 144810 N 0 0 0
0:00:00.00 145157 N 0 0 0
0:00:00.00 145508 N 0 0 0
0:00:00.00 145879 N 0 0 0
0:00:00.00 146250 N 0 0 0
0:00:00.00 146605 N 0 0 0
0:00:00.00 146963 N 0 0 0
0:00:00.00 147316 N 0 0 0
0:00:00.00 147672 N 0 0 0
0:00:00.00 148054 N 0 0 0
0:00:00.00 148435 N 0 0 0
0:00:00.00 148813 N 0 0 0
0:00:00.00 149166 N 0 0 0
0:00:00.00 149522 N 0 0 0
0:00:00.00 149882 N 0 0 0
0:00:00.00 150260 N 0 0 0
0:00:00.00 150649 N 0 0 0
0:00:00.00 151015 N 0 0 0
0:00:00.00 151367 N 0 0 0
0:00:00.00 151731 N 0 0 0
0:00:00.00 152093 N 0 0 0
0:00:00.00 152471 N 0 0 0
0:00:00.00 152863 N 0 0 0
0:00:00.00 153245 N 0 0 0
0:00:00.00 153599 N 0 0 0
0:00:00.00 153961 N 0 0 0
0:00:00.00 154346 N 0 0 0
0:00:00.00 154724 N 0 0 0
0:00:00.00 155102 N 0 0 0
0:00:00.00 155479 N 0 0 0
0:00:00.00 155839 N 0 0 0
0:00:00.00 156188 N 0 0 0
0:00:00.00 156557 N 0 0 0
0:00:00.00 156946 N 0 0 0
0:00:00.00 157325 N 0 0 0
0:00:00.00 157675 N 0 0 0
0:00:00.00 158029 N 0 0 0
0:00:00.00 158387 N 0 0 0
0:00:00.00 158756 N 0 0 0
0:00:00.00 159120 N 0 0 0
0:00:00.00 159491 N 0 0 0
0:00:00.00 159867 N 0 0 0
0:00:00.00 160218 N 0 0 0
0:00:00.00 160574 N 0 0 0
0:00:00.00 160952 N 0 0 0
0:00:00.00 161336 N 0 0 0
0:00:00.00 161717 N 0 0 0
0:00:00.00 162088 N 0 0 0
0:00:00.00 162457 N 0 0 0
0:00:00.00 162821 N 0 0 0
0:00:00.00 163206 N 0 0 0
0:00:00.00 163597 N 0 0 0
0:00:00.00 163973 N 0 0 0
0:00:00.00 164335 N 0 0 0
0:00:00.00 164693 N 0 0 0
0:00:00.00 165055 N 0 0 0
0:00:00.00 165442 N 0 0 0
0:00:00.00 165834 N 0 0 0
0:00:00.00 166205 N 0 0 0
0:00:00.00 166559 N 0 0 0
0:00:00.00 166921 N 0 0 0
0:00:00.00 167294 N 0 0 0
0:00:00.00 167656 N 0 0 0
0:00:00.00 168032 N 0 0 0
0:00:00.00 168390 N 0 0 0
0:00:00.00 168728 N 0 0 0
0:00:00.00 169054 N 0 0 0
0:00:00.00 169393 N 0 0 0
0:00:00.00 169765 N 0 0 0
0:00:00.00 170131 N 0 0 0
0:00:00.00 170483 N 0 0 0
0:00:00.00 170845 N 0 0 0
0:00:00.00 171193 N 0 0 0
0:00:00.00 171540 N 0 0 0
0:00:00.00 171904 N 0 0 0
0:00:00.00 172274 N 0 0 0
0:00:00.00 172647 N 0 0 0
0:00:00.00 172993 N 0 0 0
0:00:00.00 173329 N 0 0 0
0:00:00.00 173702 N 0 0 0
0:00:00.00 174089 N 0 0 0
0:00:00.00 174456 N 0 0 0
0:00:00.00 174834 N 0 0 0
0:00:00.00 175194 N 0 0 0
0:00:00.00 175547 N 0 0 0
0:00:00.00 175916 N 0 0 0
0:00:00.00 176287 N 0 0 0
0:00:00.00 176665 N 0 0 0
0:00:00.00 177034 N 0 0 0
0:00:00.00 177379 N 0 0 0
0:00:00.00 177698 N 0 0 0
0:00:00.00 178031 N 0 0 0
0:00:00.00 178391 N 0 0 0
0:00:00.00 178754 N 0 0 0
0:00:00.00 179131 N 0 0 0
0:00:00.00 179492 N 0 0 0
0:00:00.00 179838 N 0 0 0
0:00:00.00 180214 N 0 0 0
0:00:00.00 180599 N 0 0 0
0:00:00.00 180976 N 0 0 0
0:00:00.00 181345 N 0 0 0
0:00:00.00 181692 N 0 0 0
0:00:00.00 182045 N 0 0 0
0:00:00.00 182387 N 0 0 0
0:00:00.00 182734 N 0 0 0
0:00:00.00 183076 N 0 0 0
0:00:00.00 183427 N 0 0 0
0:00:00.00 183769 N 0 0 0
0:00:00.00 184106 N 0 0 0
0:00:00.00 184450 N 0 0 0
0:00:00.00 184808 N 0 0 0
0:00:00.00 185159 N 0 0 0
0:00:00.00 185495 N 0 0 0
0:00:00.00 185823 N 0 0 0
0:00:00.00 186154 N 0 0 0
0:00:00.00 186491 N 0 0 0
0:00:00.00 186847 N 0 0 0
0:00:00.00 187207 N 0 0 0
0:00:00.00 187571 N 0 0 0
0:00:00.00 187897 N 0 0 0
0:00:00.00 188210 N 0 0 0
0:00:00.00 188530 N 0 0 0
0:00:00.00 188861 N 0 0 0
0:00:00.00 189212 N 0 0 0
0:00:00.00 189563 N 0 0 0
0:00:00.00 189902 N 0 0 0
0:00:00.00 190237 N 0 0 0
0:00:00.00 190564 N 0 0 0
0:00:00.00 190883 N 0 0 0
0:00:00.00 191228 N 0 0 0
0:00:00.00 191581 N 0 0 0
0:00:00.00 191938 N 0 0 0
0:00:00.00 192263 N 0 0 0
0:00:00.00 192587 N 0 0 0
0:00:00.00 192919 N 0 0 0
0:00:00.00 193257 N 0 0 0
0:00:00.00 193606 N 0 0 0
0:00:00.00 193950 N 0 0 0
0:00:00.00 194287 N 0 0 0
0:00:00.00 194623 N 0 0 0
0:00:00.00 194954 N 0 0 0
0:00:00.00 195287 N 0 0 0
0:00:00.00 195638 N 0 0 0
0:00:00.00 196006 N 0 0 0
0:00:00.00 196366 N 0 0 0
0:00:00.00 196704 N 0 0 0
0:00:00.00 197046 N 0 0 0
0:00:00.00 197392 N 0 0 0
0:00:00.00 197735 N 0 0 0
0:00:00.00 198085 N 0 0 0
0:00:00.00 198434 N 0 0 0
0:00:00.00 198781 N 0 0 0
0:00:00.00 199118 N 0 0 0
0:00:00.00 199458 N 0 0 0
0:00:00.00 199813 N 0 0 0
0:00:00.00 200169 N 0 0 0
0:00:00.00 200525 N 0 0 0
0:00:00.00 200871 N 0 0 0
0:00:00.00 201215 N 0 0 0
0:00:00.00 201551 N 0 0 0
0:00:00.00 201897 N 0 0 0
0:00:00.00 202244 N 0 0 0
0:00:00.00 202599 N 0 0 0
0:00:00.00 202963 N 0 0 0
0:00:00.00 203310 N 0 0 0
0:00:00.00 203650 N 0 0 0
0:00:00.00 203999 N 0 0 0
0:00:00.00 204345 N 0 0 0
0:00:00.00 204691 N 0 0 0
0:00:00.00 205034 N 0 0 0
0:00:00.00 205366 N 0 0 0
0:00:00.00 205699 N 0 0 0
0:00:00.00 206050 N 0 0 0
0:00:00.00 206420 N 0 0 0
0:00:00.00 206788 N 0 0 0
0:00:00.00 207160 N 0 0 0
0:00:00.00 207522 N 0 0 0
0:00:00.00 207880 N 0 0 0
0:00:00.00 208237 N 0 0 0
0:00:00.00 208625 N 0 0 0
0:00:00.00 209016 N 0 0 0
0:00:00.00 209378 N 0 0 0
0:00:00.00 209747 N 0 0 0
0:00:00.00 210110 N 0 0 0
0:00:00.00 210474 N 0 0 0
0:00:00.00 210850 N 0 0 0
0:00:00.00 211241 N 0 0 0
0:00:00.00 211622 N 0 0 0
0:00:00.00 211977 N 0 0 0
0:00:00.00 212353 N 0 0 0
0:00:00.00 212728 N 0 0 0
0:00:00.00 213095 N 0 0 0
0:00:00.00 213462 N 0 0 0
0:00:00.00 213815 N 0 0 0
0:00:00.00 214153 N 0 0 0
0:00:00.00 214497 N 0 0 0
0:00:00.00 214850 N 0 0 0
0:00:00.00 215235 N 0 0 0
0:00:00.00 215568 N 0 0 0
0:00:00.00 215982 N 0 0 0
0:00:00.00 216338 N 0 0 0
0:00:00.00 216691 N 0 0 0
0:00:00.00 217039 N 0 0 0
0:00:00.00 217391 N 0 0 0
0:00:00.00 217721 N 0 0 0
0:00:00.00 218061 N 0 0 0
0:00:00.00 218392 N 0 0 0
0:00:00.00 218713 N 0 0 0
0:00:00.00 219067 N 0 0 0
0:00:00.00 219443 N 0 0 0
0:00:00.00 219820 N 0 0 0
0:00:00.00 220185 N 0 0 0
0:00:00.00 220550 N 0 0 0
0:00:00.00 220918 N 0 0 0
0:00:00.00 221281 N 0 0 0
0:00:00.00 221670 N 0 0 0
0:00:00.00 222039 N 0 0 0
0:00:00.00 222390 N 0 0 0
0:00:00.00 222730 N 0 0 0
0:00:00.00 223065 N 0 0 0
0:00:00.00 223420 N 0 0 0
0:00:00.00 223783 N 0 0 0
0:00:00.00 224138 N 0 0 0
0:00:00.00 224487 N 0 0 0
0:00:00.00 224827 N 0 0 0
0:00:00.00 225173 N 0 0 0
0:00:00.00 225517 N 0 0 0
0:00:00.00 225891 N 0 0 0
0:00:00.00 226267 N 0 0 0
0:00:00.00 226636 N 0 0 0
0:00:00.00 226998 N 0 0 0
0:00:00.00 227351 N 0 0 0
0:00:00.00 227705 N 0 0 0
0:00:00.00 228087 N 0 0 0
0:00:00.00 228469 N 0 0 0
0:00:00.00 228827 N 0 0 0
0:00:00.00 229192 N 0 0 0
0:00:00.00 229552 N 0 0 0
0:00:00.00 229901 N 0 0 0
0:00:00.00 230274 N 0 0 0
0:00:00.00 230663 N 0 0 0
0:00:00.00 231034 N 0 0 0
0:00:00.00 231376 N 0 0 0
0:00:00.00 231736 N 0 0 0
0:00:00.00 232105 N 0 0 0
0:00:00.00 232477 N 0 0 0
0:00:00.00 232853 N 0 0 0
0:00:00.00 233228 N 0 0 0
0:00:00.00 233595 N 0 0 0
0:00:00.00 233941 N 0 0 0
0:00:00.00 234311 N 0 0 0
0:00:00.00 234707 N 0 0 0
0:00:00.00 235085 N 0 0 0
0:00:00.00 235453 N 0 0 0
0:00:00.00 235814 N 0 0 0
0:00:00.00 236174 N 0 0 0
0:00:00.00 236545 N 0 0 0
0:00:00.00 236938 N 0 0 0
0:00:00.00 237326 N 0 0 0
0:00:00.00 237681 N 0 0 0
0:00:00.00 238028 N 0 0 0
0:00:00.00 238383 N 0 0 0
0:00:00.00 238734 N 0 0 0
0:00:00.00 239110 N 0 0 0
0:00:00.00 239483 N 0 0 0
0:00:00.00 239830 N 0 0 0
0:00:00.00 240178 N 0 0 0
0:00:00.00 240538 N 0 0 0
0:00:00.00 240907 N 0 0 0
0:00:00.00 241283 N 0 0 0
0:00:00.00 241664 N 0 0 0
0:00:00.00 242037 N 0 0 0
0:00:00.00 242386 N 0 0 0
0:00:00.00 242752 N 0 0 0
0:00:00.00 243140 N 0 0 0
0:00:00.00 243529 N 0 0 0
0:00:00.00 243904 N 0 0 0
0:00:00.00 244269 N 0 0 0
0:00:00.00 244640 N 0 0 0
0:00:00.00 244996 N 0 0 0
0:00:00.00 245376 N 0 0 0
0:00:00.00 245770 N 0 0 0
0:00:00.00 246141 N 0 0 0
0:00:00.00 246488 N 0 0 0
0:00:00.00 246845 N 0 0 0
0:00:00.00 247225 N 0 0 0
0:00:00.00 247599 N 0 0 0
0:00:00.00 247977 N 0 0 0
0:00:00.00 248351 N 0 0 0
0:00:00.00 248708 N 0 0 0
0:00:00.00 249046 N 0 0 0
0:00:00.00 249408 N 0 0 0
0:00:00.00 249784 N 0 0 0
0:00:00.00 250146 N 0 0 0
0:00:00.00 250508 N 0 0 0
0:00:00.00 250853 N 0 0 0
0:00:00.00 251203 N 0 0 0
0:00:00.00 251552 N 0 0 0
0:00:00.00 251921 N 0 0 0
0:00:00.00 252301 N 0 0 0
0:00:00.00 252662 N 0 0 0
0:00:00.00 253019 N 0 0 0
0:00:00.00 253375 N 0 0 0
0:00:00.00 253744 N 0 0 0
0:00:00.00 254124 N 0 0 0
0:00:00.00 254502 N 0 0 0
0:00:00.00 254875 N 0 0 0
0:00:00.00 255222 N 0 0 0
0:00:00.00 255587 N 0 0 0
0:00:00.00 255964 N 0 0 0
0:00:00.00 256343 N 0 0 0
0:00:00.00 256734 N 0 0 0
0:00:00.00 257110 N 0 0 0
0:00:00.00 257459 N 0 0 0
0:00:00.00 257825 N 0 0 0
0:00:00.00 258208 N 0 0 0
0:00:00.00 258586 N 0 0 0
0:00:00.00 258959 N 0 0 0
0:00:00.00 259326 N 0 0 0
0:00:00.00 259684 N 0 0 0
0:00:00.00 260024 N 0 0 0
0:00:00.00 260377 N 0 0 0
0:00:00.00 260753 N 0 0 0
0:00:00.00 261128 N 0 0 0
0:00:00.00 261479 N 0 0 0
0:00:00.00 261828 N 0 0 0
0:00:00.00 262188 N 0 0 0
0:00:00.00 262550 N 0 0 0
0:00:00.00 262924 N 0 0 0
0:00:00.00 263299 N 0 0 0
0:00:00.00 263648 N 0 0 0
0:00:00.00 264004 N 0 0 0
0:00:00.00 264357 N 0 0 0
0:00:00.00 264715 N 0 0 0
0:00:00.00 265099 N 0 0 0
0:00:00.00 265471 N 0 0 0
0:00:00.00 265819 N 0 0 0
0:00:00.00 266170 N 0 0 0
0:00:00.00 266535 N 0 0 0
0:00:00.00 266900 N 0 0 0
0:00:00.00 267269 N 0 0 0
0:00:00.00 267638 N 0 0 0
0:00:00.00 268000 N 0 0 0
0:00:00.00 268348 N 0 0 0
0:00:00.00 268695 N 0 0 0
0:00:00.00 269073 N 0 0 0
0:00:00.00 269453 N 0 0 0
0:00:00.00 269816 N 0 0 0
0:00:00.00 270173 N 0 0 0
0:00:00.00 270536 N 0 0 0
0:00:00.00 270887 N 0 0 0
0:00:00.00 271260 N 0 0 0
0:00:00.00 271643 N 0 0 0
0:00:00.00 272007 N 0 0 0
0:00:00.00 272362 N 0 0 0
0:00:00.00 272716 N 0 0 0
0:00:00.00 273078 N 0 0 0
0:00:00.00 273449 N 0 0 0
0:00:00.00 273823 N 0 0 0
0:00:00.00 274190 N 0 0 0
0:00:00.00 274538 N 0 0 0
0:00:00.00 274896 N 0 0 0
0:00:00.00 275261 N 0 0 0
0:00:00.00 275621 N 0 0 0
0:00:00.00 276003 N 0 0 0
0:00:00.00 276379 N 0 0 0
0:00:00.00 276727 N 0 0 0
0:00:00.00 277070 N 0 0 0
0:00:00.00 277434 N 0 0 0
0:00:00.00 277819 N 0 0 0
0:00:00.00 278183 N 0 0 0
0:00:00.00 278541 N 0 0 0
0:00:00.00 278908 N 0 0 0
0:00:00.00 279256 N 0 0 0
0:00:00.00 279605 N 0 0 0
0:00:00.00 279985 N 0 0 0
0:00:00.00 280375 N 0 0 0
0:00:00.00 280735 N 0 0 0
0:00:00.00 281092 N 0 0 0
0:00:00.00 281455 N 0 0 0
0:00:00.00 281822 N 0 0 0
0:00:00.00 282193 N 0 0 0
0:00:00.00 282575 N 0 0 0
0:00:00.00 282946 N 0 0 0
0:00:00.00 283298 N 0 0 0
0:00:00.00 283658 N 0 0 0
0:00:00.00 284024 N 0 0 0
0:00:00.00 284407 N 0 0 0
0:00:00.00 284778 N 0 0 0
0:00:00.00 285149 N 0 0 0
0:00:00.00 285503 N 0 0 0
0:00:00.00 285851 N 0 0 0
0:00:00.00 286223 N 0 0 0
0:00:00.00 286600 N 0 0 0
0:00:00.00 286967 N 0 0 0
0:00:00.00 287329 N 0 0 0
0:00:00.00 287681 N 0 0 0
0:00:00.00 288034 N 0 0 0
0:00:00.00 288396 N 0 0 0
0:00:00.00 288787 N 0 0 0
0:00:00.00 289150 N 0 0 0
0:00:00.00 289508 N 0 0 0
0:00:00.00 289870 N 0 0 0
0:00:00.00 290214 N 0 0 0
0:00:00.00 290576 N 0 0 0
0:00:00.00 290956 N 0 0 0
0:00:00.00 291319 N 0 0 0
0:00:00.00 291674 N 0 0 0
0:00:00.00 292027 N 0 0 0
0:00:00.00 292376 N 0 0 0
0:00:00.00 292741 N 0 0 0
0:00:00.00 293119 N 0 0 0
0:00:00.00 293495 N 0 0 0
0:00:00.00 293845 N 0 0 0
0:00:00.00 294196 N 0 0 0
0:00:00.00 294554 N 0 0 0
0:00:00.00 294910 N 0 0 0
0:00:00.00 295270 N 0 0 0
0:00:00.00 295639 N 0 0 0
0:00:00.00 295990 N 0 0 0
0:00:00.00 296336 N 0 0 0
0:00:00.00 296689 N 0 0 0
0:00:00.00 297070 N 0 0 0
0:00:00.00 297446 N 0 0 0
0:00:00.00 297808 N 0 0 0
0:00:00.00 298184 N 0 0 0
0:00:00.00 298539 N 0 0 0
0:00:00.00 298894 N 0 0 0
0:00:00.00 299268 N 0 0 0
0:00:00.00 299626 N 0 0 0
0:00:00.00 299992 N 0 0 0
0:00:00.00 300326 N 0 0 0
0:00:00.00 300640 N 0 0 0
0:00:00.00 300971 N 0 0 0
0:00:00.00 301302 N 0 0 0
0:00:00.00 301658 N 0 0 0
0:00:00.00 302026 N 0 0 0
0:00:00.00 302395 N 0 0 0
0:00:00.00 302746 N 0 0 0
0:00:00.00 303102 N 0 0 0
0:00:00.00 303475 N 0 0 0
0:00:00.00 303863 N 0 0 0
0:00:00.00 304241 N 0 0 0
0:00:00.00 304612 N 0 0 0
0:00:00.00 304979 N 0 0 0
0:00:00.00 305339 N 0 0 0
0:00:00.00 305707 N 0 0 0
0:00:00.00 306083 N 0 0 0
0:00:00.00 306472 N 0 0 0
0:00:00.00 306833 N 0 0 0
0:00:00.00 307190 N 0 0 0
0:00:00.00 307546 N 0 0 0
0:00:00.00 307908 N 0 0 0
0:00:00.00 308243 N 0 0 0
0:00:00.00 308639 N 0 0 0
0:00:00.00 308981 N 0 0 0
0:00:00.00 309328 N 0 0 0
0:00:00.00 309668 N 0 0 0
0:00:00.00 310028 N 0 0 0
0:00:00.00 310408 N 0 0 0
0:00:00.00 310786 N 0 0 0
0:00:00.00 311134 N 0 0 0
0:00:00.00 311477 N 0 0 0
0:00:00.00 311825 N 0 0 0
0:00:00.00 312174 N 0 0 0
0:00:00.00 312541 N 0 0 0
0:00:00.00 312907 N 0 0 0
0:00:00.00 313249 N 0 0 0
0:00:00.00 313594 N 0 0 0
0:00:00.00 313943 N 0 0 0
0:00:00.00 314289 N 0 0 0
0:00:00.00 314651 N 0 0 0
0:00:00.00 314987 N 0 0 0
0:00:00.00 315306 N 0 0 0
0:00:00.00 315614 N 0 0 0
0:00:00.00 315923 N 0 0 0
0:00:00.00 316237 N 0 0 0
0:00:00.00 316566 N 0 0 0
0:00:00.00 316904 N 0 0 0
0:00:00.00 317234 N 0 0 0
0:00:00.00 317587 N 0 0 0
0:00:00.00 317930 N 0 0 0
0:00:00.00 318280 N 0 0 0
0:00:00.00 318638 N 0 0 0
0:00:00.00 319019 N 0 0 0
0:00:00.00 319401 N 0 0 0
0:00:00.00 319761 N 0 0 0
0:00:00.00 320108 N 0 0 0
0:00:00.00 320468 N 0 0 0
0:00:00.00 320839 N 0 0 0
0:00:00.00 321221 N 0 0 0
0:00:00.00 321584 N 0 0 0
0:00:00.00 321952 N 0 0 0
0:00:00.00 322301 N 0 0 0
0:00:00.00 322650 N 0 0 0
0:00:00.00 323015 N 0 0 0
0:00:00.00 323393 N 0 0 0
0:00:00.00 323762 N 0 0 0
0:00:00.00 324113 N 0 0 0
0:00:00.00 324455 N 0 0 0
0:00:00.00 324815 N 0 0 0
0:00:00.00 325184 N 0 0 0
0:00:00.00 325548 N 0 0 0
0:00:00.00 325913 N 0 0 0
0:00:00.00 326259 N 0 0 0
0:00:00.00 326572 N 0 0 0
0:00:00.00 326885 N 0 0 0
0:00:00.00 327204 N 0 0 0
0:00:00.00 327557 N 0 0 0
0:00:00.00 327919 N 0 0 0
0:00:00.00 328268 N 0 0 0
0:00:00.00 328619 N 0 0 0
0:00:00.00 328975 N 0 0 0
0:00:00.00 329341 N 0 0 0
0:00:00.00 329722 N 0 0 0
0:00:00.00 330091 N 0 0 0
0:00:00.00 330466 N 0 0 0
0:00:00.00 330827 N 0 0 0
0:00:00.00 331198 N 0 0 0
0:00:00.00 331576 N 0 0 0
0:00:00.00 331952 N 0 0 0
0:00:00.00 332321 N 0 0 0
0:00:00.00 332689 N 0 0 0
0:00:00.00 333052 N 0 0 0
0:00:00.00 333407 N 0 0 0
0:00:00.00 333743 N 0 0 0
0:00:00.00 334111 N 0 0 0
0:00:00.00 334458 N 0 0 0
0:00:00.00 334786 N 0 0 0
0:00:00.00 335095 N 0 0 0
0:00:00.00 335401 N 0 0 0
0:00:00.00 335711 N 0 0 0
0:00:00.00 336020 N 0 0 0
0:00:00.00 336346 N 0 0 0
0:00:00.00 336670 N 0 0 0
0:00:00.00 336996 N 0 0 0
0:00:00.00 337311 N 0 0 0
0:00:00.00 337626 N 0 0 0
0:00:00.00 337952 N 0 0 0
0:00:00.00 338301 N 0 0 0
0:00:00.00 338661 N 0 0 0
0:00:00.00 339016 N 0 0 0
0:00:00.00 339363 N 0 0 0
0:00:00.00 339727 N 0 0 0
0:00:00.00 340074 N 0 0 0
0:00:00.00 340436 N 0 0 0
0:00:00.00 340787 N 0 0 0
0:00:00.00 341116 N 0 0 0
0:00:00.00 341444 N 0 0 0
0:00:00.00 341775 N 0 0 0
0:00:00.00 342124 N 0 0 0
0:00:00.00 342508 N 0 0 0
0:00:00.00 342889 N 0 0 0
0:00:00.00 343269 N 0 0 0
0:00:00.00 343636 N 0 0 0
0:00:00.00 344009 N 0 0 0
0:00:00.00 344380 N 0 0 0
0:00:00.00 344747 N 0 0 0
0:00:00.00 345125 N 0 0 0
0:00:00.00 345488 N 0 0 0
0:00:00.00 345829 N 0 0 0
0:00:00.00 346156 N 0 0 0
0:00:00.00 346498 N 0 0 0
0:00:00.00 346860 N 0 0 0
0:00:00.00 347207 N 0 0 0
0:00:00.00 347528 N 0 0 0
0:00:00.00 347859 N 0 0 0
0:00:00.00 348192 N 0 0 0
0:00:00.00 348521 N 0 0 0
0:00:00.00 348869 N 0 0 0
0:00:00.00 349229 N 0 0 0
0:00:00.00 349594 N 0 0 0
0:00:00.00 349931 N 0 0 0
0:00:00.00 350240 N 0 0 0
0:00:00.00 350541 N 0 0 0
0:00:00.00 350842 N 0 0 0
0:00:00.00 351151 N 0 0 0
0:00:00.00 351457 N 0 0 0
0:00:00.00 351779 N 0 0 0
0:00:00.00 352103 N 0 0 0
0:00:00.00 352442 N 0 0 0
0:00:00.00 352786 N 0 0 0
0:00:00.00 353153 N 0 0 0
0:00:00.00 353534 N 0 0 0
0:00:00.00 353900 N 0 0 0
0:00:00.00 354251 N 0 0 0
0:00:00.00 354580 N 0 0 0
0:00:00.00 354910 N 0 0 0
0:00:00.00 355234 N 0 0 0
0:00:00.00 355576 N 0 0 0
0:00:00.00 355932 N 0 0 0
0:00:00.00 356294 N 0 0 0
0:00:00.00 356648 N 0 0 0
0:00:00.00 356996 N 0 0 0
0:00:00.00 357361 N 0 0 0
0:00:00.00 357746 N 0 0 0
0:00:00.00 358130 N 0 0 0
0:00:00.00 358499 N 0 0 0
0:00:00.00 358862 N 0 0 0
0:00:00.00 359221 N 0 0 0
0:00:00.00 359581 N 0 0 0
0:00:00.00 359960 N 0 0 0
0:00:00.00 360335 N 0 0 0
0:00:00.00 360700 N 0 0 0
0:00:00.00 361031 N 0 0 0
0:00:00.00 361363 N 0 0 0
0:00:00.00 361717 N 0 0 0
0:00:00.00 362059 N 0 0 0
0:00:00.00 362408 N 0 0 0
0:00:00.00 362745 N 0 0 0
0:00:00.00 363049 N 0 0 0
0:00:00.00 363348 N 0 0 0
0:00:00.00 363643 N 0 0 0
0:00:00.00 363938 N 0 0 0
0:00:00.00 364268 N 0 0 0
0:00:00.00 364621 N 0 0 0
0:00:00.00 364955 N 0 0 0
0:00:00.00 365272 N 0 0 0
0:00:00.00 365584 N 0 0 0
0:00:00.00 365915 N 0 0 0
0:00:00.00 366277 N 0 0 0
0:00:00.00 366655 N 0 0 0
0:00:00.00 367038 N 0 0 0
0:00:00.00 367414 N 0 0 0
0:00:00.00 367783 N 0 0 0
0:00:00.00 368158 N 0 0 0
0:00:00.00 368550 N 0 0 0
0:00:00.00 368946 N 0 0 0
0:00:00.00 369317 N 0 0 0
0:00:00.00 369657 N 0 0 0
0:00:00.00 370015 N 0 0 0
0:00:00.00 370372 N 0 0 0
0:00:00.00 370730 N 0 0 0
0:00:00.00 371093 N 0 0 0
0:00:00.00 371452 N 0 0 0
0:00:00.00 371804 N 0 0 0
0:00:00.00 372150 N 0 0 0
0:00:00.00 372503 N 0 0 0
0:00:00.00 372879 N 0 0 0
0:00:00.00 373239 N 0 0 0
0:00:00.00 373595 N 0 0 0
0:00:00.00 373943 N 0 0 0
0:00:00.00 374301 N 0 0 0
0:00:00.00 374663 N 0 0 0
0:00:00.00 375034 N 0 0 0
0:00:00.00 375413 N 0 0 0
0:00:00.00 375775 N 0 0 0
0:00:00.00 376123 N 0 0 0
0:00:00.00 376475 N 0 0 0
0:00:00.00 376837 N 0 0 0
0:00:00.00 377206 N 0 0 0
0:00:00.00 377568 N 0 0 0
0:00:00.00 377926 N 0 0 0
0:00:00.00 378286 N 0 0 0
0:00:00.00 378626 N 0 0 0
0:00:00.00 378974 N 0 0 0
0:00:00.00 379346 N 0 0 0
0:00:00.00 379721 N 0 0 0
0:00:00.00 380075 N 0 0 0
0:00:00.00 380416 N 0 0 0
0:00:00.00 380756 N 0 0 0
0:00:00.00 381121 N 0 0 0
0:00:00.00 381467 N 0 0 0
0:00:00.00 381796 N 0 0 0
0:00:00.00 382144 N 0 0 0
0:00:00.00 382469 N 0 0 0
0:00:00.00 382797 N 0 0 0
0:00:00.00 383123 N 0 0 0
0:00:00.00 383468 N 0 0 0
0:00:00.00 383846 N 0 0 0
0:00:00.00 384197 N 0 0 0
0:00:00.00 384547 N 0 0 0
0:00:00.00 384896 N 0 0 0
0:00:00.00 385245 N 0 0 0
0:00:00.00 385607 N 0 0 0
0:00:00.00 385981 N 0 0 0
0:00:00.00 386359 N 0 0 0
0:00:00.00 386717 N 0 0 0
0:00:00.00 387068 N 0 0 0
0:00:00.00 387421 N 0 0 0
0:00:00.00 387769 N 0 0 0
0:00:00.00 388136 N 0 0 0
0:00:00.00 388476 N 0 0 0
0:00:00.00 388798 N 0 0 0
0:00:00.00 389108 N 0 0 0
0:00:00.00 389434 N 0 0 0
0:00:00.00 389770 N 0 0 0
0:00:00.00 390118 N 0 0 0
0:00:00.00 390467 N 0 0 0
0:00:00.00 390825 N 0 0 0
0:00:00.00 391176 N 0 0 0
0:00:00.00 391525 N 0 0 0
0:00:00.00 391876 N 0 0 0
0:00:00.00 392256 N 0 0 0
0:00:00.00 392629 N 0 0 0
0:00:00.00 392981 N 0 0 0
0:00:00.00 393322 N 0 0 0
0:00:00.00 393674 N 0 0 0
0:00:00.00 394029 N 0 0 0
0:00:00.00 394391 N 0 0 0
0:00:00.00 394774 N 0 0 0
0:00:00.00 395131 N 0 0 0
0:00:00.00 395460 N 0 0 0
0:00:00.00 395804 N 0 0 0
0:00:00.00 396153 N 0 0 0
0:00:00.00 396526 N 0 0 0
0:00:00.00 396898 N 0 0 0
0:00:00.00 397269 N 0 0 0
0:00:00.00 397622 N 0 0 0
0:00:00.00 397966 N 0 0 0
0:00:00.00 398317 N 0 0 0
0:00:00.00 398684 N 0 0 0
0:00:00.00 399047 N 0 0 0
0:00:00.00 399413 N 0 0 0
0:00:00.00 399766 N 0 0 0
0:00:00.00 400113 N 0 0 0
0:00:00.00 400451 N 0 0 0
0:00:00.00 400802 N 0 0 0
0:00:00.00 401148 N 0 0 0
0:00:00.00 401492 N 0 0 0
0:00:00.00 401830 N 0 0 0
0:00:00.00 402178 N 0 0 0
0:00:00.00 402536 N 0 0 0
0:00:00.00 402898 N 0 0 0
0:00:00.00 403283 N 0 0 0
0:00:00.00 403663 N 0 0 0
0:00:00.00 404032 N 0 0 0
0:00:00.00 404383 N 0 0 0
0:00:00.00 404752 N 0 0 0
0:00:00.00 405130 N 0 0 0
0:00:00.00 405502 N 0 0 0
0:00:00.00 405886 N 0 0 0
0:00:00.00 406251 N 0 0 0
0:00:00.00 406606 N 0 0 0
0:00:00.00 406958 N 0 0 0
0:00:00.00 407340 N 0 0 0
0:00:00.00 407729 N 0 0 0
0:00:00.00 408091 N 0 0 0
0:00:00.00 408452 N 0 0 0
0:00:00.00 408809 N 0 0 0
0:00:00.00 409156 N 0 0 0
0:00:00.00 409531 N 0 0 0
0:00:00.00 409912 N 0 0 0
0:00:00.00 410279 N 0 0 0
0:00:00.00 410632 N 0 0 0
0:00:00.00 410981 N 0 0 0
0:00:00.00 411332 N 0 0 0
0:00:00.00 411709 N 0 0 0
0:00:00.00 412081 N 0 0 0
0:00:00.00 412439 N 0 0 0
0:00:00.00 412794 N 0 0 0
0:00:00.00 413150 N 0 0 0
0:00:00.00 413500 N 0 0 0
0:00:00.00 413865 N 0 0 0
0:00:00.00 414256 N 0 0 0
0:00:00.00 414616 N 0 0 0
0:00:00.00 414961 N 0 0 0
0:00:00.00 415319 N 0 0 0
0:00:00.00 415670 N 0 0 0
0:00:00.00 416043 N 0 0 0
0:00:00.00 416412 N 0 0 0
0:00:00.00 416770 N 0 0 0
0:00:00.00 417125 N 0 0 0
0:00:00.00 417470 N 0 0 0
0:00:00.00 417818 N 0 0 0
0:00:00.00 418185 N 0 0 0
0:00:00.00 418565 N 0 0 0
0:00:00.00 418918 N 0 0 0
0:00:00.00 419267 N 0 0 0
0:00:00.00 419623 N 0 0 0
0:00:00.00 419971 N 0 0 0
0:00:00.00 420343 N 0 0 0
0:00:00.00 420701 N 0 0 0
0:00:00.00 421067 N 0 0 0
0:00:00.00 421420 N 0 0 0
0:00:00.00 421762 N 0 0 0
0:00:00.00 422113 N 0 0 0
0:00:00.00 422483 N 0 0 0
0:00:00.00 422861 N 0 0 0
0:00:00.00 423216 N 0 0 0
0:00:00.00 423554 N 0 0 0
0:00:00.00 423891 N 0 0 0
0:00:00.00 424229 N 0 0 0
0:00:00.00 424562 N 0 0 0
0:00:00.00 424895 N 0 0 0
0:00:00.00 425241 N 0 0 0
0:00:00.00 425585 N 0 0 0
0:00:00.00 425921 N 0 0 0
0:00:00.00 426267 N 0 0 0
0:00:00.00 426622 N 0 0 0
0:00:00.00 427005 N 0 0 0
0:00:00.00 427379 N 0 0 0
0:00:00.00 427736 N 0 0 0
0:00:00.00 428094 N 0 0 0
0:00:00.00 428438 N 0 0 0
0:00:00.00 428798 N 0 0 0
0:00:00.00 429174 N 0 0 0
0:00:00.00 429556 N 0 0 0
0:00:00.00 429908 N 0 0 0
0:00:00.00 430259 N 0 0 0
0:00:00.00 430625 N 0 0 0
0:00:00.00 430985 N 0 0 0
0:00:00.00 431356 N 0 0 0
0:00:00.00 431725 N 0 0 0
0:00:00.00 432070 N 0 0 0
0:00:00.00 432416 N 0 0 0
0:00:00.00 432758 N 0 0 0
0:00:00.00 433093 N 0 0 0
0:00:00.00 433454 N 0 0 0
0:00:00.00 433816 N 0 0 0
0:00:00.00 434164 N 0 0 0
0:00:00.00 434498 N 0 0 0
0:00:00.00 434851 N 0 0 0
0:00:00.00 435218 N 0 0 0
0:00:00.00 435586 N 0 0 0
0:00:00.00 435958 N 0 0 0
0:00:00.00 436333 N 0 0 0
0:00:00.00 436676 N 0 0 0
0:00:00.00 437020 N 0 0 0
0:00:00.00 437386 N 0 0 0
0:00:00.00 437769 N 0 0 0
0:00:00.00 438134 N 0 0 0
0:00:00.00 438484 N 0 0 0
0:00:00.00 438831 N 0 0 0
0:00:00.00 439175 N 0 0 0
0:00:00.00 439526 N 0 0 0
0:00:00.00 439879 N 0 0 0
0:00:00.00 440233 N 0 0 0
0:00:00.00 440584 N 0 0 0
0:00:00.00 440926 N 0 0 0
0:00:00.00 441256 N 0 0 0
0:00:00.00 441605 N 0 0 0
0:00:00.00 441956 N 0 0 0
0:00:00.00 442312 N 0 0 0
0:00:00.00 442651 N 0 0 0
0:00:00.00 442967 N 0 0 0
0:00:00.00 443290 N 0 0 0
0:00:00.00 443608 N 0 0 0
0:00:00.00 443941 N 0 0 0
0:00:00.00 444299 N 0 0 0
0:00:00.00 444649 N 0 0 0
0:00:00.00 444976 N 0 0 0
0:00:00.00 445307 N 0 0 0
0:00:00.00 445644 N 0 0 0
0:00:00.00 445997 N 0 0 0
0:00:00.00 446351 N 0 0 0
0:00:00.00 446715 N 0 0 0
0:00:00.00 447077 N 0 0 0
0:00:00.00 447419 N 0 0 0
0:00:00.00 447759 N 0 0 0
0:00:00.00 448114 N 0 0 0
0:00:00.00 448463 N 0 0 0
0:00:00.00 448828 N 0 0 0
0:00:00.00 449183 N 0 0 0
0:00:00.00 449516 N 0 0 0
0:00:00.00 449865 N 0 0 0
0:00:00.00 450214 N 0 0 0
0:00:00.00 450556 N 0 0 0
0:00:00.00 450911 N 0 0 0
0:00:00.00 451255 N 0 0 0
0:00:00.00 451600 N 0 0 0
0:00:00.00 451940 N 0 0 0
0:00:00.00 452284 N 0 0 0
0:00:00.00 452644 N 0 0 0
0:00:00.00 453001 N 0 0 0
0:00:00.00 453353 N 0 0 0
0:00:00.00 453695 N 0 0 0
0:00:00.00 454030 N 0 0 0
0:00:00.00 454379 N 0 0 0
0:00:00.00 454720 N 0 0 0
0:00:00.00 455087 N 0 0 0
0:00:00.00 455452 N 0 0 0
0:00:00.00 455801 N 0 0 0
0:00:00.00 456134 N 0 0 0
0:00:00.00 456471 N 0 0 0
0:00:00.00 456817 N 0 0 0
0:00:00.00 457177 N 0 0 0
0:00:00.00 457520 N 0 0 0
0:00:00.00 457862 N 0 0 0
0:00:00.00 458212 N 0 0 0
0:00:00.00 458546 N 0 0 0
0:00:00.00 458888 N 0 0 0
0:00:00.00 459252 N 0 0 0
0:00:00.00 459603 N 0 0 0
0:00:00.00 459961 N 0 0 0
0:00:00.00 460307 N 0 0 0
0:00:00.00 460629 N 0 0 0
0:00:00.00 460980 N 0 0 0
0:00:00.00 461331 N 0 0 0
0:00:00.00 461675 N 0 0 0
0:00:00.00 462020 N 0 0 0
0:00:00.00 462359 N 0 0 0
0:00:00.00 462692 N 0 0 0
0:00:00.00 463025 N 0 0 0
0:00:00.00 463381 N 0 0 0
0:00:00.00 463759 N 0 0 0
0:00:00.00 464116 N 0 0 0
0:00:00.00 464468 N 0 0 0
0:00:00.00 464801 N 0 0 0
0:00:00.00 465149 N 0 0 0
0:00:00.00 465503 N 0 0 0
0:00:00.00 465867 N 0 0 0
0:00:00.00 466222 N 0 0 0
0:00:00.00 466558 N 0 0 0
0:00:00.00 466880 N 0 0 0
0:00:00.00 467208 N 0 0 0
0:00:00.00 467555 N 0 0 0
0:00:00.00 467906 N 0 0 0
0:00:00.00 468265 N 0 0 0
0:00:00.00 468612 N 0 0 0
0:00:00.00 468934 N 0 0 0
0:00:00.00 469273 N 0 0 0
0:00:00.00 469615 N 0 0 0
0:00:00.00 469964 N 0 0 0
0:00:00.00 470329 N 0 0 0
0:00:00.00 470682 N 0 0 0
0:00:00.00 471033 N 0 0 0
0:00:00.00 471373 N 0 0 0
0:00:00.00 471715 N 0 0 0
0:00:00.00 472079 N 0 0 0
0:00:00.00 472439 N 0 0 0
0:00:00.00 472799 N 0 0 0
0:00:00.00 473150 N 0 0 0
0:00:00.00 473503 N 0 0 0
0:00:00.00 473857 N 0 0 0
0:00:00.00 474197 N 0 0 0
0:00:00.00 474557 N 0 0 0
0:00:00.00 474919 N 0 0 0
0:00:00.00 475263 N 0 0 0
0:00:00.00 475591 N 0 0 0
0:00:00.00 475931 N 0 0 0
0:00:00.00 476293 N 0 0 0
0:00:00.00 476653 N 0 0 0
0:00:00.00 477022 N 0 0 0
0:00:00.00 477371 N 0 0 0
0:00:00.00 477715 N 0 0 0
0:00:00.00 478042 N 0 0 0
0:00:00.00 478388 N 0 0 0
0:00:00.00 478748 N 0 0 0
0:00:00.00 479117 N 0 0 0
0:00:00.00 479464 N 0 0 0
0:00:00.00 479808 N 0 0 0
0:00:00.00 480163 N 0 0 0
0:00:00.00 480519 N 0 0 0
0:00:00.00 480875 N 0 0 0
0:00:00.00 481252 N 0 0 0
0:00:00.00 481613 N 0 0 0
0:00:00.00 481948 N 0 0 0
0:00:00.00 482287 N 0 0 0
0:00:00.00 482629 N 0 0 0
0:00:00.00 482999 N 0 0 0
0:00:00.00 483343 N 0 0 0
0:00:00.00 483691 N 0 0 0
0:00:00.00 484033 N 0 0 0
0:00:00.00 484364 N 0 0 0
0:00:00.00 484704 N 0 0 0
0:00:00.00 485048 N 0 0 0
0:00:00.00 485406 N 0 0 0
0:00:00.00 485771 N 0 0 0
0:00:00.00 486126 N 0 0 0
0:00:00.00 486477 N 0 0 0
0:00:00.00 486837 N 0 0 0
0:00:00.00 487213 N 0 0 0
0:00:00.00 487598 N 0 0 0
0:00:00.00 487955 N 0 0 0
0:00:00.00 488306 N 0 0 0
0:00:00.00 488657 N 0 0 0
0:00:00.00 489006 N 0 0 0
0:00:00.00 489362 N 0 0 0
0:00:00.00 489719 N 0 0 0
0:00:00.00 490086 N 0 0 0
0:00:00.00 490433 N 0 0 0
0:00:00.00 490763 N 0 0 0
0:00:00.00 491103 N 0 0 0
0:00:00.00 491458 N 0 0 0
0:00:00.00 491816 N 0 0 0
0:00:00.00 492165 N 0 0 0
0:00:00.00 492496 N 0 0 0
0:00:00.00 492822 N 0 0 0
0:00:00.00 493148 N 0 0 0
0:00:00.00 493481 N 0 0 0
0:00:00.00 493821 N 0 0 0
0:00:00.00 494176 N 0 0 0
0:00:00.00 494512 N 0 0 0
0:00:00.00 494842 N 0 0 0
0:00:00.00 495169 N 0 0 0
0:00:00.00 495504 N 0 0 0
0:00:00.00 495855 N 0 0 0
0:00:00.00 496215 N 0 0 0
0:00:00.00 496577 N 0 0 0
0:00:00.00 496924 N 0 0 0
0:00:00.00 497245 N 0 0 0
0:00:00.00 497570 N 0 0 0
0:00:00.00 497903 N 0 0 0
0:00:00.00 498242 N 0 0 0
0:00:00.00 498577 N 0 0 0
0:00:00.00 498892 N 0 0 0
0:00:00.00 499190 N 0 0 0
0:00:00.00 499511 N 0 0 0
0:00:00.00 499820 N 0 0 0
0:00:00.00 500139 N 0 0 0
0:00:00.00 500465 N 0 0 0
0:00:00.00 500791 N 0 0 0
0:00:00.00 501118 N 0 0 0
0:00:00.00 501439 N 0 0 0
0:00:00.00 501763 N 0 0 0
0:00:00.00 502081 N 0 0 0
0:00:00.00 502429 N 0 0 0
0:00:00.00 502772 N 0 0 0
0:00:00.00 503105 N 0 0 0
0:00:00.00 503422 N 0 0 0
0:00:00.00 503725 N 0 0 0
0:00:00.00 504045 N 0 0 0
0:00:00.00 504378 N 0 0 0
0:00:00.00 504724 N 0 0 0
0:00:00.00 505089 N 0 0 0
0:00:00.00 505438 N 0 0 0
0:00:00.00 505768 N 0 0 0
0:00:00.00 506088 N 0 0 0
0:00:00.00 506421 N 0 0 0
0:00:00.00 506768 N 0 0 0
0:00:00.00 507112 N 0 0 0
0:00:00.00 507445 N 0 0 0
0:00:00.00 507793 N 0 0 0
0:00:00.00 508135 N 0 0 0
0:00:00.00 508482 N 0 0 0
0:00:00.00 508851 N 0 0 0
0:00:00.00 509233 N 0 0 0
0:00:00.00 509609 N 0 0 0
0:00:00.00 509953 N 0 0 0
0:00:00.00 510302 N 0 0 0
0:00:00.00 510665 N 0 0 0
0:00:00.00 511038 N 0 0 0
0:00:00.00 511412 N 0 0 0
0:00:00.00 511772 N 0 0 0
0:00:00.00 512123 N 0 0 0
0:00:00.00 512469 N 0 0 0
0:00:00.00 512822 N 0 0 0
0:00:00.00 513191 N 0 0 0
0:00:00.00 513558 N 0 0 0
0:00:00.00 513911 N 0 0 0
0:00:00.00 514267 N 0 0 0
0:00:00.00 514615 N 0 0 0
0:00:00.00 514967 N 0 0 0
0:00:00.00 515333 N 0 0 0
0:00:00.00 515705 N 0 0 0
0:00:00.00 516085 N 0 0 0
0:00:00.00 516442 N 0 0 0
0:00:00.00 516791 N 0 0 0
0:00:00.00 517136 N 0 0 0
0:00:00.00 517504 N 0 0 0
0:00:00.00 517878 N 0 0 0
0:00:00.00 518236 N 0 0 0
0:00:00.00 518582 N 0 0 0
0:00:00.00 518933 N 0 0 0
0:00:00.00 519284 N 0 0 0
0:00:00.00 519644 N 0 0 0
0:00:00.00 520013 N 0 0 0
0:00:00.00 520385 N 0 0 0
0:00:00.00 520736 N 0 0 0
0:00:00.00 521080 N 0 0 0
0:00:00.00 521440 N 0 0 0
0:00:00.00 521815 N 0 0 0
0:00:00.00 522175 N 0 0 0
0:00:00.00 522538 N 0 0 0
0:00:00.00 522875 N 0 0 0
0:00:00.00 523220 N 0 0 0
0:00:00.00 523564 N 0 0 0
0:00:00.00 523915 N 0 0 0
0:00:00.00 524263 N 0 0 0
0:00:00.00 524619 N 0 0 0
0:00:00.00 524966 N 0 0 0
0:00:00.00 525314 N 0 0 0
0:00:00.00 525654 N 0 0 0
0:00:00.00 526021 N 0 0 0
0:00:00.00 526401 N 0 0 0
0:00:00.00 526768 N 0 0 0
0:00:00.00 527130 N 0 0 0
0:00:00.00 527485 N 0 0 0
0:00:00.00 527827 N 0 0 0
0:00:00.00 528160 N 0 0 0
0:00:00.00 528507 N 0 0 0
0:00:00.00 528874 N 0 0 0
0:00:00.00 529225 N 0 0 0
0:00:00.00 529580 N 0 0 0
0:00:00.00 529943 N 0 0 0
0:00:00.00 530312 N 0 0 0
0:00:00.00 530690 N 0 0 0
0:00:00.00 531067 N 0 0 0
0:00:00.00 531432 N 0 0 0
0:00:00.00 531778 N 0 0 0
0:00:00.00 532015 N 0 0 0
0:00:00.00 532474 N 0 0 0
0:00:00.00 532865 N 0 0 0
0:00:00.00 533237 N 0 0 0
0:00:00.00 533599 N 0 0 0
0:00:00.00 533956 N 0 0 0
0:00:00.00 534316 N 0 0 0
0:00:00.00 534688 N 0 0 0
0:00:00.00 535059 N 0 0 0
0:00:00.00 535421 N 0 0 0
0:00:00.00 535770 N 0 0 0
0:00:00.00 536117 N 0 0 0
0:00:00.00 536483 N 0 0 0
0:00:00.00 536873 N 0 0 0
0:00:00.00 537273 N 0 0 0
0:00:00.00 537658 N 0 0 0
0:00:00.00 538042 N 0 0 0
0:00:00.00 538402 N 0 0 0
0:00:00.00 538749 N 0 0 0
0:00:00.00 539125 N 0 0 0
0:00:00.00 539507 N 0 0 0
0:00:00.00 539878 N 0 0 0
0:00:00.00 540218 N 0 0 0
0:00:00.00 540569 N 0 0 0
0:00:00.00 540938 N 0 0 0
0:00:00.00 541305 N 0 0 0
0:00:00.00 541667 N 0 0 0
0:00:00.00 542034 N 0 0 0
0:00:00.00 542398 N 0 0 0
0:00:00.00 542741 N 0 0 0
0:00:00.00 543087 N 0 0 0
0:00:00.00 543469 N 0 0 0
0:00:00.00 543848 N 0 0 0
0:00:00.00 544207 N 0 0 0
0:00:00.00 544558 N 0 0 0
0:00:00.00 544916 N 0 0 0
0:00:00.00 545287 N 0 0 0
0:00:00.00 545657 N 0 0 0
0:00:00.00 546037 N 0 0 0
0:00:00.00 546413 N 0 0 0
0:00:00.00 546757 N 0 0 0
0:00:00.00 547097 N 0 0 0
0:00:00.00 547457 N 0 0 0
0:00:00.00 547839 N 0 0 0
0:00:00.00 548212 N 0 0 0
0:00:00.00 548577 N 0 0 0
0:00:00.00 548944 N 0 0 0
0:00:00.00 549306 N 0 0 0
0:00:00.00 549662 N 0 0 0
0:00:00.00 550049 N 0 0 0
0:00:00.00 550433 N 0 0 0
0:00:00.00 550800 N 0 0 0
0:00:00.00 551144 N 0 0 0
0:00:00.00 551486 N 0 0 0
0:00:00.00 551842 N 0 0 0
0:00:00.00 552206 N 0 0 0
0:00:00.00 552573 N 0 0 0
0:00:00.00 552933 N 0 0 0
0:00:00.00 553273 N 0 0 0
0:00:00.00 553626 N 0 0 0
0:00:00.00 553988 N 0 0 0
0:00:00.00 554357 N 0 0 0
0:00:00.00 554726 N 0 0 0
0:00:00.00 555093 N 0 0 0
0:00:00.00 555439 N 0 0 0
0:00:00.00 555775 N 0 0 0
0:00:00.00 556139 N 0 0 0
0:00:00.00 556511 N 0 0 0
0:00:00.00 556873 N 0 0 0
0:00:00.00 557233 N 0 0 0
0:00:00.00 557593 N 0 0 0
0:00:00.00 557944 N 0 0 0
0:00:00.00 558299 N 0 0 0
0:00:00.00 558677 N 0 0 0
0:00:00.00 559057 N 0 0 0
0:00:00.00 559408 N 0 0 0
0:00:00.00 559750 N 0 0 0
0:00:00.00 560113 N 0 0 0
0:00:00.00 560471 N 0 0 0
0:00:00.00 560837 N 0 0 0
0:00:00.00 561211 N 0 0 0
0:00:00.00 561562 N 0 0 0
0:00:00.00 561884 N 0 0 0
0:00:00.00 562192 N 0 0 0
0:00:00.00 562516 N 0 0 0
0:00:00.00 562885 N 0 0 0
0:00:00.00 563258 N 0 0 0
0:00:00.00 563612 N 0 0 0
0:00:00.00 563969 N 0 0 0
0:00:00.00 564332 N 0 0 0
0:00:00.00 564687 N 0 0 0
0:00:00.00 565052 N 0 0 0
0:00:00.00 565438 N 0 0 0
0:00:00.00 565819 N 0 0 0
0:00:00.00 566170 N 0 0 0
0:00:00.00 566528 N 0 0 0
0:00:00.00 566897 N 0 0 0
0:00:00.00 567277 N 0 0 0
0:00:00.00 567648 N 0 0 0
0:00:00.00 568017 N 0 0 0
0:00:00.00 568386 N 0 0 0
0:00:00.00 568733 N 0 0 0
0:00:00.00 569086 N 0 0 0
0:00:00.00 569466 N 0 0 0
0:00:00.00 569846 N 0 0 0
0:00:00.00 570200 N 0 0 0
0:00:00.00 570551 N 0 0 0
0:00:00.00 570911 N 0 0 0
0:00:00.00 571275 N 0 0 0
0:00:00.00 571631 N 0 0 0
0:00:00.00 572004 N 0 0 0
0:00:00.00 572369 N 0 0 0
0:00:00.00 572722 N 0 0 0
0:00:00.00 573061 N 0 0 0
0:00:00.00 573415 N 0 0 0
0:00:00.00 573802 N 0 0 0
0:00:00.00 574173 N 0 0 0
0:00:00.00 574529 N 0 0 0
0:00:00.00 574880 N 0 0 0
0:00:00.00 575219 N 0 0 0
0:00:00.00 575559 N 0 0 0
0:00:00.00 575912 N 0 0 0
0:00:00.00 576277 N 0 0 0
0:00:00.00 576643 N 0 0 0
0:00:00.00 576986 N 0 0 0
0:00:00.00 577334 N 0 0 0
0:00:00.00 577697 N 0 0 0
0:00:00.00 578079 N 0 0 0
0:00:00.00 578464 N 0 0 0
0:00:00.00 578831 N 0 0 0
0:00:00.00 579195 N 0 0 0
0:00:00.00 579550 N 0 0 0
0:00:00.00 579897 N 0 0 0
0:00:00.00 580268 N 0 0 0
0:00:00.00 580649 N 0 0 0
0:00:00.00 581024 N 0 0 0
0:00:00.00 581382 N 0 0 0
0:00:00.00 581738 N 0 0 0
0:00:00.00 582111 N 0 0 0
0:00:00.00 582487 N 0 0 0
0:00:00.00 582862 N 0 0 0
0:00:00.00 583232 N 0 0 0
0:00:00.00 583587 N 0 0 0
0:00:00.00 583952 N 0 0 0
0:00:00.00 584309 N 0 0 0
0:00:00.00 584683 N 0 0 0
0:00:00.00 585061 N 0 0 0
0:00:00.00 585418 N 0 0 0
0:00:00.00 585761 N 0 0 0
0:00:00.00 586109 N 0 0 0
0:00:00.00 586480 N 0 0 0
0:00:00.00 586854 N 0 0 0
0:00:00.00 587221 N 0 0 0
0:00:00.00 587590 N 0 0 0
0:00:00.00 587927 N 0 0 0
0:00:00.00 588271 N 0 0 0
0:00:00.00 588629 N 0 0 0
0:00:00.00 589009 N 0 0 0
0:00:00.00 589372 N 0 0 0
0:00:00.00 589727 N 0 0 0
0:00:00.00 590080 N 0 0 0
0:00:00.00 590438 N 0 0 0
0:00:00.00 590789 N 0 0 0
0:00:00.00 591160 N 0 0 0
0:00:00.00 591532 N 0 0 0
0:00:00.00 591871 N 0 0 0
0:00:00.00 592202 N 0 0 0
0:00:00.00 592535 N 0 0 0
0:00:00.00 592862 N 0 0 0
0:00:00.00 593206 N 0 0 0
0:00:00.00 593545 N 0 0 0
0:00:00.00 593879 N 0 0 0
0:00:00.00 594216 N 0 0 0
0:00:00.00 594553 N 0 0 0
0:00:00.00 594905 N 0 0 0
0:00:00.00 595264 N 0 0 0
0:00:00.00 595638 N 0 0 0
0:00:00.00 596016 N 0 0 0
0:00:00.00 596369 N 0 0 0
0:00:00.00 596718 N 0 0 0
0:00:00.00 597080 N 0 0 0
0:00:00.00 597467 N 0 0 0
0:00:00.00 597838 N 0 0 0
0:00:00.00 598207 N 0 0 0
0:00:00.00 598574 N 0 0 0
0:00:00.00 598912 N 0 0 0
0:00:00.00 599260 N 0 0 0
0:00:00.00 599627 N 0 0 0
0:00:00.00 599990 N 0 0 0
0:00:00.00 600349 N 0 0 0
0:00:00.00 600694 N 0 0 0
0:00:00.00 601043 N 0 0 0
0:00:00.00 601396 N 0 0 0
0:00:00.00 601762 N 0 0 0
0:00:00.00 602127 N 0 0 0
0:00:00.00 602485 N 0 0 0
0:00:00.00 602838 N 0 0 0
0:00:00.00 603173 N 0 0 0
0:00:00.00 603506 N 0 0 0
0:00:00.00 603866 N 0 0 0
0:00:00.00 604229 N 0 0 0
0:00:00.00 604573 N 0 0 0
0:00:00.00 604908 N 0 0 0
0:00:00.00 605250 N 0 0 0
0:00:00.00 605581 N 0 0 0
0:00:00.00 605936 N 0 0 0
0:00:00.00 606301 N 0 0 0
0:00:00.00 606676 N 0 0 0
0:00:00.00 607018 N 0 0 0
0:00:00.00 607354 N 0 0 0
0:00:00.00 607685 N 0 0 0
0:00:00.00 608017 N 0 0 0
0:00:00.00 608359 N 0 0 0
0:00:00.00 608711 N 0 0 0
0:00:00.00 609059 N 0 0 0
0:00:00.00 609399 N 0 0 0
0:00:00.00 609752 N 0 0 0
0:00:00.00 610114 N 0 0 0
0:00:00.00 610501 N 0 0 0
0:00:00.00 610882 N 0 0 0
0:00:00.00 611264 N 0 0 0
0:00:00.00 611617 N 0 0 0
0:00:00.00 611966 N 0 0 0
0:00:00.00 612340 N 0 0 0
0:00:00.00 612709 N 0 0 0
0:00:00.00 613069 N 0 0 0
0:00:00.00 613424 N 0 0 0
0:00:00.00 613775 N 0 0 0
0:00:00.00 614128 N 0 0 0
0:00:00.00 614491 N 0 0 0
0:00:00.00 614853 N 0 0 0
0:00:00.00 615231 N 0 0 0
0:00:00.00 615591 N 0 0 0
0:00:00.00 615935 N 0 0 0
0:00:00.00 616289 N 0 0 0
0:00:00.00 616657 N 0 0 0
0:00:00.00 617035 N 0 0 0
0:00:00.00 617393 N 0 0 0
0:00:00.00 617765 N 0 0 0
0:00:00.00 618122 N 0 0 0
0:00:00.00 618469 N 0 0 0
0:00:00.00 618826 N 0 0 0
0:00:00.00 619200 N 0 0 0
0:00:00.00 619585 N 0 0 0
0:00:00.00 619940 N 0 0 0
0:00:00.00 620284 N 0 0 0
0:00:00.00 620649 N 0 0 0
0:00:00.00 621011 N 0 0 0
0:00:00.00 621380 N 0 0 0
0:00:00.00 621751 N 0 0 0
0:00:00.00 622123 N 0 0 0
0:00:00.00 622462 N 0 0 0
0:00:00.00 622798 N 0 0 0
0:00:00.00 623162 N 0 0 0
0:00:00.00 623529 N 0 0 0
0:00:00.00 623873 N 0 0 0
0:00:00.00 624215 N 0 0 0
0:00:00.00 624553 N 0 0 0
0:00:00.00 624892 N 0 0 0
0:00:00.00 625230 N 0 0 0
0:00:00.00 625592 N 0 0 0
0:00:00.00 625972 N 0 0 0
0:00:00.00 626333 N 0 0 0
0:00:00.00 626675 N 0 0 0
0:00:00.00 627023 N 0 0 0
0:00:00.00 627374 N 0 0 0
0:00:00.00 627727 N 0 0 0
0:00:00.00 628083 N 0 0 0
0:00:00.00 628436 N 0 0 0
0:00:00.00 628785 N 0 0 0
0:00:00.00 629132 N 0 0 0
0:00:00.00 629485 N 0 0 0
0:00:00.00 629863 N 0 0 0
0:00:00.00 630245 N 0 0 0
0:00:00.00 630626 N 0 0 0
0:00:00.00 630983 N 0 0 0
0:00:00.00 631341 N 0 0 0
0:00:00.00 631696 N 0 0 0
0:00:00.00 632065 N 0 0 0
0:00:00.00 632446 N 0 0 0
0:00:00.00 632813 N 0 0 0
0:00:00.00 633173 N 0 0 0
0:00:00.00 633528 N 0 0 0
0:00:00.00 633892 N 0 0 0
0:00:00.00 634280 N 0 0 0
0:00:00.00 634649 N 0 0 0
0:00:00.00 635011 N 0 0 0
0:00:00.00 635368 N 0 0 0
0:00:00.00 635729 N 0 0 0
0:00:00.00 636100 N 0 0 0
0:00:00.00 636484 N 0 0 0
0:00:00.00 636856 N 0 0 0
0:00:00.00 637218 N 0 0 0
0:00:00.00 637556 N 0 0 0
0:00:00.00 637898 N 0 0 0
0:00:00.00 638240 N 0 0 0
0:00:00.00 638590 N 0 0 0
0:00:00.00 638919 N 0 0 0
0:00:00.00 639256 N 0 0 0
0:00:00.00 639596 N 0 0 0
0:00:00.00 639947 N 0 0 0
0:00:00.00 640289 N 0 0 0
0:00:00.00 640651 N 0 0 0
0:00:00.00 641027 N 0 0 0
0:00:00.00 641398 N 0 0 0
0:00:00.00 641738 N 0 0 0
0:00:00.00 642074 N 0 0 0
0:00:00.00 642438 N 0 0 0
0:00:00.00 642814 N 0 0 0
0:00:00.00 643178 N 0 0 0
0:00:00.00 643543 N 0 0 0
0:00:00.00 643901 N 0 0 0
0:00:00.00 644269 N 0 0 0
0:00:00.00 644630 N 0 0 0
0:00:00.00 645014 N 0 0 0
0:00:00.00 645397 N 0 0 0
0:00:00.00 645750 N 0 0 0
0:00:00.00 646099 N 0 0 0
0:00:00.00 646452 N 0 0 0
0:00:00.00 646823 N 0 0 0
0:00:00.00 647195 N 0 0 0
0:00:00.00 647570 N 0 0 0
0:00:00.00 647935 N 0 0 0
0:00:00.00 648293 N 0 0 0
0:00:00.00 648648 N 0 0 0
0:00:00.00 649004 N 0 0 0
0:00:00.00 649373 N 0 0 0
0:00:00.00 649751 N 0 0 0
