0:00:00.00 117 N 0 0 0
0:00:00.00 410 N 0 0 0
0:00:00.00 697 N 0 0 0
0:00:00.00 989 N 0 0 0
0:00:00.00 1305 N 0 0 0
0:00:00.00 1614 N 0 0 0
0:00:00.00 1911 N 0 0 0
0:00:00.00 2202 N 0 0 0
0:00:00.00 2489 N 0 0 0
0:00:00.00 2783 N 0 0 0
0:00:00.00 3073 N 0 0 0
0:00:00.00 3373 N 0 0 0
0:00:00.00 3692 N 0 0 0
0:00:00.00 3998 N 0 0 0
0:00:00.00 4289 N 0 0 0
0:00:00.00 4579 N 0 0 0
0:00:00.00 4866 N 0 0 0
0:00:00.00 5164 N 0 0 0
0:00:00.00 5466 N 0 0 0
0:00:00.00 5768 N 0 0 0
0:00:00.00 6084 N 0 0 0
0:00:00.00 6381 N 0 0 0
0:00:00.00 6665 N 0 0 0
0:00:00.00 6951 N 0 0 0
0:00:00.00 7242 N 0 0 0
0:00:00.00 7549 N 0 0 0
0:00:00.00 7857 N 0 0 0
0:00:00.00 8161 N 0 0 0
0:00:00.00 8474 N 0 0 0
0:00:00.00 8764 N 0 0 0
0:00:00.00 9043 N 0 0 0
0:00:00.00 9333 N 0 0 0
0:00:00.00 9631 N 0 0 0
0:00:00.00 9940 N 0 0 0
0:00:00.00 10245 N 0 0 0
0:00:00.00 10543 N 0 0 0
0:00:00.00 10845 N 0 0 0
0:00:00.00 11131 N 0 0 0
0:00:00.00 11414 N 0 0 0
0:00:00.00 11710 N 0 0 0
0:00:00.00 12018 N 0 0 0
0:00:00.00 12331 N 0 0 0
0:00:00.00 12633 N 0 0 0
0:00:00.00 12927 N 0 0 0
0:00:00.00 13223 N 0 0 0
0:00:00.00 13512 N 0 0 0
0:00:00.00 13797 N 0 0 0
0:00:00.00 14098 N 0 0 0
0:00:00.00 14409 N 0 0 0
0:00:00.00 14718 N 0 0 0
0:00:00.00 15013 N 0 0 0
0:00:00.00 15301 N 0 0 0
0:00:00.00 15600 N 0 0 0
0:00:00.00 15890 N 0 0 0
0:00:00.00 16184 N 0 0 0
0:00:00.00 16492 N 0 0 0
0:00:00.00 16803 N 0 0 0
0:00:00.00 17108 N 0 0 0
0:00:00.00 17393 N 0 0 0
0:00:00.00 17680 N 0 0 0
0:00:00.00 17980 N 0 0 0
0:00:00.00 18274 N 0 0 0
0:00:00.00 18573 N 0 0 0
0:00:00.00 18879 N 0 0 0
0:00:00.00 19185 N 0 0 0
0:00:00.00 19480 N 0 0 0
0:00:00.00 19766 N 0 0 0
0:00:00.00 20055 N 0 0 0
0:00:00.00 20359 N 0 0 0
0:00:00.00 20663 N 0 0 0
0:00:00.00 20965 N 0 0 0
0:00:00.00 21268 N 0 0 0
0:00:00.00 21568 N 0 0 0
0:00:00.00 21857 N 0 0 0
0:00:00.00 22143 N 0 0 0
0:00:00.00 22435 N 0 0 0
0:00:00.00 22744 N 0 0 0
0:00:00.00 23050 N 0 0 0
0:00:00.00 23350 N 0 0 0
0:00:00.00 23647 N 0 0 0
0:00:00.00 23944 N 0 0 0
0:00:00.00 24234 N 0 0 0
0:00:00.00 24244 N 0 0 0
0:00:00.00 24522 N 0 0 0
0:00:00.00 24825 N 0 0 0
0:00:00.00 25138 N 0 0 0
0:00:00.00 25442 N 0 0 0
0:00:00.00 25737 N 0 0 0
0:00:00.00 26025 N 0 0 0
0:00:00.00 26317 N 0 0 0
0:00:00.00 26607 N 0 0 0
0:00:00.00 26899 N 0 0 0
0:00:00.00 27211 N 0 0 0
0:00:00.00 27225 N 0 0 0
0:00:00.00 27523 N 0 0 0
0:00:00.00 27821 N 0 0 0
0:00:00.00 28114 N 0 0 0
0:00:00.00 28402 N 0 0 0
0:00:00.00 28705 N 0 0 0
0:00:00.00 28705 N 0 0 0
0:00:00.00 28991 N 0 0 0
0:00:00.00 29583 N 0 0 0
0:00:00.00 29881 N 0 0 0
0:00:00.00 30158 N 0 0 0
0:00:00.00 30440 N 0 0 0
0:00:00.00 30717 N 0 0 0
0:00:00.00 30999 N 0 0 0
0:00:00.00 31290 N 0 0 0
0:00:00.00 31586 N 0 0 0
0:00:00.00 31882 N 0 0 0
0:00:00.00 32181 N 0 0 0
0:00:00.00 32466 N 0 0 0
0:00:00.00 32735 N 0 0 0
0:00:00.00 33010 N 0 0 0
0:00:00.00 33298 N 0 0 0
0:00:00.00 33596 N 0 0 0
0:00:00.00 33884 N 0 0 0
0:00:00.00 34041 N 0 0 0
0:00:00.00 34130 N 0 0 0
0:00:00.00 34375 N 0 0 0
0:00:00.00 34667 N 0 0 0
0:00:00.00 34950 N 0 0 0
0:00:00.00 35239 N 0 0 0
0:00:00.00 35537 N 0 0 0
0:00:00.00 35848 N 0 0 0
0:00:00.00 36153 N 0 0 0
0:00:00.00 36452 N 0 0 0
0:00:00.00 36755 N 0 0 0
0:00:00.00 37043 N 0 0 0
0:00:00.00 37326 N 0 0 0
0:00:00.00 37621 N 0 0 0
0:00:00.00 37637 N 0 0 0
0:00:00.00 37924 N 0 0 0
0:00:00.00 37934 N 0 0 0
0:00:00.00 38239 N 0 0 0
0:00:00.00 38239 N 0 0 0
0:00:00.00 38541 N 0 0 0
0:00:00.00 38825 N 0 0 0
0:00:00.00 39401 N 0 0 0
0:00:00.00 39683 N 0 0 0
0:00:00.00 39978 N 0 0 0
0:00:00.00 40281 N 0 0 0
0:00:00.00 40590 N 0 0 0
0:00:00.00 40880 N 0 0 0
0:00:00.00 41157 N 0 0 0
0:00:00.00 41450 N 0 0 0
0:00:00.00 41733 N 0 0 0
0:00:00.00 42014 N 0 0 0
0:00:00.00 42317 N 0 0 0
0:00:00.00 42617 N 0 0 0
0:00:00.00 42916 N 0 0 0
0:00:00.00 43204 N 0 0 0
0:00:00.00 43482 N 0 0 0
0:00:00.00 43768 N 0 0 0
0:00:00.00 44057 N 0 0 0
0:00:00.00 44352 N 0 0 0
0:00:00.00 44651 N 0 0 0
0:00:00.00 44946 N 0 0 0
0:00:00.00 45245 N 0 0 0
0:00:00.00 45522 N 0 0 0
0:00:00.00 45800 N 0 0 0
0:00:00.00 46089 N 0 0 0
0:00:00.00 46381 N 0 0 0
0:00:00.00 46680 N 0 0 0
0:00:00.00 46979 N 0 0 0
0:00:00.00 47269 N 0 0 0
0:00:00.00 47562 N 0 0 0
0:00:00.00 47841 N 0 0 0
0:00:00.00 48117 N 0 0 0
0:00:00.00 48406 N 0 0 0
0:00:00.00 48709 N 0 0 0
0:00:00.00 49004 N 0 0 0
0:00:00.00 49294 N 0 0 0
0:00:00.00 49580 N 0 0 0
0:00:00.00 49859 N 0 0 0
0:00:00.00 50143 N 0 0 0
0:00:00.00 50419 N 0 0 0
0:00:00.00 50702 N 0 0 0
0:00:00.00 51014 N 0 0 0
0:00:00.00 51314 N 0 0 0
0:00:00.00 51598 N 0 0 0
0:00:00.00 51883 N 0 0 0
0:00:00.00 52161 N 0 0 0
0:00:00.00 52442 N 0 0 0
0:00:00.00 52725 N 0 0 0
0:00:00.00 53012 N 0 0 0
0:00:00.00 53319 N 0 0 0
0:00:00.00 53615 N 0 0 0
0:00:00.00 53894 N 0 0 0
0:00:00.00 54175 N 0 0 0
0:00:00.00 54452 N 0 0 0
0:00:00.00 54733 N 0 0 0
0:00:00.00 55021 N 0 0 0
0:00:00.00 55316 N 0 0 0
0:00:00.00 55619 N 0 0 0
0:00:00.00 55912 N 0 0 0
0:00:00.00 56193 N 0 0 0
0:00:00.00 56470 N 0 0 0
0:00:00.00 56743 N 0 0 0
0:00:00.00 57035 N 0 0 0
0:00:00.00 57330 N 0 0 0
0:00:00.00 57622 N 0 0 0
0:00:00.00 57923 N 0 0 0
0:00:00.00 58216 N 0 0 0
0:00:00.00 58491 N 0 0 0
0:00:00.00 58766 N 0 0 0
0:00:00.00 59045 N 0 0 0
0:00:00.00 59337 N 0 0 0
0:00:00.00 59639 N 0 0 0
0:00:00.00 59934 N 0 0 0
0:00:00.00 60225 N 0 0 0
0:00:00.00 60516 N 0 0 0
0:00:00.00 60792 N 0 0 0
0:00:00.00 61063 N 0 0 0
0:00:00.00 61349 N 0 0 0
0:00:00.00 61648 N 0 0 0
0:00:00.00 61948 N 0 0 0
0:00:00.00 62243 N 0 0 0
0:00:00.00 62531 N 0 0 0
0:00:00.00 62826 N 0 0 0
0:00:00.00 63114 N 0 0 0
0:00:00.00 63126 N 0 0 0
0:00:00.00 63400 N 0 0 0
0:00:00.00 63419 N 0 0 0
0:00:00.00 63699 N 0 0 0
0:00:00.00 63719 N 0 0 0
0:00:00.00 64010 N 0 0 0
0:00:00.00 64323 N 0 0 0
0:00:00.00 64620 N 0 0 0
0:00:00.00 64908 N 0 0 0
0:00:00.00 65204 N 0 0 0
0:00:00.00 65494 N 0 0 0
0:00:00.00 65782 N 0 0 0
0:00:00.00 66085 N 0 0 0
0:00:00.00 66397 N 0 0 0
0:00:00.00 66702 N 0 0 0
0:00:00.00 66991 N 0 0 0
0:00:00.00 67001 N 0 0 0
0:00:00.00 67280 N 0 0 0
0:00:00.00 67578 N 0 0 0
0:00:00.00 67873 N 0 0 0
0:00:00.00 68173 N 0 0 0
0:00:00.00 68479 N 0 0 0
0:00:00.00 68788 N 0 0 0
0:00:00.00 69084 N 0 0 0
0:00:00.00 69368 N 0 0 0
0:00:00.00 69657 N 0 0 0
0:00:00.00 69955 N 0 0 0
0:00:00.00 70255 N 0 0 0
0:00:00.00 70557 N 0 0 0
0:00:00.00 70861 N 0 0 0
0:00:00.00 71164 N 0 0 0
0:00:00.00 71457 N 0 0 0
0:00:00.00 71743 N 0 0 0
0:00:00.00 72037 N 0 0 0
0:00:00.00 72343 N 0 0 0
0:00:00.00 72648 N 0 0 0
0:00:00.00 72950 N 0 0 0
0:00:00.00 73249 N 0 0 0
0:00:00.00 73544 N 0 0 0
0:00:00.00 73832 N 0 0 0
0:00:00.00 74118 N 0 0 0
0:00:00.00 74418 N 0 0 0
0:00:00.00 74431 N 0 0 0
0:00:00.00 74731 N 0 0 0
0:00:00.00 75033 N 0 0 0
0:00:00.00 75335 N 0 0 0
0:00:00.00 75355 N 0 0 0
0:00:00.00 75627 N 0 0 0
0:00:00.00 75921 N 0 0 0
0:00:00.00 76210 N 0 0 0
0:00:00.00 76501 N 0 0 0
0:00:00.00 76811 N 0 0 0
0:00:00.00 77120 N 0 0 0
0:00:00.00 77420 N 0 0 0
0:00:00.00 77714 N 0 0 0
0:00:00.00 78002 N 0 0 0
0:00:00.00 78296 N 0 0 0
0:00:00.00 78586 N 0 0 0
0:00:00.00 78884 N 0 0 0
0:00:00.00 79200 N 0 0 0
0:00:00.00 79508 N 0 0 0
0:00:00.00 79804 N 0 0 0
0:00:00.00 80095 N 0 0 0
0:00:00.00 80382 N 0 0 0
0:00:00.00 80679 N 0 0 0
0:00:00.00 80977 N 0 0 0
0:00:00.00 81278 N 0 0 0
0:00:00.00 81592 N 0 0 0
0:00:00.00 81895 N 0 0 0
0:00:00.00 82179 N 0 0 0
0:00:00.00 82468 N 0 0 0
0:00:00.00 82756 N 0 0 0
0:00:00.00 83062 N 0 0 0
0:00:00.00 83367 N 0 0 0
0:00:00.00 83669 N 0 0 0
0:00:00.00 83983 N 0 0 0
0:00:00.00 84278 N 0 0 0
0:00:00.00 84560 N 0 0 0
0:00:00.00 84848 N 0 0 0
0:00:00.00 85143 N 0 0 0
0:00:00.00 85453 N 0 0 0
0:00:00.00 85757 N 0 0 0
0:00:00.00 86055 N 0 0 0
0:00:00.00 86360 N 0 0 0
0:00:00.00 86650 N 0 0 0
0:00:00.00 86934 N 0 0 0
0:00:00.00 87227 N 0 0 0
0:00:00.00 87532 N 0 0 0
0:00:00.00 87847 N 0 0 0
0:00:00.00 88150 N 0 0 0
0:00:00.00 88443 N 0 0 0
0:00:00.00 88741 N 0 0 0
0:00:00.00 89030 N 0 0 0
0:00:00.00 89315 N 0 0 0
0:00:00.00 89612 N 0 0 0
0:00:00.00 89919 N 0 0 0
0:00:00.00 90234 N 0 0 0
0:00:00.00 90529 N 0 0 0
0:00:00.00 90815 N 0 0 0
0:00:00.00 91114 N 0 0 0
0:00:00.00 91406 N 0 0 0
0:00:00.00 91697 N 0 0 0
0:00:00.00 92004 N 0 0 0
0:00:00.00 92311 N 0 0 0
0:00:00.00 92619 N 0 0 0
0:00:00.00 92908 N 0 0 0
0:00:00.00 93190 N 0 0 0
0:00:00.00 93489 N 0 0 0
0:00:00.00 93782 N 0 0 0
0:00:00.00 94079 N 0 0 0
0:00:00.00 94387 N 0 0 0
0:00:00.00 94692 N 0 0 0
0:00:00.00 94992 N 0 0 0
0:00:00.00 95280 N 0 0 0
0:00:00.00 95566 N 0 0 0
0:00:00.00 95868 N 0 0 0
0:00:00.00 96171 N 0 0 0
0:00:00.00 96472 N 0 0 0
0:00:00.00 96776 N 0 0 0
0:00:00.00 97077 N 0 0 0
0:00:00.00 97369 N 0 0 0
0:00:00.00 97653 N 0 0 0
0:00:00.00 97941 N 0 0 0
0:00:00.00 98250 N 0 0 0
0:00:00.00 98559 N 0 0 0
0:00:00.00 98856 N 0 0 0
0:00:00.00 99156 N 0 0 0
0:00:00.00 99453 N 0 0 0
0:00:00.00 99744 N 0 0 0
0:00:00.00 100029 N 0 0 0
0:00:00.00 100328 N 0 0 0
0:00:00.00 100641 N 0 0 0
0:00:00.00 100945 N 0 0 0
0:00:00.00 101243 N 0 0 0
0:00:00.00 101533 N 0 0 0
0:00:00.00 101824 N 0 0 0
0:00:00.00 102114 N 0 0 0
0:00:00.00 102404 N 0 0 0
0:00:00.00 102712 N 0 0 0
0:00:00.00 103025 N 0 0 0
0:00:00.00 103328 N 0 0 0
0:00:00.00 103622 N 0 0 0
0:00:00.00 103910 N 0 0 0
0:00:00.00 104203 N 0 0 0
0:00:00.00 104496 N 0 0 0
0:00:00.00 104795 N 0 0 0
0:00:00.00 105106 N 0 0 0
0:00:00.00 105416 N 0 0 0
0:00:00.00 105710 N 0 0 0
0:00:00.00 105997 N 0 0 0
0:00:00.00 106282 N 0 0 0
0:00:00.00 106579 N 0 0 0
0:00:00.00 106880 N 0 0 0
0:00:00.00 107184 N 0 0 0
0:00:00.00 107497 N 0 0 0
0:00:00.00 107802 N 0 0 0
0:00:00.00 108088 N 0 0 0
0:00:00.00 108373 N 0 0 0
0:00:00.00 108663 N 0 0 0
0:00:00.00 108965 N 0 0 0
0:00:00.00 109269 N 0 0 0
0:00:00.00 109571 N 0 0 0
0:00:00.00 109881 N 0 0 0
0:00:00.00 110174 N 0 0 0
0:00:00.00 110458 N 0 0 0
0:00:00.00 110748 N 0 0 0
0:00:00.00 111042 N 0 0 0
0:00:00.00 111355 N 0 0 0
0:00:00.00 111662 N 0 0 0
0:00:00.00 111962 N 0 0 0
0:00:00.00 112265 N 0 0 0
0:00:00.00 112555 N 0 0 0
0:00:00.00 112838 N 0 0 0
0:00:00.00 113130 N 0 0 0
0:00:00.00 113431 N 0 0 0
0:00:00.00 113746 N 0 0 0
0:00:00.00 114051 N 0 0 0
0:00:00.00 114342 N 0 0 0
0:00:00.00 114641 N 0 0 0
0:00:00.00 114932 N 0 0 0
0:00:00.00 115218 N 0 0 0
0:00:00.00 115520 N 0 0 0
0:00:00.00 115829 N 0 0 0
0:00:00.00 116140 N 0 0 0
0:00:00.00 116437 N 0 0 0
0:00:00.00 116721 N 0 0 0
0:00:00.00 117018 N 0 0 0
0:00:00.00 117027 N 0 0 0
0:00:00.00 117309 N 0 0 0
0:00:00.00 117601 N 0 0 0
0:00:00.00 117906 N 0 0 0
0:00:00.00 118214 N 0 0 0
0:00:00.00 118521 N 0 0 0
0:00:00.00 118812 N 0 0 0
0:00:00.00 119096 N 0 0 0
0:00:00.00 119395 N 0 0 0
0:00:00.00 119693 N 0 0 0
0:00:00.00 119992 N 0 0 0
0:00:00.00 120299 N 0 0 0
0:00:00.00 120604 N 0 0 0
0:00:00.00 120904 N 0 0 0
0:00:00.00 121189 N 0 0 0
0:00:00.00 121473 N 0 0 0
0:00:00.00 121773 N 0 0 0
0:00:00.00 122076 N 0 0 0
0:00:00.00 122380 N 0 0 0
0:00:00.00 122684 N 0 0 0
0:00:00.00 122983 N 0 0 0
0:00:00.00 123282 N 0 0 0
0:00:00.00 123567 N 0 0 0
0:00:00.00 123853 N 0 0 0
0:00:00.00 124163 N 0 0 0
0:00:00.00 124469 N 0 0 0
0:00:00.00 124768 N 0 0 0
0:00:00.00 125066 N 0 0 0
0:00:00.00 125357 N 0 0 0
0:00:00.00 125648 N 0 0 0
0:00:00.00 125936 N 0 0 0
0:00:00.00 126229 N 0 0 0
0:00:00.00 126546 N 0 0 0
0:00:00.00 126853 N 0 0 0
0:00:00.00 127150 N 0 0 0
0:00:00.00 127444 N 0 0 0
0:00:00.00 127735 N 0 0 0
0:00:00.00 128027 N 0 0 0
0:00:00.00 128319 N 0 0 0
0:00:00.00 128622 N 0 0 0
0:00:00.00 128936 N 0 0 0
0:00:00.00 129239 N 0 0 0
0:00:00.00 129529 N 0 0 0
0:00:00.00 129815 N 0 0 0
0:00:00.00 130107 N 0 0 0
0:00:00.00 130401 N 0 0 0
0:00:00.00 130702 N 0 0 0
0:00:00.00 131011 N 0 0 0
0:00:00.00 131325 N 0 0 0
0:00:00.00 131624 N 0 0 0
0:00:00.00 131907 N 0 0 0
0:00:00.00 132193 N 0 0 0
0:00:00.00 132488 N 0 0 0
0:00:00.00 132789 N 0 0 0
0:00:00.00 133090 N 0 0 0
0:00:00.00 133399 N 0 0 0
0:00:00.00 133706 N 0 0 0
0:00:00.00 133993 N 0 0 0
0:00:00.00 134276 N 0 0 0
0:00:00.00 134566 N 0 0 0
0:00:00.00 134868 N 0 0 0
0:00:00.00 135176 N 0 0 0
0:00:00.00 135480 N 0 0 0
0:00:00.00 135787 N 0 0 0
0:00:00.00 136084 N 0 0 0
0:00:00.00 136366 N 0 0 0
0:00:00.00 136653 N 0 0 0
0:00:00.00 136946 N 0 0 0
0:00:00.00 137255 N 0 0 0
0:00:00.00 137564 N 0 0 0
0:00:00.00 137865 N 0 0 0
0:00:00.00 138165 N 0 0 0
0:00:00.00 138457 N 0 0 0
0:00:00.00 138742 N 0 0 0
0:00:00.00 139034 N 0 0 0
0:00:00.00 139337 N 0 0 0
0:00:00.00 139653 N 0 0 0
0:00:00.00 139958 N 0 0 0
0:00:00.00 140251 N 0 0 0
0:00:00.00 140547 N 0 0 0
0:00:00.00 140838 N 0 0 0
0:00:00.00 141122 N 0 0 0
0:00:00.00 141418 N 0 0 0
0:00:00.00 141724 N 0 0 0
0:00:00.00 142037 N 0 0 0
0:00:00.00 142336 N 0 0 0
0:00:00.00 142623 N 0 0 0
0:00:00.00 142920 N 0 0 0
0:00:00.00 143211 N 0 0 0
0:00:00.00 143505 N 0 0 0
0:00:00.00 143814 N 0 0 0
0:00:00.00 144119 N 0 0 0
0:00:00.00 144429 N 0 0 0
0:00:00.00 144719 N 0 0 0
0:00:00.00 145001 N 0 0 0
0:00:00.00 145298 N 0 0 0
0:00:00.00 145593 N 0 0 0
0:00:00.00 145892 N 0 0 0
0:00:00.00 146202 N 0 0 0
0:00:00.00 146507 N 0 0 0
0:00:00.00 146812 N 0 0 0
0:00:00.00 147098 N 0 0 0
0:00:00.00 147380 N 0 0 0
0:00:00.00 147683 N 0 0 0
0:00:00.00 147987 N 0 0 0
0:00:00.00 148288 N 0 0 0
0:00:00.00 148594 N 0 0 0
0:00:00.00 148892 N 0 0 0
0:00:00.00 149187 N 0 0 0
0:00:00.00 149471 N 0 0 0
0:00:00.00 149755 N 0 0 0
0:00:00.00 150066 N 0 0 0
0:00:00.00 150376 N 0 0 0
0:00:00.00 150677 N 0 0 0
0:00:00.00 150979 N 0 0 0
0:00:00.00 151271 N 0 0 0
0:00:00.00 151564 N 0 0 0
0:00:00.00 151849 N 0 0 0
0:00:00.00 152143 N 0 0 0
0:00:00.00 152459 N 0 0 0
0:00:00.00 152765 N 0 0 0
0:00:00.00 153062 N 0 0 0
0:00:00.00 153353 N 0 0 0
0:00:00.00 153641 N 0 0 0
0:00:00.00 153934 N 0 0 0
0:00:00.00 154227 N 0 0 0
0:00:00.00 154529 N 0 0 0
0:00:00.00 154849 N 0 0 0
0:00:00.00 155153 N 0 0 0
0:00:00.00 155444 N 0 0 0
0:00:00.00 155730 N 0 0 0
0:00:00.00 156020 N 0 0 0
0:00:00.00 156317 N 0 0 0
0:00:00.00 156615 N 0 0 0
0:00:00.00 156921 N 0 0 0
0:00:00.00 157237 N 0 0 0
0:00:00.00 157532 N 0 0 0
0:00:00.00 157813 N 0 0 0
0:00:00.00 158100 N 0 0 0
0:00:00.00 158394 N 0 0 0
0:00:00.00 158696 N 0 0 0
0:00:00.00 159002 N 0 0 0
0:00:00.00 159312 N 0 0 0
0:00:00.00 159618 N 0 0 0
0:00:00.00 159905 N 0 0 0
0:00:00.00 160188 N 0 0 0
0:00:00.00 160477 N 0 0 0
0:00:00.00 160779 N 0 0 0
0:00:00.00 161084 N 0 0 0
0:00:00.00 161387 N 0 0 0
0:00:00.00 161694 N 0 0 0
0:00:00.00 161992 N 0 0 0
0:00:00.00 162276 N 0 0 0
0:00:00.00 162563 N 0 0 0
0:00:00.00 162857 N 0 0 0
0:00:00.00 163170 N 0 0 0
0:00:00.00 163479 N 0 0 0
0:00:00.00 163777 N 0 0 0
0:00:00.00 164078 N 0 0 0
0:00:00.00 164370 N 0 0 0
0:00:00.00 164654 N 0 0 0
0:00:00.00 164943 N 0 0 0
0:00:00.00 165242 N 0 0 0
0:00:00.00 165557 N 0 0 0
0:00:00.00 165861 N 0 0 0
0:00:00.00 166153 N 0 0 0
0:00:00.00 166453 N 0 0 0
0:00:00.00 166745 N 0 0 0
0:00:00.00 167032 N 0 0 0
0:00:00.00 167332 N 0 0 0
0:00:00.00 167638 N 0 0 0
0:00:00.00 167949 N 0 0 0
0:00:00.00 168248 N 0 0 0
0:00:00.00 168532 N 0 0 0
0:00:00.00 168827 N 0 0 0
0:00:00.00 169118 N 0 0 0
0:00:00.00 169409 N 0 0 0
0:00:00.00 169715 N 0 0 0
0:00:00.00 170023 N 0 0 0
0:00:00.00 170332 N 0 0 0
0:00:00.00 170626 N 0 0 0
0:00:00.00 170909 N 0 0 0
0:00:00.00 171207 N 0 0 0
0:00:00.00 171503 N 0 0 0
0:00:00.00 171802 N 0 0 0
0:00:00.00 172109 N 0 0 0
0:00:00.00 172413 N 0 0 0
0:00:00.00 172716 N 0 0 0
0:00:00.00 173002 N 0 0 0
0:00:00.00 173285 N 0 0 0
0:00:00.00 173585 N 0 0 0
0:00:00.00 173887 N 0 0 0
0:00:00.00 174189 N 0 0 0
0:00:00.00 174495 N 0 0 0
0:00:00.00 174795 N 0 0 0
0:00:00.00 175090 N 0 0 0
0:00:00.00 175378 N 0 0 0
0:00:00.00 175663 N 0 0 0
0:00:00.00 175972 N 0 0 0
0:00:00.00 176277 N 0 0 0
0:00:00.00 176577 N 0 0 0
0:00:00.00 176878 N 0 0 0
0:00:00.00 177170 N 0 0 0
0:00:00.00 177461 N 0 0 0
0:00:00.00 177748 N 0 0 0
0:00:00.00 178043 N 0 0 0
0:00:00.00 178358 N 0 0 0
0:00:00.00 178668 N 0 0 0
0:00:00.00 178966 N 0 0 0
0:00:00.00 179260 N 0 0 0
0:00:00.00 179550 N 0 0 0
0:00:00.00 179842 N 0 0 0
0:00:00.00 180133 N 0 0 0
0:00:00.00 180434 N 0 0 0
0:00:00.00 180751 N 0 0 0
0:00:00.00 181056 N 0 0 0
0:00:00.00 181344 N 0 0 0
0:00:00.00 181631 N 0 0 0
0:00:00.00 181923 N 0 0 0
0:00:00.00 182218 N 0 0 0
0:00:00.00 182517 N 0 0 0
0:00:00.00 182829 N 0 0 0
0:00:00.00 183143 N 0 0 0
0:00:00.00 183440 N 0 0 0
0:00:00.00 183724 N 0 0 0
0:00:00.00 184010 N 0 0 0
0:00:00.00 184304 N 0 0 0
0:00:00.00 184603 N 0 0 0
0:00:00.00 184905 N 0 0 0
0:00:00.00 185215 N 0 0 0
0:00:00.00 185523 N 0 0 0
0:00:00.00 185810 N 0 0 0
0:00:00.00 186095 N 0 0 0
0:00:00.00 186384 N 0 0 0
0:00:00.00 186687 N 0 0 0
0:00:00.00 186995 N 0 0 0
0:00:00.00 187299 N 0 0 0
0:00:00.00 187607 N 0 0 0
0:00:00.00 187904 N 0 0 0
0:00:00.00 188187 N 0 0 0
0:00:00.00 188472 N 0 0 0
0:00:00.00 188764 N 0 0 0
0:00:00.00 189074 N 0 0 0
0:00:00.00 189382 N 0 0 0
0:00:00.00 189682 N 0 0 0
0:00:00.00 189984 N 0 0 0
0:00:00.00 190277 N 0 0 0
0:00:00.00 190561 N 0 0 0
0:00:00.00 190572 N 0 0 0
0:00:00.00 190852 N 0 0 0
0:00:00.00 191155 N 0 0 0
0:00:00.00 191469 N 0 0 0
0:00:00.00 191773 N 0 0 0
0:00:00.00 192065 N 0 0 0
0:00:00.00 192363 N 0 0 0
0:00:00.00 192652 N 0 0 0
0:00:00.00 192934 N 0 0 0
0:00:00.00 193233 N 0 0 0
0:00:00.00 193539 N 0 0 0
0:00:00.00 193853 N 0 0 0
0:00:00.00 194152 N 0 0 0
0:00:00.00 194440 N 0 0 0
0:00:00.00 194738 N 0 0 0
0:00:00.00 195030 N 0 0 0
0:00:00.00 195322 N 0 0 0
0:00:00.00 195627 N 0 0 0
0:00:00.00 195933 N 0 0 0
0:00:00.00 196244 N 0 0 0
0:00:00.00 196534 N 0 0 0
0:00:00.00 196814 N 0 0 0
0:00:00.00 197112 N 0 0 0
0:00:00.00 197408 N 0 0 0
0:00:00.00 197705 N 0 0 0
0:00:00.00 198012 N 0 0 0
0:00:00.00 198318 N 0 0 0
0:00:00.00 198622 N 0 0 0
0:00:00.00 198908 N 0 0 0
0:00:00.00 199193 N 0 0 0
0:00:00.00 199495 N 0 0 0
0:00:00.00 199795 N 0 0 0
0:00:00.00 200096 N 0 0 0
0:00:00.00 200400 N 0 0 0
0:00:00.00 200700 N 0 0 0
0:00:00.00 200993 N 0 0 0
0:00:00.00 201277 N 0 0 0
0:00:00.00 201567 N 0 0 0
0:00:00.00 201874 N 0 0 0
0:00:00.00 202181 N 0 0 0
0:00:00.00 202482 N 0 0 0
0:00:00.00 202783 N 0 0 0
0:00:00.00 203079 N 0 0 0
0:00:00.00 203370 N 0 0 0
0:00:00.00 203657 N 0 0 0
0:00:00.00 203952 N 0 0 0
0:00:00.00 204266 N 0 0 0
0:00:00.00 204570 N 0 0 0
0:00:00.00 204869 N 0 0 0
0:00:00.00 205160 N 0 0 0
0:00:00.00 205452 N 0 0 0
0:00:00.00 205744 N 0 0 0
0:00:00.00 206035 N 0 0 0
0:00:00.00 206342 N 0 0 0
0:00:00.00 206658 N 0 0 0
0:00:00.00 206962 N 0 0 0
0:00:00.00 207253 N 0 0 0
0:00:00.00 207541 N 0 0 0
0:00:00.00 207744 N 0 0 0
0:00:00.00 208044 N 0 0 0
0:00:00.00 208340 N 0 0 0
0:00:00.00 208645 N 0 0 0
0:00:00.00 208960 N 0 0 0
0:00:00.00 209260 N 0 0 0
0:00:00.00 209547 N 0 0 0
0:00:00.00 209834 N 0 0 0
0:00:00.00 210127 N 0 0 0
0:00:00.00 210427 N 0 0 0
0:00:00.00 210730 N 0 0 0
0:00:00.00 211039 N 0 0 0
0:00:00.00 211350 N 0 0 0
0:00:00.00 211643 N 0 0 0
0:00:00.00 211925 N 0 0 0
0:00:00.00 212211 N 0 0 0
0:00:00.00 212509 N 0 0 0
0:00:00.00 212813 N 0 0 0
0:00:00.00 213117 N 0 0 0
0:00:00.00 213424 N 0 0 0
0:00:00.00 213729 N 0 0 0
0:00:00.00 214017 N 0 0 0
0:00:00.00 214301 N 0 0 0
0:00:00.00 214591 N 0 0 0
0:00:00.00 214899 N 0 0 0
0:00:00.00 215209 N 0 0 0
0:00:00.00 215509 N 0 0 0
0:00:00.00 215814 N 0 0 0
0:00:00.00 216108 N 0 0 0
0:00:00.00 216391 N 0 0 0
0:00:00.00 216679 N 0 0 0
0:00:00.00 216974 N 0 0 0
0:00:00.00 217286 N 0 0 0
0:00:00.00 217594 N 0 0 0
0:00:00.00 217892 N 0 0 0
0:00:00.00 218191 N 0 0 0
0:00:00.00 218482 N 0 0 0
0:00:00.00 218768 N 0 0 0
0:00:00.00 219063 N 0 0 0
0:00:00.00 219369 N 0 0 0
0:00:00.00 219680 N 0 0 0
0:00:00.00 219985 N 0 0 0
0:00:00.00 220274 N 0 0 0
0:00:00.00 220566 N 0 0 0
0:00:00.00 220856 N 0 0 0
0:00:00.00 221145 N 0 0 0
0:00:00.00 221448 N 0 0 0
0:00:00.00 221757 N 0 0 0
0:00:00.00 222071 N 0 0 0
0:00:00.00 222367 N 0 0 0
0:00:00.00 222651 N 0 0 0
0:00:00.00 222948 N 0 0 0
0:00:00.00 223241 N 0 0 0
0:00:00.00 223536 N 0 0 0
0:00:00.00 223843 N 0 0 0
0:00:00.00 224149 N 0 0 0
0:00:00.00 224451 N 0 0 0
0:00:00.00 224739 N 0 0 0
0:00:00.00 225020 N 0 0 0
0:00:00.00 225321 N 0 0 0
0:00:00.00 225619 N 0 0 0
0:00:00.00 225922 N 0 0 0
0:00:00.00 226232 N 0 0 0
0:00:00.00 226534 N 0 0 0
0:00:00.00 226832 N 0 0 0
0:00:00.00 227115 N 0 0 0
0:00:00.00 227399 N 0 0 0
0:00:00.00 227705 N 0 0 0
0:00:00.00 228010 N 0 0 0
0:00:00.00 228312 N 0 0 0
0:00:00.00 228614 N 0 0 0
0:00:00.00 228909 N 0 0 0
0:00:00.00 229201 N 0 0 0
0:00:00.00 229487 N 0 0 0
0:00:00.00 229776 N 0 0 0
0:00:00.00 230092 N 0 0 0
0:00:00.00 230403 N 0 0 0
0:00:00.00 230698 N 0 0 0
0:00:00.00 230717 N 0 0 0
0:00:00.00 230996 N 0 0 0
0:00:00.00 231287 N 0 0 0
0:00:00.00 231578 N 0 0 0
0:00:00.00 231865 N 0 0 0
0:00:00.00 232164 N 0 0 0
0:00:00.00 232481 N 0 0 0
0:00:00.00 232786 N 0 0 0
0:00:00.00 233079 N 0 0 0
0:00:00.00 233367 N 0 0 0
0:00:00.00 233658 N 0 0 0
0:00:00.00 233951 N 0 0 0
0:00:00.00 234247 N 0 0 0
0:00:00.00 234556 N 0 0 0
0:00:00.00 234870 N 0 0 0
0:00:00.00 235169 N 0 0 0
0:00:00.00 235457 N 0 0 0
0:00:00.00 235743 N 0 0 0
0:00:00.00 236034 N 0 0 0
0:00:00.00 236331 N 0 0 0
0:00:00.00 236633 N 0 0 0
0:00:00.00 236942 N 0 0 0
0:00:00.00 237252 N 0 0 0
0:00:00.00 237545 N 0 0 0
0:00:00.00 237830 N 0 0 0
0:00:00.00 238118 N 0 0 0
0:00:00.00 238418 N 0 0 0
0:00:00.00 238725 N 0 0 0
0:00:00.00 239027 N 0 0 0
0:00:00.00 239337 N 0 0 0
0:00:00.00 239639 N 0 0 0
0:00:00.00 239923 N 0 0 0
0:00:00.00 240207 N 0 0 0
0:00:00.00 240496 N 0 0 0
0:00:00.00 240800 N 0 0 0
0:00:00.00 241109 N 0 0 0
0:00:00.00 241411 N 0 0 0
0:00:00.00 241717 N 0 0 0
0:00:00.00 242011 N 0 0 0
0:00:00.00 242295 N 0 0 0
0:00:00.00 242587 N 0 0 0
0:00:00.00 242885 N 0 0 0
0:00:00.00 243199 N 0 0 0
0:00:00.00 243503 N 0 0 0
0:00:00.00 243801 N 0 0 0
0:00:00.00 244099 N 0 0 0
0:00:00.00 244387 N 0 0 0
0:00:00.00 244672 N 0 0 0
0:00:00.00 244968 N 0 0 0
0:00:00.00 245274 N 0 0 0
0:00:00.00 245589 N 0 0 0
0:00:00.00 245893 N 0 0 0
0:00:00.00 246182 N 0 0 0
0:00:00.00 246479 N 0 0 0
0:00:00.00 246770 N 0 0 0
0:00:00.00 247057 N 0 0 0
0:00:00.00 247361 N 0 0 0
0:00:00.00 247668 N 0 0 0
0:00:00.00 247979 N 0 0 0
0:00:00.00 248273 N 0 0 0
0:00:00.00 248555 N 0 0 0
0:00:00.00 248855 N 0 0 0
0:00:00.00 249146 N 0 0 0
0:00:00.00 249441 N 0 0 0
0:00:00.00 249752 N 0 0 0
0:00:00.00 250059 N 0 0 0
0:00:00.00 250364 N 0 0 0
0:00:00.00 250653 N 0 0 0
0:00:00.00 250935 N 0 0 0
0:00:00.00 251235 N 0 0 0
0:00:00.00 251533 N 0 0 0
0:00:00.00 251834 N 0 0 0
0:00:00.00 252140 N 0 0 0
0:00:00.00 252442 N 0 0 0
0:00:00.00 252738 N 0 0 0
0:00:00.00 253022 N 0 0 0
0:00:00.00 253307 N 0 0 0
0:00:00.00 253614 N 0 0 0
0:00:00.00 253920 N 0 0 0
0:00:00.00 254225 N 0 0 0
0:00:00.00 254527 N 0 0 0
0:00:00.00 254823 N 0 0 0
0:00:00.00 255117 N 0 0 0
0:00:00.00 255401 N 0 0 0
0:00:00.00 255691 N 0 0 0
0:00:00.00 256003 N 0 0 0
0:00:00.00 256310 N 0 0 0
0:00:00.00 256606 N 0 0 0
0:00:00.00 256902 N 0 0 0
0:00:00.00 257195 N 0 0 0
0:00:00.00 257486 N 0 0 0
0:00:00.00 257774 N 0 0 0
0:00:00.00 258075 N 0 0 0
0:00:00.00 258393 N 0 0 0
0:00:00.00 258697 N 0 0 0
0:00:00.00 258990 N 0 0 0
0:00:00.00 259279 N 0 0 0
0:00:00.00 259571 N 0 0 0
0:00:00.00 259863 N 0 0 0
0:00:00.00 260156 N 0 0 0
0:00:00.00 260464 N 0 0 0
0:00:00.00 260776 N 0 0 0
0:00:00.00 261077 N 0 0 0
0:00:00.00 261367 N 0 0 0
0:00:00.00 261654 N 0 0 0
0:00:00.00 261950 N 0 0 0
0:00:00.00 262247 N 0 0 0
0:00:00.00 262548 N 0 0 0
0:00:00.00 262859 N 0 0 0
0:00:00.00 263168 N 0 0 0
0:00:00.00 263460 N 0 0 0
0:00:00.00 263743 N 0 0 0
0:00:00.00 264030 N 0 0 0
0:00:00.00 264329 N 0 0 0
0:00:00.00 264629 N 0 0 0
0:00:00.00 264931 N 0 0 0
0:00:00.00 265245 N 0 0 0
0:00:00.00 265546 N 0 0 0
0:00:00.00 265832 N 0 0 0
0:00:00.00 266122 N 0 0 0
0:00:00.00 266411 N 0 0 0
0:00:00.00 266717 N 0 0 0
0:00:00.00 267024 N 0 0 0
0:00:00.00 267323 N 0 0 0
0:00:00.00 267632 N 0 0 0
0:00:00.00 267923 N 0 0 0
0:00:00.00 268205 N 0 0 0
0:00:00.00 268495 N 0 0 0
0:00:00.00 268790 N 0 0 0
0:00:00.00 269104 N 0 0 0
0:00:00.00 269412 N 0 0 0
0:00:00.00 269710 N 0 0 0
0:00:00.00 270012 N 0 0 0
0:00:00.00 270302 N 0 0 0
0:00:00.00 270586 N 0 0 0
0:00:00.00 270882 N 0 0 0
0:00:00.00 271186 N 0 0 0
0:00:00.00 271500 N 0 0 0
0:00:00.00 271803 N 0 0 0
0:00:00.00 272092 N 0 0 0
0:00:00.00 272388 N 0 0 0
0:00:00.00 272677 N 0 0 0
0:00:00.00 272962 N 0 0 0
0:00:00.00 273265 N 0 0 0
0:00:00.00 273575 N 0 0 0
0:00:00.00 273886 N 0 0 0
0:00:00.00 274182 N 0 0 0
0:00:00.00 274468 N 0 0 0
0:00:00.00 274766 N 0 0 0
0:00:00.00 275056 N 0 0 0
0:00:00.00 275349 N 0 0 0
0:00:00.00 275656 N 0 0 0
0:00:00.00 275673 N 0 0 0
0:00:00.00 275963 N 0 0 0
0:00:00.00 276268 N 0 0 0
0:00:00.00 276554 N 0 0 0
0:00:00.00 276840 N 0 0 0
0:00:00.00 277139 N 0 0 0
0:00:00.00 277438 N 0 0 0
0:00:00.00 277741 N 0 0 0
0:00:00.00 278047 N 0 0 0
0:00:00.00 278355 N 0 0 0
0:00:00.00 278651 N 0 0 0
0:00:00.00 278935 N 0 0 0
0:00:00.00 279221 N 0 0 0
0:00:00.00 279526 N 0 0 0
0:00:00.00 279831 N 0 0 0
0:00:00.00 280129 N 0 0 0
0:00:00.00 280433 N 0 0 0
0:00:00.00 280732 N 0 0 0
0:00:00.00 281022 N 0 0 0
0:00:00.00 281308 N 0 0 0
0:00:00.00 281603 N 0 0 0
0:00:00.00 281915 N 0 0 0
0:00:00.00 282222 N 0 0 0
0:00:00.00 282521 N 0 0 0
0:00:00.00 282818 N 0 0 0
0:00:00.00 283111 N 0 0 0
0:00:00.00 283399 N 0 0 0
0:00:00.00 283685 N 0 0 0
0:00:00.00 283988 N 0 0 0
0:00:00.00 284302 N 0 0 0
0:00:00.00 284605 N 0 0 0
0:00:00.00 284902 N 0 0 0
0:00:00.00 285191 N 0 0 0
0:00:00.00 285486 N 0 0 0
0:00:00.00 285777 N 0 0 0
0:00:00.00 286072 N 0 0 0
0:00:00.00 286385 N 0 0 0
0:00:00.00 286695 N 0 0 0
0:00:00.00 286993 N 0 0 0
0:00:00.00 287284 N 0 0 0
0:00:00.00 287570 N 0 0 0
0:00:00.00 287864 N 0 0 0
0:00:00.00 288159 N 0 0 0
0:00:00.00 288457 N 0 0 0
0:00:00.00 288772 N 0 0 0
0:00:00.00 289080 N 0 0 0
0:00:00.00 289370 N 0 0 0
0:00:00.00 289659 N 0 0 0
0:00:00.00 289948 N 0 0 0
0:00:00.00 290248 N 0 0 0
0:00:00.00 290549 N 0 0 0
0:00:00.00 290849 N 0 0 0
0:00:00.00 291164 N 0 0 0
0:00:00.00 291462 N 0 0 0
0:00:00.00 291745 N 0 0 0
0:00:00.00 292033 N 0 0 0
0:00:00.00 292323 N 0 0 0
0:00:00.00 292628 N 0 0 0
0:00:00.00 292933 N 0 0 0
0:00:00.00 293237 N 0 0 0
0:00:00.00 293548 N 0 0 0
0:00:00.00 293839 N 0 0 0
0:00:00.00 294123 N 0 0 0
0:00:00.00 294413 N 0 0 0
0:00:00.00 294710 N 0 0 0
0:00:00.00 295023 N 0 0 0
0:00:00.00 295327 N 0 0 0
0:00:00.00 295623 N 0 0 0
0:00:00.00 295927 N 0 0 0
0:00:00.00 296215 N 0 0 0
0:00:00.00 296496 N 0 0 0
0:00:00.00 296790 N 0 0 0
0:00:00.00 297096 N 0 0 0
0:00:00.00 297410 N 0 0 0
0:00:00.00 297711 N 0 0 0
0:00:00.00 298006 N 0 0 0
0:00:00.00 298305 N 0 0 0
0:00:00.00 298592 N 0 0 0
0:00:00.00 298876 N 0 0 0
0:00:00.00 299178 N 0 0 0
0:00:00.00 299487 N 0 0 0
0:00:00.00 299795 N 0 0 0
0:00:00.00 300089 N 0 0 0
0:00:00.00 300378 N 0 0 0
0:00:00.00 300673 N 0 0 0
0:00:00.00 300962 N 0 0 0
0:00:00.00 301257 N 0 0 0
0:00:00.00 301565 N 0 0 0
0:00:00.00 301878 N 0 0 0
0:00:00.00 302181 N 0 0 0
0:00:00.00 302471 N 0 0 0
0:00:00.00 302760 N 0 0 0
0:00:00.00 303054 N 0 0 0
0:00:00.00 303348 N 0 0 0
0:00:00.00 303650 N 0 0 0
0:00:00.00 303955 N 0 0 0
0:00:00.00 304265 N 0 0 0
0:00:00.00 304559 N 0 0 0
0:00:00.00 304842 N 0 0 0
0:00:00.00 305137 N 0 0 0
0:00:00.00 305437 N 0 0 0
0:00:00.00 305737 N 0 0 0
0:00:00.00 306044 N 0 0 0
0:00:00.00 306348 N 0 0 0
0:00:00.00 306649 N 0 0 0
0:00:00.00 306936 N 0 0 0
0:00:00.00 307218 N 0 0 0
0:00:00.00 307517 N 0 0 0
0:00:00.00 307821 N 0 0 0
0:00:00.00 308123 N 0 0 0
0:00:00.00 308430 N 0 0 0
0:00:00.00 308727 N 0 0 0
0:00:00.00 309024 N 0 0 0
0:00:00.00 309312 N 0 0 0
0:00:00.00 309598 N 0 0 0
0:00:00.00 309907 N 0 0 0
0:00:00.00 310218 N 0 0 0
0:00:00.00 310519 N 0 0 0
0:00:00.00 310820 N 0 0 0
0:00:00.00 311109 N 0 0 0
0:00:00.00 311402 N 0 0 0
0:00:00.00 311690 N 0 0 0
0:00:00.00 311980 N 0 0 0
0:00:00.00 312297 N 0 0 0
0:00:00.00 312608 N 0 0 0
0:00:00.00 312904 N 0 0 0
0:00:00.00 313199 N 0 0 0
0:00:00.00 313488 N 0 0 0
0:00:00.00 313784 N 0 0 0
0:00:00.00 314075 N 0 0 0
0:00:00.00 314375 N 0 0 0
0:00:00.00 314695 N 0 0 0
0:00:00.00 314999 N 0 0 0
0:00:00.00 315288 N 0 0 0
0:00:00.00 315575 N 0 0 0
0:00:00.00 315862 N 0 0 0
0:00:00.00 316158 N 0 0 0
0:00:00.00 316457 N 0 0 0
0:00:00.00 316761 N 0 0 0
0:00:00.00 317079 N 0 0 0
0:00:00.00 317378 N 0 0 0
0:00:00.00 317663 N 0 0 0
0:00:00.00 317950 N 0 0 0
0:00:00.00 318242 N 0 0 0
0:00:00.00 318546 N 0 0 0
0:00:00.00 318852 N 0 0 0
0:00:00.00 319155 N 0 0 0
0:00:00.00 319465 N 0 0 0
0:00:00.00 319754 N 0 0 0
0:00:00.00 320034 N 0 0 0
0:00:00.00 320322 N 0 0 0
0:00:00.00 320623 N 0 0 0
0:00:00.00 320935 N 0 0 0
0:00:00.00 321240 N 0 0 0
0:00:00.00 321544 N 0 0 0
0:00:00.00 321844 N 0 0 0
0:00:00.00 322131 N 0 0 0
0:00:00.00 322412 N 0 0 0
0:00:00.00 322705 N 0 0 0
0:00:00.00 323016 N 0 0 0
0:00:00.00 323323 N 0 0 0
0:00:00.00 323625 N 0 0 0
0:00:00.00 323923 N 0 0 0
0:00:00.00 324214 N 0 0 0
0:00:00.00 324497 N 0 0 0
0:00:00.00 324788 N 0 0 0
0:00:00.00 325092 N 0 0 0
0:00:00.00 325407 N 0 0 0
0:00:00.00 325713 N 0 0 0
0:00:00.00 326006 N 0 0 0
0:00:00.00 326301 N 0 0 0
0:00:00.00 326591 N 0 0 0
0:00:00.00 326878 N 0 0 0
0:00:00.00 327177 N 0 0 0
0:00:00.00 327482 N 0 0 0
0:00:00.00 327796 N 0 0 0
0:00:00.00 328096 N 0 0 0
0:00:00.00 328378 N 0 0 0
0:00:00.00 328674 N 0 0 0
0:00:00.00 328969 N 0 0 0
0:00:00.00 329262 N 0 0 0
0:00:00.00 329570 N 0 0 0
0:00:00.00 329877 N 0 0 0
0:00:00.00 330187 N 0 0 0
0:00:00.00 330477 N 0 0 0
0:00:00.00 330757 N 0 0 0
0:00:00.00 331056 N 0 0 0
0:00:00.00 331353 N 0 0 0
0:00:00.00 331653 N 0 0 0
0:00:00.00 331958 N 0 0 0
0:00:00.00 332262 N 0 0 0
0:00:00.00 332563 N 0 0 0
0:00:00.00 332849 N 0 0 0
0:00:00.00 333133 N 0 0 0
0:00:00.00 333436 N 0 0 0
0:00:00.00 333740 N 0 0 0
0:00:00.00 334043 N 0 0 0
0:00:00.00 334347 N 0 0 0
0:00:00.00 334644 N 0 0 0
0:00:00.00 334938 N 0 0 0
0:00:00.00 335225 N 0 0 0
0:00:00.00 335510 N 0 0 0
0:00:00.00 335820 N 0 0 0
0:00:00.00 336127 N 0 0 0
0:00:00.00 336428 N 0 0 0
0:00:00.00 336728 N 0 0 0
0:00:00.00 337021 N 0 0 0
0:00:00.00 337317 N 0 0 0
0:00:00.00 337604 N 0 0 0
0:00:00.00 337900 N 0 0 0
0:00:00.00 338216 N 0 0 0
0:00:00.00 338521 N 0 0 0
0:00:00.00 338816 N 0 0 0
0:00:00.00 339107 N 0 0 0
0:00:00.00 339396 N 0 0 0
0:00:00.00 339686 N 0 0 0
0:00:00.00 339979 N 0 0 0
0:00:00.00 340283 N 0 0 0
0:00:00.00 340598 N 0 0 0
0:00:00.00 340902 N 0 0 0
0:00:00.00 341195 N 0 0 0
0:00:00.00 341484 N 0 0 0
0:00:00.00 341777 N 0 0 0
0:00:00.00 342071 N 0 0 0
0:00:00.00 342370 N 0 0 0
0:00:00.00 342680 N 0 0 0
0:00:00.00 342991 N 0 0 0
0:00:00.00 343286 N 0 0 0
0:00:00.00 343571 N 0 0 0
0:00:00.00 343856 N 0 0 0
0:00:00.00 344153 N 0 0 0
0:00:00.00 344454 N 0 0 0
0:00:00.00 344759 N 0 0 0
0:00:00.00 345071 N 0 0 0
0:00:00.00 345379 N 0 0 0
0:00:00.00 345665 N 0 0 0
0:00:00.00 345951 N 0 0 0
0:00:00.00 346238 N 0 0 0
0:00:00.00 346542 N 0 0 0
0:00:00.00 346847 N 0 0 0
0:00:00.00 347149 N 0 0 0
0:00:00.00 347459 N 0 0 0
0:00:00.00 347754 N 0 0 0
0:00:00.00 348038 N 0 0 0
0:00:00.00 348325 N 0 0 0
0:00:00.00 348619 N 0 0 0
0:00:00.00 348931 N 0 0 0
0:00:00.00 349238 N 0 0 0
0:00:00.00 349538 N 0 0 0
0:00:00.00 349843 N 0 0 0
0:00:00.00 350134 N 0 0 0
0:00:00.00 350415 N 0 0 0
0:00:00.00 350706 N 0 0 0
0:00:00.00 351009 N 0 0 0
0:00:00.00 351322 N 0 0 0
0:00:00.00 351625 N 0 0 0
0:00:00.00 351918 N 0 0 0
0:00:00.00 352214 N 0 0 0
0:00:00.00 352505 N 0 0 0
0:00:00.00 352792 N 0 0 0
0:00:00.00 353094 N 0 0 0
0:00:00.00 353402 N 0 0 0
0:00:00.00 353717 N 0 0 0
0:00:00.00 354014 N 0 0 0
0:00:00.00 354023 N 0 0 0
0:00:00.00 354298 N 0 0 0
0:00:00.00 354596 N 0 0 0
0:00:00.00 354885 N 0 0 0
0:00:00.00 355176 N 0 0 0
0:00:00.00 355481 N 0 0 0
0:00:00.00 355788 N 0 0 0
0:00:00.00 356095 N 0 0 0
0:00:00.00 356105 N 0 0 0
0:00:00.00 356385 N 0 0 0
0:00:00.00 356670 N 0 0 0
0:00:00.00 356969 N 0 0 0
0:00:00.00 357263 N 0 0 0
0:00:00.00 357562 N 0 0 0
0:00:00.00 357870 N 0 0 0
0:00:00.00 358176 N 0 0 0
0:00:00.00 358475 N 0 0 0
0:00:00.00 358761 N 0 0 0
0:00:00.00 359046 N 0 0 0
0:00:00.00 359346 N 0 0 0
0:00:00.00 359647 N 0 0 0
0:00:00.00 359948 N 0 0 0
0:00:00.00 360254 N 0 0 0
0:00:00.00 360557 N 0 0 0
0:00:00.00 360849 N 0 0 0
0:00:00.00 361135 N 0 0 0
0:00:00.00 361426 N 0 0 0
0:00:00.00 361734 N 0 0 0
0:00:00.00 362041 N 0 0 0
0:00:00.00 362340 N 0 0 0
0:00:00.00 362639 N 0 0 0
0:00:00.00 362936 N 0 0 0
0:00:00.00 363222 N 0 0 0
0:00:00.00 363507 N 0 0 0
0:00:00.00 363808 N 0 0 0
0:00:00.00 364119 N 0 0 0
0:00:00.00 364423 N 0 0 0
0:00:00.00 364725 N 0 0 0
0:00:00.00 365018 N 0 0 0
0:00:00.00 365312 N 0 0 0
0:00:00.00 365600 N 0 0 0
0:00:00.00 365889 N 0 0 0
0:00:00.00 366200 N 0 0 0
0:00:00.00 366509 N 0 0 0
0:00:00.00 366808 N 0 0 0
0:00:00.00 367104 N 0 0 0
0:00:00.00 367391 N 0 0 0
0:00:00.00 367684 N 0 0 0
0:00:00.00 367975 N 0 0 0
0:00:00.00 368272 N 0 0 0
0:00:00.00 368588 N 0 0 0
0:00:00.00 368898 N 0 0 0
0:00:00.00 369192 N 0 0 0
0:00:00.00 369483 N 0 0 0
0:00:00.00 369770 N 0 0 0
0:00:00.00 370068 N 0 0 0
0:00:00.00 370366 N 0 0 0
0:00:00.00 370667 N 0 0 0
0:00:00.00 370982 N 0 0 0
0:00:00.00 371285 N 0 0 0
0:00:00.00 371567 N 0 0 0
0:00:00.00 371855 N 0 0 0
0:00:00.00 371866 N 0 0 0
0:00:00.00 372145 N 0 0 0
0:00:00.00 372447 N 0 0 0
0:00:00.00 372754 N 0 0 0
0:00:00.00 373057 N 0 0 0
0:00:00.00 373371 N 0 0 0
0:00:00.00 373664 N 0 0 0
0:00:00.00 373946 N 0 0 0
0:00:00.00 374234 N 0 0 0
0:00:00.00 374529 N 0 0 0
0:00:00.00 374840 N 0 0 0
0:00:00.00 375142 N 0 0 0
0:00:00.00 375443 N 0 0 0
0:00:00.00 375749 N 0 0 0
0:00:00.00 376037 N 0 0 0
0:00:00.00 376320 N 0 0 0
0:00:00.00 376613 N 0 0 0
0:00:00.00 376917 N 0 0 0
0:00:00.00 377233 N 0 0 0
0:00:00.00 377536 N 0 0 0
0:00:00.00 377829 N 0 0 0
0:00:00.00 378129 N 0 0 0
0:00:00.00 378417 N 0 0 0
0:00:00.00 378700 N 0 0 0
0:00:00.00 378998 N 0 0 0
0:00:00.00 379306 N 0 0 0
0:00:00.00 379618 N 0 0 0
0:00:00.00 379914 N 0 0 0
0:00:00.00 380203 N 0 0 0
0:00:00.00 380502 N 0 0 0
0:00:00.00 380793 N 0 0 0
0:00:00.00 381084 N 0 0 0
0:00:00.00 381391 N 0 0 0
0:00:00.00 381701 N 0 0 0
0:00:00.00 382006 N 0 0 0
0:00:00.00 382295 N 0 0 0
0:00:00.00 382583 N 0 0 0
0:00:00.00 382878 N 0 0 0
0:00:00.00 383171 N 0 0 0
0:00:00.00 383469 N 0 0 0
0:00:00.00 383775 N 0 0 0
0:00:00.00 384084 N 0 0 0
0:00:00.00 384383 N 0 0 0
0:00:00.00 384394 N 0 0 0
0:00:00.00 384670 N 0 0 0
0:00:00.00 384961 N 0 0 0
0:00:00.00 385259 N 0 0 0
0:00:00.00 385269 N 0 0 0
0:00:00.00 385559 N 0 0 0
0:00:00.00 385863 N 0 0 0
0:00:00.00 386165 N 0 0 0
0:00:00.00 386472 N 0 0 0
0:00:00.00 386761 N 0 0 0
0:00:00.00 387043 N 0 0 0
0:00:00.00 387338 N 0 0 0
0:00:00.00 387641 N 0 0 0
0:00:00.00 387943 N 0 0 0
0:00:00.00 388249 N 0 0 0
0:00:00.00 388550 N 0 0 0
0:00:00.00 388848 N 0 0 0
0:00:00.00 389136 N 0 0 0
0:00:00.00 389420 N 0 0 0
0:00:00.00 389725 N 0 0 0
0:00:00.00 390032 N 0 0 0
0:00:00.00 390333 N 0 0 0
0:00:00.00 390637 N 0 0 0
0:00:00.00 390930 N 0 0 0
0:00:00.00 391222 N 0 0 0
0:00:00.00 391508 N 0 0 0
0:00:00.00 391796 N 0 0 0
0:00:00.00 392109 N 0 0 0
0:00:00.00 392420 N 0 0 0
0:00:00.00 392723 N 0 0 0
0:00:00.00 393021 N 0 0 0
0:00:00.00 393310 N 0 0 0
0:00:00.00 393602 N 0 0 0
0:00:00.00 393891 N 0 0 0
0:00:00.00 394187 N 0 0 0
0:00:00.00 394505 N 0 0 0
0:00:00.00 394813 N 0 0 0
0:00:00.00 395104 N 0 0 0
0:00:00.00 395391 N 0 0 0
0:00:00.00 395678 N 0 0 0
0:00:00.00 395977 N 0 0 0
0:00:00.00 396270 N 0 0 0
0:00:00.00 396575 N 0 0 0
0:00:00.00 396895 N 0 0 0
0:00:00.00 397197 N 0 0 0
0:00:00.00 397481 N 0 0 0
0:00:00.00 397767 N 0 0 0
0:00:00.00 398058 N 0 0 0
0:00:00.00 398358 N 0 0 0
0:00:00.00 398659 N 0 0 0
0:00:00.00 398965 N 0 0 0
0:00:00.00 399277 N 0 0 0
0:00:00.00 399569 N 0 0 0
0:00:00.00 399850 N 0 0 0
0:00:00.00 400137 N 0 0 0
0:00:00.00 400435 N 0 0 0
0:00:00.00 400745 N 0 0 0
0:00:00.00 401053 N 0 0 0
0:00:00.00 401357 N 0 0 0
0:00:00.00 401660 N 0 0 0
0:00:00.00 401947 N 0 0 0
0:00:00.00 402228 N 0 0 0
0:00:00.00 402518 N 0 0 0
0:00:00.00 402825 N 0 0 0
0:00:00.00 403135 N 0 0 0
0:00:00.00 403437 N 0 0 0
0:00:00.00 403738 N 0 0 0
0:00:00.00 404034 N 0 0 0
0:00:00.00 404318 N 0 0 0
0:00:00.00 404606 N 0 0 0
0:00:00.00 404904 N 0 0 0
0:00:00.00 405218 N 0 0 0
0:00:00.00 405525 N 0 0 0
0:00:00.00 405822 N 0 0 0
0:00:00.00 406118 N 0 0 0
0:00:00.00 406408 N 0 0 0
0:00:00.00 406692 N 0 0 0
0:00:00.00 406988 N 0 0 0
0:00:00.00 407293 N 0 0 0
0:00:00.00 407606 N 0 0 0
0:00:00.00 407911 N 0 0 0
0:00:00.00 408199 N 0 0 0
0:00:00.00 408494 N 0 0 0
0:00:00.00 408513 N 0 0 0
0:00:00.00 408786 N 0 0 0
0:00:00.00 409076 N 0 0 0
0:00:00.00 409382 N 0 0 0
0:00:00.00 409690 N 0 0 0
0:00:00.00 409999 N 0 0 0
0:00:00.00 410295 N 0 0 0
0:00:00.00 410577 N 0 0 0
0:00:00.00 410871 N 0 0 0
0:00:00.00 411167 N 0 0 0
0:00:00.00 411462 N 0 0 0
0:00:00.00 411770 N 0 0 0
0:00:00.00 412077 N 0 0 0
0:00:00.00 412383 N 0 0 0
0:00:00.00 412671 N 0 0 0
0:00:00.00 412954 N 0 0 0
0:00:00.00 413255 N 0 0 0
0:00:00.00 413555 N 0 0 0
0:00:00.00 413857 N 0 0 0
0:00:00.00 414164 N 0 0 0
0:00:00.00 414465 N 0 0 0
0:00:00.00 414760 N 0 0 0
0:00:00.00 414768 N 0 0 0
0:00:00.00 415042 N 0 0 0
0:00:00.00 415327 N 0 0 0
0:00:00.00 415635 N 0 0 0
0:00:00.00 415941 N 0 0 0
0:00:00.00 416244 N 0 0 0
0:00:00.00 416550 N 0 0 0
0:00:00.00 416844 N 0 0 0
0:00:00.00 417137 N 0 0 0
0:00:00.00 417423 N 0 0 0
0:00:00.00 417713 N 0 0 0
0:00:00.00 418028 N 0 0 0
0:00:00.00 418334 N 0 0 0
0:00:00.00 418632 N 0 0 0
0:00:00.00 418926 N 0 0 0
0:00:00.00 419218 N 0 0 0
0:00:00.00 419509 N 0 0 0
0:00:00.00 419798 N 0 0 0
0:00:00.00 420098 N 0 0 0
0:00:00.00 420417 N 0 0 0
0:00:00.00 420722 N 0 0 0
0:00:00.00 421013 N 0 0 0
0:00:00.00 421304 N 0 0 0
0:00:00.00 421594 N 0 0 0
0:00:00.00 421885 N 0 0 0
0:00:00.00 422181 N 0 0 0
0:00:00.00 422490 N 0 0 0
0:00:00.00 422802 N 0 0 0
0:00:00.00 423099 N 0 0 0
0:00:00.00 423387 N 0 0 0
0:00:00.00 423673 N 0 0 0
0:00:00.00 423970 N 0 0 0
0:00:00.00 424267 N 0 0 0
0:00:00.00 424569 N 0 0 0
0:00:00.00 424882 N 0 0 0
0:00:00.00 425190 N 0 0 0
0:00:00.00 425480 N 0 0 0
0:00:00.00 425767 N 0 0 0
0:00:00.00 426052 N 0 0 0
0:00:00.00 426352 N 0 0 0
0:00:00.00 426657 N 0 0 0
0:00:00.00 426957 N 0 0 0
0:00:00.00 427267 N 0 0 0
0:00:00.00 427568 N 0 0 0
0:00:00.00 427852 N 0 0 0
0:00:00.00 428140 N 0 0 0
0:00:00.00 428433 N 0 0 0
0:00:00.00 428742 N 0 0 0
0:00:00.00 429048 N 0 0 0
0:00:00.00 429347 N 0 0 0
0:00:00.00 429657 N 0 0 0
0:00:00.00 429947 N 0 0 0
0:00:00.00 430229 N 0 0 0
0:00:00.00 430519 N 0 0 0
0:00:00.00 430817 N 0 0 0
0:00:00.00 431128 N 0 0 0
0:00:00.00 431432 N 0 0 0
0:00:00.00 431729 N 0 0 0
0:00:00.00 432032 N 0 0 0
0:00:00.00 432319 N 0 0 0
0:00:00.00 432605 N 0 0 0
0:00:00.00 432900 N 0 0 0
0:00:00.00 433207 N 0 0 0
0:00:00.00 433521 N 0 0 0
0:00:00.00 433822 N 0 0 0
0:00:00.00 433832 N 0 0 0
0:00:00.00 434112 N 0 0 0
0:00:00.00 434409 N 0 0 0
0:00:00.00 434695 N 0 0 0
0:00:00.00 434983 N 0 0 0
0:00:00.00 435286 N 0 0 0
0:00:00.00 435595 N 0 0 0
0:00:00.00 435908 N 0 0 0
0:00:00.00 436202 N 0 0 0
0:00:00.00 436489 N 0 0 0
0:00:00.00 436787 N 0 0 0
0:00:00.00 437077 N 0 0 0
0:00:00.00 437371 N 0 0 0
0:00:00.00 437677 N 0 0 0
0:00:00.00 437985 N 0 0 0
0:00:00.00 438286 N 0 0 0
0:00:00.00 438573 N 0 0 0
0:00:00.00 438860 N 0 0 0
0:00:00.00 439158 N 0 0 0
0:00:00.00 439454 N 0 0 0
0:00:00.00 439756 N 0 0 0
0:00:00.00 440065 N 0 0 0
0:00:00.00 440372 N 0 0 0
0:00:00.00 440665 N 0 0 0
0:00:00.00 440951 N 0 0 0
0:00:00.00 441243 N 0 0 0
0:00:00.00 441544 N 0 0 0
0:00:00.00 441848 N 0 0 0
0:00:00.00 442151 N 0 0 0
0:00:00.00 442452 N 0 0 0
0:00:00.00 442754 N 0 0 0
0:00:00.00 443040 N 0 0 0
0:00:00.00 443324 N 0 0 0
0:00:00.00 443621 N 0 0 0
0:00:00.00 443635 N 0 0 0
0:00:00.00 443932 N 0 0 0
0:00:00.00 444238 N 0 0 0
0:00:00.00 444542 N 0 0 0
0:00:00.00 444838 N 0 0 0
0:00:00.00 445134 N 0 0 0
0:00:00.00 445420 N 0 0 0
0:00:00.00 445706 N 0 0 0
0:00:00.00 446015 N 0 0 0
0:00:00.00 446325 N 0 0 0
0:00:00.00 446625 N 0 0 0
0:00:00.00 446924 N 0 0 0
0:00:00.00 447213 N 0 0 0
0:00:00.00 447506 N 0 0 0
0:00:00.00 447795 N 0 0 0
0:00:00.00 448089 N 0 0 0
0:00:00.00 448405 N 0 0 0
0:00:00.00 448716 N 0 0 0
0:00:00.00 449013 N 0 0 0
0:00:00.00 449305 N 0 0 0
0:00:00.00 449591 N 0 0 0
0:00:00.00 449887 N 0 0 0
0:00:00.00 449904 N 0 0 0
0:00:00.00 450179 N 0 0 0
0:00:00.00 450480 N 0 0 0
0:00:00.00 450796 N 0 0 0
0:00:00.00 450807 N 0 0 0
0:00:00.00 451101 N 0 0 0
0:00:00.00 451390 N 0 0 0
0:00:00.00 451677 N 0 0 0
0:00:00.00 451966 N 0 0 0
0:00:00.00 452268 N 0 0 0
0:00:00.00 452570 N 0 0 0
0:00:00.00 452875 N 0 0 0
0:00:00.00 453189 N 0 0 0
0:00:00.00 453486 N 0 0 0
0:00:00.00 453767 N 0 0 0
0:00:00.00 454052 N 0 0 0
0:00:00.00 454344 N 0 0 0
0:00:00.00 454648 N 0 0 0
0:00:00.00 454953 N 0 0 0
0:00:00.00 455257 N 0 0 0
0:00:00.00 455565 N 0 0 0
0:00:00.00 455855 N 0 0 0
0:00:00.00 456137 N 0 0 0
0:00:00.00 456427 N 0 0 0
0:00:00.00 456729 N 0 0 0
0:00:00.00 457039 N 0 0 0
0:00:00.00 457344 N 0 0 0
0:00:00.00 457646 N 0 0 0
0:00:00.00 457943 N 0 0 0
0:00:00.00 458227 N 0 0 0
0:00:00.00 458513 N 0 0 0
0:00:00.00 458807 N 0 0 0
0:00:00.00 459118 N 0 0 0
0:00:00.00 459427 N 0 0 0
0:00:00.00 459728 N 0 0 0
0:00:00.00 460026 N 0 0 0
0:00:00.00 460319 N 0 0 0
0:00:00.00 460606 N 0 0 0
0:00:00.00 460898 N 0 0 0
0:00:00.00 461199 N 0 0 0
0:00:00.00 461514 N 0 0 0
0:00:00.00 461816 N 0 0 0
0:00:00.00 462108 N 0 0 0
0:00:00.00 462403 N 0 0 0
0:00:00.00 462693 N 0 0 0
0:00:00.00 462980 N 0 0 0
0:00:00.00 463281 N 0 0 0
0:00:00.00 463588 N 0 0 0
0:00:00.00 463901 N 0 0 0
0:00:00.00 464199 N 0 0 0
0:00:00.00 464484 N 0 0 0
0:00:00.00 464781 N 0 0 0
0:00:00.00 465073 N 0 0 0
0:00:00.00 465365 N 0 0 0
0:00:00.00 465673 N 0 0 0
0:00:00.00 465978 N 0 0 0
0:00:00.00 466285 N 0 0 0
0:00:00.00 466575 N 0 0 0
0:00:00.00 466857 N 0 0 0
0:00:00.00 467155 N 0 0 0
0:00:00.00 467452 N 0 0 0
0:00:00.00 467753 N 0 0 0
0:00:00.00 468062 N 0 0 0
0:00:00.00 468369 N 0 0 0
0:00:00.00 468669 N 0 0 0
0:00:00.00 468955 N 0 0 0
0:00:00.00 469238 N 0 0 0
0:00:00.00 469541 N 0 0 0
0:00:00.00 469845 N 0 0 0
0:00:00.00 470143 N 0 0 0
0:00:00.00 470447 N 0 0 0
0:00:00.00 470746 N 0 0 0
0:00:00.00 471037 N 0 0 0
0:00:00.00 471323 N 0 0 0
0:00:00.00 471613 N 0 0 0
0:00:00.00 471923 N 0 0 0
0:00:00.00 472230 N 0 0 0
0:00:00.00 472532 N 0 0 0
0:00:00.00 472831 N 0 0 0
0:00:00.00 473124 N 0 0 0
0:00:00.00 473416 N 0 0 0
0:00:00.00 473701 N 0 0 0
0:00:00.00 474000 N 0 0 0
0:00:00.00 474313 N 0 0 0
0:00:00.00 474619 N 0 0 0
0:00:00.00 474916 N 0 0 0
0:00:00.00 475206 N 0 0 0
0:00:00.00 475498 N 0 0 0
0:00:00.00 475792 N 0 0 0
0:00:00.00 476084 N 0 0 0
0:00:00.00 476392 N 0 0 0
0:00:00.00 476709 N 0 0 0
0:00:00.00 476721 N 0 0 0
0:00:00.00 477010 N 0 0 0
0:00:00.00 477299 N 0 0 0
0:00:00.00 477586 N 0 0 0
0:00:00.00 477879 N 0 0 0
0:00:00.00 478172 N 0 0 0
0:00:00.00 478471 N 0 0 0
0:00:00.00 478784 N 0 0 0
0:00:00.00 479093 N 0 0 0
0:00:00.00 479386 N 0 0 0
0:00:00.00 479675 N 0 0 0
0:00:00.00 479964 N 0 0 0
0:00:00.00 480261 N 0 0 0
0:00:00.00 480562 N 0 0 0
0:00:00.00 480866 N 0 0 0
0:00:00.00 481178 N 0 0 0
0:00:00.00 481479 N 0 0 0
0:00:00.00 481764 N 0 0 0
0:00:00.00 482051 N 0 0 0
0:00:00.00 482341 N 0 0 0
0:00:00.00 482645 N 0 0 0
0:00:00.00 482949 N 0 0 0
0:00:00.00 483250 N 0 0 0
0:00:00.00 483563 N 0 0 0
0:00:00.00 483856 N 0 0 0
0:00:00.00 484141 N 0 0 0
0:00:00.00 484431 N 0 0 0
0:00:00.00 484726 N 0 0 0
0:00:00.00 485039 N 0 0 0
0:00:00.00 485343 N 0 0 0
0:00:00.00 485641 N 0 0 0
0:00:00.00 485946 N 0 0 0
0:00:00.00 486233 N 0 0 0
0:00:00.00 486514 N 0 0 0
0:00:00.00 486805 N 0 0 0
0:00:00.00 487110 N 0 0 0
0:00:00.00 487423 N 0 0 0
0:00:00.00 487725 N 0 0 0
0:00:00.00 488021 N 0 0 0
0:00:00.00 488320 N 0 0 0
0:00:00.00 488607 N 0 0 0
0:00:00.00 488891 N 0 0 0
0:00:00.00 489190 N 0 0 0
0:00:00.00 489502 N 0 0 0
0:00:00.00 489809 N 0 0 0
0:00:00.00 490106 N 0 0 0
0:00:00.00 490396 N 0 0 0
0:00:00.00 490690 N 0 0 0
0:00:00.00 490977 N 0 0 0
0:00:00.00 491271 N 0 0 0
0:00:00.00 491576 N 0 0 0
0:00:00.00 491891 N 0 0 0
0:00:00.00 492196 N 0 0 0
0:00:00.00 492484 N 0 0 0
0:00:00.00 492774 N 0 0 0
0:00:00.00 493069 N 0 0 0
0:00:00.00 493360 N 0 0 0
0:00:00.00 493662 N 0 0 0
0:00:00.00 493968 N 0 0 0
0:00:00.00 494278 N 0 0 0
0:00:00.00 494572 N 0 0 0
0:00:00.00 494853 N 0 0 0
0:00:00.00 495148 N 0 0 0
0:00:00.00 495446 N 0 0 0
0:00:00.00 495746 N 0 0 0
0:00:00.00 496054 N 0 0 0
0:00:00.00 496360 N 0 0 0
0:00:00.00 496663 N 0 0 0
0:00:00.00 496949 N 0 0 0
0:00:00.00 497232 N 0 0 0
0:00:00.00 497531 N 0 0 0
0:00:00.00 497833 N 0 0 0
0:00:00.00 498135 N 0 0 0
0:00:00.00 498441 N 0 0 0
0:00:00.00 498740 N 0 0 0
0:00:00.00 499036 N 0 0 0
0:00:00.00 499322 N 0 0 0
0:00:00.00 499610 N 0 0 0
0:00:00.00 499917 N 0 0 0
0:00:00.00 500225 N 0 0 0
0:00:00.00 500529 N 0 0 0
0:00:00.00 500830 N 0 0 0
0:00:00.00 501121 N 0 0 0
0:00:00.00 501415 N 0 0 0
0:00:00.00 501700 N 0 0 0
0:00:00.00 501991 N 0 0 0
0:00:00.00 502307 N 0 0 0
0:00:00.00 502613 N 0 0 0
0:00:00.00 502909 N 0 0 0
0:00:00.00 503204 N 0 0 0
0:00:00.00 503213 N 0 0 0
0:00:00.00 503494 N 0 0 0
0:00:00.00 503787 N 0 0 0
0:00:00.00 504079 N 0 0 0
0:00:00.00 504380 N 0 0 0
0:00:00.00 504697 N 0 0 0
0:00:00.00 505001 N 0 0 0
0:00:00.00 505292 N 0 0 0
0:00:00.00 505310 N 0 0 0
0:00:00.00 505580 N 0 0 0
0:00:00.00 505870 N 0 0 0
0:00:00.00 506164 N 0 0 0
0:00:00.00 506175 N 0 0 0
0:00:00.00 506461 N 0 0 0
0:00:00.00 506769 N 0 0 0
0:00:00.00 507082 N 0 0 0
0:00:00.00 507381 N 0 0 0
0:00:00.00 507669 N 0 0 0
0:00:00.00 507955 N 0 0 0
0:00:00.00 508150 N 0 0 0
0:00:00.00 508240 N 0 0 0
0:00:00.00 508461 N 0 0 0
0:00:00.00 508761 N 0 0 0
0:00:00.00 509065 N 0 0 0
0:00:00.00 509380 N 0 0 0
0:00:00.00 509675 N 0 0 0
0:00:00.00 509956 N 0 0 0
0:00:00.00 510242 N 0 0 0
0:00:00.00 510537 N 0 0 0
0:00:00.00 510844 N 0 0 0
0:00:00.00 511148 N 0 0 0
0:00:00.00 511455 N 0 0 0
0:00:00.00 511764 N 0 0 0
0:00:00.00 512052 N 0 0 0
0:00:00.00 512335 N 0 0 0
0:00:00.00 512623 N 0 0 0
0:00:00.00 512927 N 0 0 0
0:00:00.00 513236 N 0 0 0
0:00:00.00 513537 N 0 0 0
0:00:00.00 513842 N 0 0 0
0:00:00.00 514136 N 0 0 0
0:00:00.00 514419 N 0 0 0
0:00:00.00 514706 N 0 0 0
0:00:00.00 515003 N 0 0 0
0:00:00.00 515315 N 0 0 0
0:00:00.00 515624 N 0 0 0
0:00:00.00 515925 N 0 0 0
0:00:00.00 516222 N 0 0 0
0:00:00.00 516515 N 0 0 0
0:00:00.00 516799 N 0 0 0
0:00:00.00 517093 N 0 0 0
0:00:00.00 517396 N 0 0 0
0:00:00.00 517710 N 0 0 0
0:00:00.00 518013 N 0 0 0
0:00:00.00 518302 N 0 0 0
0:00:00.00 518598 N 0 0 0
0:00:00.00 518888 N 0 0 0
0:00:00.00 519176 N 0 0 0
0:00:00.00 519479 N 0 0 0
0:00:00.00 519789 N 0 0 0
0:00:00.00 520100 N 0 0 0
0:00:00.00 520396 N 0 0 0
0:00:00.00 520680 N 0 0 0
0:00:00.00 520977 N 0 0 0
0:00:00.00 521267 N 0 0 0
0:00:00.00 521560 N 0 0 0
0:00:00.00 521868 N 0 0 0
0:00:00.00 522175 N 0 0 0
0:00:00.00 522481 N 0 0 0
0:00:00.00 522767 N 0 0 0
0:00:00.00 523051 N 0 0 0
0:00:00.00 523352 N 0 0 0
0:00:00.00 523650 N 0 0 0
0:00:00.00 523951 N 0 0 0
0:00:00.00 524257 N 0 0 0
0:00:00.00 524564 N 0 0 0
0:00:00.00 524860 N 0 0 0
0:00:00.00 525145 N 0 0 0
0:00:00.00 525430 N 0 0 0
0:00:00.00 525733 N 0 0 0
0:00:00.00 526037 N 0 0 0
0:00:00.00 526335 N 0 0 0
0:00:00.00 526639 N 0 0 0
0:00:00.00 526940 N 0 0 0
0:00:00.00 527231 N 0 0 0
0:00:00.00 527515 N 0 0 0
0:00:00.00 527812 N 0 0 0
0:00:00.00 528121 N 0 0 0
0:00:00.00 528427 N 0 0 0
0:00:00.00 528437 N 0 0 0
0:00:00.00 528729 N 0 0 0
0:00:00.00 529025 N 0 0 0
0:00:00.00 529320 N 0 0 0
0:00:00.00 529606 N 0 0 0
0:00:00.00 529891 N 0 0 0
0:00:00.00 530195 N 0 0 0
0:00:00.00 530506 N 0 0 0
0:00:00.00 530809 N 0 0 0
0:00:00.00 531110 N 0 0 0
0:00:00.00 531400 N 0 0 0
0:00:00.00 531694 N 0 0 0
0:00:00.00 531985 N 0 0 0
0:00:00.00 532278 N 0 0 0
0:00:00.00 532591 N 0 0 0
0:00:00.00 532901 N 0 0 0
0:00:00.00 533199 N 0 0 0
0:00:00.00 533493 N 0 0 0
0:00:00.00 533778 N 0 0 0
0:00:00.00 534073 N 0 0 0
0:00:00.00 534366 N 0 0 0
0:00:00.00 534665 N 0 0 0
0:00:00.00 534982 N 0 0 0
0:00:00.00 535290 N 0 0 0
0:00:00.00 535579 N 0 0 0
0:00:00.00 535868 N 0 0 0
0:00:00.00 536158 N 0 0 0
0:00:00.00 536454 N 0 0 0
0:00:00.00 536756 N 0 0 0
0:00:00.00 537057 N 0 0 0
0:00:00.00 537372 N 0 0 0
0:00:00.00 537668 N 0 0 0
0:00:00.00 537952 N 0 0 0
0:00:00.00 538240 N 0 0 0
0:00:00.00 538531 N 0 0 0
0:00:00.00 538836 N 0 0 0
0:00:00.00 539141 N 0 0 0
0:00:00.00 539447 N 0 0 0
0:00:00.00 539758 N 0 0 0
0:00:00.00 540050 N 0 0 0
0:00:00.00 540332 N 0 0 0
0:00:00.00 540620 N 0 0 0
0:00:00.00 540920 N 0 0 0
0:00:00.00 541229 N 0 0 0
0:00:00.00 541532 N 0 0 0
0:00:00.00 541835 N 0 0 0
0:00:00.00 542136 N 0 0 0
0:00:00.00 542423 N 0 0 0
0:00:00.00 542440 N 0 0 0
0:00:00.00 542704 N 0 0 0
0:00:00.00 542998 N 0 0 0
0:00:00.00 543308 N 0 0 0
0:00:00.00 543618 N 0 0 0
0:00:00.00 543920 N 0 0 0
0:00:00.00 544220 N 0 0 0
0:00:00.00 544515 N 0 0 0
0:00:00.00 544524 N 0 0 0
0:00:00.00 544799 N 0 0 0
0:00:00.00 545088 N 0 0 0
0:00:00.00 545388 N 0 0 0
0:00:00.00 545701 N 0 0 0
0:00:00.00 546005 N 0 0 0
0:00:00.00 546299 N 0 0 0
0:00:00.00 546594 N 0 0 0
0:00:00.00 546885 N 0 0 0
0:00:00.00 547172 N 0 0 0
0:00:00.00 547472 N 0 0 0
0:00:00.00 547781 N 0 0 0
0:00:00.00 548096 N 0 0 0
0:00:00.00 548394 N 0 0 0
0:00:00.00 548680 N 0 0 0
0:00:00.00 548974 N 0 0 0
0:00:00.00 549264 N 0 0 0
0:00:00.00 549557 N 0 0 0
0:00:00.00 549863 N 0 0 0
0:00:00.00 550169 N 0 0 0
0:00:00.00 550480 N 0 0 0
0:00:00.00 550771 N 0 0 0
0:00:00.00 551053 N 0 0 0
0:00:00.00 551352 N 0 0 0
0:00:00.00 551650 N 0 0 0
0:00:00.00 551948 N 0 0 0
0:00:00.00 552255 N 0 0 0
0:00:00.00 552559 N 0 0 0
0:00:00.00 552859 N 0 0 0
0:00:00.00 553144 N 0 0 0
0:00:00.00 553428 N 0 0 0
0:00:00.00 553729 N 0 0 0
0:00:00.00 554030 N 0 0 0
0:00:00.00 554330 N 0 0 0
0:00:00.00 554636 N 0 0 0
0:00:00.00 554937 N 0 0 0
0:00:00.00 555231 N 0 0 0
0:00:00.00 555517 N 0 0 0
0:00:00.00 555808 N 0 0 0
0:00:00.00 556114 N 0 0 0
0:00:00.00 556422 N 0 0 0
0:00:00.00 556723 N 0 0 0
0:00:00.00 557021 N 0 0 0
0:00:00.00 557318 N 0 0 0
0:00:00.00 557606 N 0 0 0
0:00:00.00 557891 N 0 0 0
0:00:00.00 558191 N 0 0 0
0:00:00.00 558501 N 0 0 0
0:00:00.00 558807 N 0 0 0
0:00:00.00 559108 N 0 0 0
0:00:00.00 559401 N 0 0 0
0:00:00.00 559695 N 0 0 0
0:00:00.00 559985 N 0 0 0
0:00:00.00 560272 N 0 0 0
0:00:00.00 560583 N 0 0 0
0:00:00.00 560894 N 0 0 0
0:00:00.00 561193 N 0 0 0
0:00:00.00 561489 N 0 0 0
0:00:00.00 561776 N 0 0 0
0:00:00.00 562068 N 0 0 0
0:00:00.00 562358 N 0 0 0
0:00:00.00 562655 N 0 0 0
0:00:00.00 562973 N 0 0 0
0:00:00.00 563282 N 0 0 0
0:00:00.00 563576 N 0 0 0
0:00:00.00 563866 N 0 0 0
0:00:00.00 564047 N 0 0 0
0:00:00.00 564351 N 0 0 0
0:00:00.00 564647 N 0 0 0
0:00:00.00 564949 N 0 0 0
0:00:00.00 565261 N 0 0 0
0:00:00.00 565568 N 0 0 0
0:00:00.00 565858 N 0 0 0
0:00:00.00 566144 N 0 0 0
0:00:00.00 566431 N 0 0 0
0:00:00.00 566733 N 0 0 0
0:00:00.00 567037 N 0 0 0
0:00:00.00 567341 N 0 0 0
0:00:00.00 567655 N 0 0 0
0:00:00.00 567954 N 0 0 0
0:00:00.00 568236 N 0 0 0
0:00:00.00 568524 N 0 0 0
0:00:00.00 568814 N 0 0 0
0:00:00.00 569120 N 0 0 0
0:00:00.00 569426 N 0 0 0
0:00:00.00 569726 N 0 0 0
0:00:00.00 570036 N 0 0 0
0:00:00.00 570325 N 0 0 0
0:00:00.00 570608 N 0 0 0
0:00:00.00 570900 N 0 0 0
0:00:00.00 571199 N 0 0 0
0:00:00.00 571513 N 0 0 0
0:00:00.00 571817 N 0 0 0
0:00:00.00 572116 N 0 0 0
0:00:00.00 572416 N 0 0 0
0:00:00.00 572704 N 0 0 0
0:00:00.00 572987 N 0 0 0
0:00:00.00 573281 N 0 0 0
0:00:00.00 573588 N 0 0 0
0:00:00.00 573901 N 0 0 0
0:00:00.00 574202 N 0 0 0
0:00:00.00 574493 N 0 0 0
0:00:00.00 574791 N 0 0 0
0:00:00.00 575081 N 0 0 0
0:00:00.00 575368 N 0 0 0
0:00:00.00 575672 N 0 0 0
0:00:00.00 575984 N 0 0 0
0:00:00.00 576291 N 0 0 0
0:00:00.00 576584 N 0 0 0
0:00:00.00 576875 N 0 0 0
0:00:00.00 577169 N 0 0 0
0:00:00.00 577457 N 0 0 0
0:00:00.00 577753 N 0 0 0
0:00:00.00 578060 N 0 0 0
0:00:00.00 578371 N 0 0 0
0:00:00.00 578672 N 0 0 0
0:00:00.00 578958 N 0 0 0
0:00:00.00 579251 N 0 0 0
0:00:00.00 579547 N 0 0 0
0:00:00.00 579840 N 0 0 0
0:00:00.00 580147 N 0 0 0
0:00:00.00 580454 N 0 0 0
0:00:00.00 580760 N 0 0 0
0:00:00.00 581051 N 0 0 0
0:00:00.00 581334 N 0 0 0
0:00:00.00 581628 N 0 0 0
0:00:00.00 581927 N 0 0 0
0:00:00.00 582228 N 0 0 0
0:00:00.00 582536 N 0 0 0
0:00:00.00 582841 N 0 0 0
0:00:00.00 583144 N 0 0 0
0:00:00.00 583430 N 0 0 0
0:00:00.00 583715 N 0 0 0
0:00:00.00 584017 N 0 0 0
0:00:00.00 584321 N 0 0 0
0:00:00.00 584623 N 0 0 0
0:00:00.00 584633 N 0 0 0
0:00:00.00 584926 N 0 0 0
0:00:00.00 585223 N 0 0 0
0:00:00.00 585516 N 0 0 0
0:00:00.00 585800 N 0 0 0
0:00:00.00 586086 N 0 0 0
0:00:00.00 586398 N 0 0 0
0:00:00.00 586706 N 0 0 0
0:00:00.00 587007 N 0 0 0
0:00:00.00 587306 N 0 0 0
0:00:00.00 587319 N 0 0 0
0:00:00.00 587599 N 0 0 0
0:00:00.00 587891 N 0 0 0
0:00:00.00 588177 N 0 0 0
0:00:00.00 588474 N 0 0 0
0:00:00.00 588788 N 0 0 0
0:00:00.00 589093 N 0 0 0
0:00:00.00 589390 N 0 0 0
0:00:00.00 589403 N 0 0 0
0:00:00.00 589680 N 0 0 0
0:00:00.00 589971 N 0 0 0
0:00:00.00 590263 N 0 0 0
0:00:00.00 590282 N 0 0 0
0:00:00.00 590556 N 0 0 0
0:00:00.00 590863 N 0 0 0
0:00:00.00 591179 N 0 0 0
0:00:00.00 591481 N 0 0 0
0:00:00.00 591771 N 0 0 0
0:00:00.00 592058 N 0 0 0
0:00:00.00 592352 N 0 0 0
0:00:00.00 592645 N 0 0 0
0:00:00.00 592942 N 0 0 0
0:00:00.00 593256 N 0 0 0
0:00:00.00 593565 N 0 0 0
0:00:00.00 593858 N 0 0 0
0:00:00.00 594145 N 0 0 0
0:00:00.00 594433 N 0 0 0
0:00:00.00 594730 N 0 0 0
0:00:00.00 595030 N 0 0 0
0:00:00.00 595333 N 0 0 0
0:00:00.00 595650 N 0 0 0
0:00:00.00 595950 N 0 0 0
0:00:00.00 596235 N 0 0 0
0:00:00.00 596523 N 0 0 0
0:00:00.00 596812 N 0 0 0
0:00:00.00 597114 N 0 0 0
0:00:00.00 597419 N 0 0 0
0:00:00.00 597721 N 0 0 0
0:00:00.00 598033 N 0 0 0
0:00:00.00 598326 N 0 0 0
0:00:00.00 598609 N 0 0 0
0:00:00.00 598899 N 0 0 0
0:00:00.00 599196 N 0 0 0
0:00:00.00 599510 N 0 0 0
0:00:00.00 599815 N 0 0 0
0:00:00.00 600114 N 0 0 0
0:00:00.00 600419 N 0 0 0
0:00:00.00 600704 N 0 0 0
0:00:00.00 600984 N 0 0 0
0:00:00.00 601276 N 0 0 0
0:00:00.00 601581 N 0 0 0
0:00:00.00 601891 N 0 0 0
0:00:00.00 602194 N 0 0 0
0:00:00.00 602492 N 0 0 0
0:00:00.00 602789 N 0 0 0
0:00:00.00 603076 N 0 0 0
0:00:00.00 603363 N 0 0 0
0:00:00.00 603662 N 0 0 0
0:00:00.00 603975 N 0 0 0
0:00:00.00 604284 N 0 0 0
0:00:00.00 604579 N 0 0 0
0:00:00.00 604872 N 0 0 0
0:00:00.00 605164 N 0 0 0
0:00:00.00 605451 N 0 0 0
0:00:00.00 605745 N 0 0 0
0:00:00.00 606050 N 0 0 0
0:00:00.00 606364 N 0 0 0
0:00:00.00 606671 N 0 0 0
0:00:00.00 606958 N 0 0 0
0:00:00.00 607250 N 0 0 0
0:00:00.00 607546 N 0 0 0
0:00:00.00 607837 N 0 0 0
0:00:00.00 608140 N 0 0 0
0:00:00.00 608447 N 0 0 0
0:00:00.00 608757 N 0 0 0
0:00:00.00 609050 N 0 0 0
0:00:00.00 609332 N 0 0 0
0:00:00.00 609627 N 0 0 0
0:00:00.00 609924 N 0 0 0
0:00:00.00 610527 N 0 0 0
0:00:00.00 610832 N 0 0 0
0:00:00.00 611136 N 0 0 0
0:00:00.00 611422 N 0 0 0
0:00:00.00 611705 N 0 0 0
0:00:00.00 612005 N 0 0 0
0:00:00.00 612307 N 0 0 0
0:00:00.00 612609 N 0 0 0
0:00:00.00 612915 N 0 0 0
0:00:00.00 613215 N 0 0 0
0:00:00.00 613510 N 0 0 0
0:00:00.00 613794 N 0 0 0
0:00:00.00 614079 N 0 0 0
0:00:00.00 614389 N 0 0 0
0:00:00.00 614695 N 0 0 0
0:00:00.00 614999 N 0 0 0
0:00:00.00 615301 N 0 0 0
0:00:00.00 615595 N 0 0 0
0:00:00.00 615888 N 0 0 0
0:00:00.00 616173 N 0 0 0
0:00:00.00 616466 N 0 0 0
0:00:00.00 616781 N 0 0 0
0:00:00.00 617087 N 0 0 0
0:00:00.00 617383 N 0 0 0
0:00:00.00 617676 N 0 0 0
0:00:00.00 617967 N 0 0 0
0:00:00.00 618257 N 0 0 0
0:00:00.00 618548 N 0 0 0
0:00:00.00 618855 N 0 0 0
0:00:00.00 619169 N 0 0 0
0:00:00.00 619471 N 0 0 0
0:00:00.00 619766 N 0 0 0
0:00:00.00 620053 N 0 0 0
0:00:00.00 620349 N 0 0 0
0:00:00.00 620637 N 0 0 0
0:00:00.00 620931 N 0 0 0
0:00:00.00 621245 N 0 0 0
0:00:00.00 621554 N 0 0 0
0:00:00.00 621850 N 0 0 0
0:00:00.00 622141 N 0 0 0
0:00:00.00 622428 N 0 0 0
0:00:00.00 622727 N 0 0 0
0:00:00.00 623024 N 0 0 0
0:00:00.00 623324 N 0 0 0
0:00:00.00 623641 N 0 0 0
0:00:00.00 623949 N 0 0 0
0:00:00.00 624238 N 0 0 0
0:00:00.00 624521 N 0 0 0
0:00:00.00 624807 N 0 0 0
0:00:00.00 625108 N 0 0 0
0:00:00.00 625409 N 0 0 0
0:00:00.00 625710 N 0 0 0
0:00:00.00 626027 N 0 0 0
0:00:00.00 626324 N 0 0 0
0:00:00.00 626607 N 0 0 0
0:00:00.00 626895 N 0 0 0
0:00:00.00 627188 N 0 0 0
0:00:00.00 627496 N 0 0 0
0:00:00.00 627801 N 0 0 0
0:00:00.00 628103 N 0 0 0
0:00:00.00 628410 N 0 0 0
0:00:00.00 628699 N 0 0 0
0:00:00.00 628979 N 0 0 0
0:00:00.00 629266 N 0 0 0
0:00:00.00 629568 N 0 0 0
0:00:00.00 629880 N 0 0 0
0:00:00.00 630186 N 0 0 0
0:00:00.00 630488 N 0 0 0
0:00:00.00 630785 N 0 0 0
0:00:00.00 631072 N 0 0 0
0:00:00.00 631358 N 0 0 0
0:00:00.00 631653 N 0 0 0
0:00:00.00 631964 N 0 0 0
0:00:00.00 632275 N 0 0 0
0:00:00.00 632573 N 0 0 0
0:00:00.00 632869 N 0 0 0
0:00:00.00 633162 N 0 0 0
0:00:00.00 633445 N 0 0 0
0:00:00.00 633736 N 0 0 0
0:00:00.00 634040 N 0 0 0
0:00:00.00 634354 N 0 0 0
0:00:00.00 634660 N 0 0 0
0:00:00.00 634952 N 0 0 0
0:00:00.00 635247 N 0 0 0
0:00:00.00 635537 N 0 0 0
0:00:00.00 635824 N 0 0 0
0:00:00.00 636128 N 0 0 0
0:00:00.00 636436 N 0 0 0
0:00:00.00 636747 N 0 0 0
0:00:00.00 637044 N 0 0 0
0:00:00.00 637326 N 0 0 0
0:00:00.00 637621 N 0 0 0
0:00:00.00 637914 N 0 0 0
0:00:00.00 638211 N 0 0 0
0:00:00.00 638520 N 0 0 0
0:00:00.00 638829 N 0 0 0
0:00:00.00 639136 N 0 0 0
0:00:00.00 639424 N 0 0 0
0:00:00.00 639706 N 0 0 0
0:00:00.00 640006 N 0 0 0
0:00:00.00 640305 N 0 0 0
0:00:00.00 640604 N 0 0 0
0:00:00.00 640911 N 0 0 0
0:00:00.00 641214 N 0 0 0
0:00:00.00 641512 N 0 0 0
0:00:00.00 641796 N 0 0 0
0:00:00.00 642081 N 0 0 0
0:00:00.00 642390 N 0 0 0
0:00:00.00 642695 N 0 0 0
0:00:00.00 642996 N 0 0 0
0:00:00.00 643301 N 0 0 0
0:00:00.00 643597 N 0 0 0
0:00:00.00 643888 N 0 0 0
0:00:00.00 644172 N 0 0 0
0:00:00.00 644463 N 0 0 0
0:00:00.00 644776 N 0 0 0
0:00:00.00 645082 N 0 0 0
0:00:00.00 645380 N 0 0 0
0:00:00.00 645678 N 0 0 0
0:00:00.00 645971 N 0 0 0
0:00:00.00 646261 N 0 0 0
0:00:00.00 646551 N 0 0 0
0:00:00.00 646853 N 0 0 0
0:00:00.00 647168 N 0 0 0
0:00:00.00 647472 N 0 0 0
0:00:00.00 647769 N 0 0 0
0:00:00.00 648056 N 0 0 0
0:00:00.00 648352 N 0 0 0
0:00:00.00 648641 N 0 0 0
0:00:00.00 648931 N 0 0 0
0:00:00.00 649244 N 0 0 0
0:00:00.00 649553 N 0 0 0
0:00:00.00 649852 N 0 0 0
