0:00:00.00 13 N 0 0 0
0:00:00.00 85 N 0 0 0
0:00:00.00 223 N 0 0 0
0:00:00.00 576 N 0 0 0
0:00:00.00 877 N 0 0 0
0:00:00.00 1183 N 0 0 0
0:00:00.00 1483 N 0 0 0
0:00:00.00 1796 N 0 0 0
0:00:00.00 2129 N 0 0 0
0:00:00.00 2444 N 0 0 0
0:00:00.00 2745 N 0 0 0
0:00:00.00 3046 N 0 0 0
0:00:00.00 3348 N 0 0 0
0:00:00.00 3649 N 0 0 0
0:00:00.00 3956 N 0 0 0
0:00:00.00 4284 N 0 0 0
0:00:00.00 4612 N 0 0 0
0:00:00.00 4939 N 0 0 0
0:00:00.00 5254 N 0 0 0
0:00:00.00 5582 N 0 0 0
0:00:00.00 5893 N 0 0 0
0:00:00.00 6217 N 0 0 0
0:00:00.00 6554 N 0 0 0
0:00:00.00 6874 N 0 0 0
0:00:00.00 7180 N 0 0 0
0:00:00.00 7483 N 0 0 0
0:00:00.00 7781 N 0 0 0
0:00:00.00 8098 N 0 0 0
0:00:00.00 8419 N 0 0 0
0:00:00.00 8739 N 0 0 0
0:00:00.00 9061 N 0 0 0
0:00:00.00 9362 N 0 0 0
0:00:00.00 9664 N 0 0 0
0:00:00.00 9965 N 0 0 0
0:00:00.00 10280 N 0 0 0
0:00:00.00 10598 N 0 0 0
0:00:00.00 10910 N 0 0 0
0:00:00.00 11225 N 0 0 0
0:00:00.00 11522 N 0 0 0
0:00:00.00 11804 N 0 0 0
0:00:00.00 12098 N 0 0 0
0:00:00.00 12395 N 0 0 0
0:00:00.00 12699 N 0 0 0
0:00:00.00 13001 N 0 0 0
0:00:00.00 13300 N 0 0 0
0:00:00.00 13599 N 0 0 0
0:00:00.00 13887 N 0 0 0
0:00:00.00 14170 N 0 0 0
0:00:00.00 14461 N 0 0 0
0:00:00.00 14771 N 0 0 0
0:00:00.00 15082 N 0 0 0
0:00:00.00 15383 N 0 0 0
0:00:00.00 15683 N 0 0 0
0:00:00.00 15979 N 0 0 0
0:00:00.00 16270 N 0 0 0
0:00:00.00 16576 N 0 0 0
0:00:00.00 16888 N 0 0 0
0:00:00.00 17221 N 0 0 0
0:00:00.00 17537 N 0 0 0
0:00:00.00 17838 N 0 0 0
0:00:00.00 18148 N 0 0 0
0:00:00.00 18446 N 0 0 0
0:00:00.00 18740 N 0 0 0
0:00:00.00 19049 N 0 0 0
0:00:00.00 19368 N 0 0 0
0:00:00.00 19688 N 0 0 0
0:00:00.00 19991 N 0 0 0
0:00:00.00 20288 N 0 0 0
0:00:00.00 20596 N 0 0 0
0:00:00.00 20894 N 0 0 0
0:00:00.00 21200 N 0 0 0
0:00:00.00 21519 N 0 0 0
0:00:00.00 21838 N 0 0 0
0:00:00.00 22136 N 0 0 0
0:00:00.00 22424 N 0 0 0
0:00:00.00 22729 N 0 0 0
0:00:00.00 23027 N 0 0 0
0:00:00.00 23328 N 0 0 0
0:00:00.00 23641 N 0 0 0
0:00:00.00 23956 N 0 0 0
0:00:00.00 24269 N 0 0 0
0:00:00.00 24563 N 0 0 0
0:00:00.00 24862 N 0 0 0
0:00:00.00 25166 N 0 0 0
0:00:00.00 25466 N 0 0 0
0:00:00.00 25774 N 0 0 0
0:00:00.00 26084 N 0 0 0
0:00:00.00 26390 N 0 0 0
0:00:00.00 26685 N 0 0 0
0:00:00.00 26975 N 0 0 0
0:00:00.00 27274 N 0 0 0
0:00:00.00 27576 N 0 0 0
0:00:00.00 27875 N 0 0 0
0:00:00.00 28188 N 0 0 0
0:00:00.00 28492 N 0 0 0
0:00:00.00 28784 N 0 0 0
0:00:00.00 29065 N 0 0 0
0:00:00.00 29345 N 0 0 0
0:00:00.00 29651 N 0 0 0
0:00:00.00 29956 N 0 0 0
0:00:00.00 30260 N 0 0 0
0:00:00.00 30575 N 0 0 0
0:00:00.00 30881 N 0 0 0
0:00:00.00 31183 N 0 0 0
0:00:00.00 31480 N 0 0 0
0:00:00.00 31793 N 0 0 0
0:00:00.00 32117 N 0 0 0
0:00:00.00 32438 N 0 0 0
0:00:00.00 32758 N 0 0 0
0:00:00.00 33066 N 0 0 0
0:00:00.00 33376 N 0 0 0
0:00:00.00 33680 N 0 0 0
0:00:00.00 33982 N 0 0 0
0:00:00.00 34310 N 0 0 0
0:00:00.00 34630 N 0 0 0
0:00:00.00 34940 N 0 0 0
0:00:00.00 35240 N 0 0 0
0:00:00.00 35541 N 0 0 0
0:00:00.00 35847 N 0 0 0
0:00:00.00 36155 N 0 0 0
0:00:00.00 36479 N 0 0 0
0:00:00.00 36805 N 0 0 0
0:00:00.00 37116 N 0 0 0
0:00:00.00 37418 N 0 0 0
0:00:00.00 37719 N 0 0 0
0:00:00.00 38027 N 0 0 0
0:00:00.00 38333 N 0 0 0
0:00:00.00 38648 N 0 0 0
0:00:00.00 38975 N 0 0 0
0:00:00.00 39285 N 0 0 0
0:00:00.00 39578 N 0 0 0
0:00:00.00 39874 N 0 0 0
0:00:00.00 40178 N 0 0 0
0:00:00.00 40482 N 0 0 0
0:00:00.00 40790 N 0 0 0
0:00:00.00 41107 N 0 0 0
0:00:00.00 41414 N 0 0 0
0:00:00.00 41708 N 0 0 0
0:00:00.00 41998 N 0 0 0
0:00:00.00 42287 N 0 0 0
0:00:00.00 42592 N 0 0 0
0:00:00.00 42903 N 0 0 0
0:00:00.00 43204 N 0 0 0
0:00:00.00 43522 N 0 0 0
0:00:00.00 43828 N 0 0 0
0:00:00.00 44114 N 0 0 0
0:00:00.00 44404 N 0 0 0
0:00:00.00 44705 N 0 0 0
0:00:00.00 45016 N 0 0 0
0:00:00.00 45324 N 0 0 0
0:00:00.00 45630 N 0 0 0
0:00:00.00 45931 N 0 0 0
0:00:00.00 46217 N 0 0 0
0:00:00.00 46498 N 0 0 0
0:00:00.00 46784 N 0 0 0
0:00:00.00 47092 N 0 0 0
0:00:00.00 47392 N 0 0 0
0:00:00.00 47684 N 0 0 0
0:00:00.00 47979 N 0 0 0
0:00:00.00 48263 N 0 0 0
0:00:00.00 48542 N 0 0 0
0:00:00.00 48827 N 0 0 0
0:00:00.00 49115 N 0 0 0
0:00:00.00 49423 N 0 0 0
0:00:00.00 49729 N 0 0 0
0:00:00.00 50026 N 0 0 0
0:00:00.00 50326 N 0 0 0
0:00:00.00 50620 N 0 0 0
0:00:00.00 50908 N 0 0 0
0:00:00.00 51212 N 0 0 0
0:00:00.00 51520 N 0 0 0
0:00:00.00 51842 N 0 0 0
0:00:00.00 52150 N 0 0 0
0:00:00.00 52447 N 0 0 0
0:00:00.00 52751 N 0 0 0
0:00:00.00 53046 N 0 0 0
0:00:00.00 53338 N 0 0 0
0:00:00.00 53642 N 0 0 0
0:00:00.00 53953 N 0 0 0
0:00:00.00 54257 N 0 0 0
0:00:00.00 54551 N 0 0 0
0:00:00.00 54841 N 0 0 0
0:00:00.00 55127 N 0 0 0
0:00:00.00 55411 N 0 0 0
0:00:00.00 55706 N 0 0 0
0:00:00.00 56007 N 0 0 0
0:00:00.00 56306 N 0 0 0
0:00:00.00 56590 N 0 0 0
0:00:00.00 56866 N 0 0 0
0:00:00.00 57148 N 0 0 0
0:00:00.00 57440 N 0 0 0
0:00:00.00 57739 N 0 0 0
0:00:00.00 58054 N 0 0 0
0:00:00.00 58378 N 0 0 0
0:00:00.00 58703 N 0 0 0
0:00:00.00 59026 N 0 0 0
0:00:00.00 59344 N 0 0 0
0:00:00.00 59661 N 0 0 0
0:00:00.00 59978 N 0 0 0
0:00:00.00 60296 N 0 0 0
0:00:00.00 60624 N 0 0 0
0:00:00.00 60943 N 0 0 0
0:00:00.00 61247 N 0 0 0
0:00:00.00 61538 N 0 0 0
0:00:00.00 61848 N 0 0 0
0:00:00.00 62161 N 0 0 0
0:00:00.00 62474 N 0 0 0
0:00:00.00 62793 N 0 0 0
0:00:00.00 63108 N 0 0 0
0:00:00.00 63414 N 0 0 0
0:00:00.00 63711 N 0 0 0
0:00:00.00 64024 N 0 0 0
0:00:00.00 64357 N 0 0 0
0:00:00.00 64683 N 0 0 0
0:00:00.00 65014 N 0 0 0
0:00:00.00 65329 N 0 0 0
0:00:00.00 65641 N 0 0 0
0:00:00.00 65941 N 0 0 0
0:00:00.00 66240 N 0 0 0
0:00:00.00 66573 N 0 0 0
0:00:00.00 66897 N 0 0 0
0:00:00.00 67212 N 0 0 0
0:00:00.00 67525 N 0 0 0
0:00:00.00 67831 N 0 0 0
0:00:00.00 68137 N 0 0 0
0:00:00.00 68443 N 0 0 0
0:00:00.00 68774 N 0 0 0
0:00:00.00 69104 N 0 0 0
0:00:00.00 69428 N 0 0 0
0:00:00.00 69741 N 0 0 0
0:00:00.00 70052 N 0 0 0
0:00:00.00 70366 N 0 0 0
0:00:00.00 70681 N 0 0 0
0:00:00.00 71012 N 0 0 0
0:00:00.00 71347 N 0 0 0
0:00:00.00 71672 N 0 0 0
0:00:00.00 71982 N 0 0 0
0:00:00.00 72288 N 0 0 0
0:00:00.00 72598 N 0 0 0
0:00:00.00 72907 N 0 0 0
0:00:00.00 73229 N 0 0 0
0:00:00.00 73561 N 0 0 0
0:00:00.00 73868 N 0 0 0
0:00:00.00 74167 N 0 0 0
0:00:00.00 74461 N 0 0 0
0:00:00.00 74767 N 0 0 0
0:00:00.00 75073 N 0 0 0
0:00:00.00 75380 N 0 0 0
0:00:00.00 75704 N 0 0 0
0:00:00.00 76012 N 0 0 0
0:00:00.00 76300 N 0 0 0
0:00:00.00 76594 N 0 0 0
0:00:00.00 76892 N 0 0 0
0:00:00.00 77195 N 0 0 0
0:00:00.00 77503 N 0 0 0
0:00:00.00 77814 N 0 0 0
0:00:00.00 78125 N 0 0 0
0:00:00.00 78417 N 0 0 0
0:00:00.00 78700 N 0 0 0
0:00:00.00 78986 N 0 0 0
0:00:00.00 79290 N 0 0 0
0:00:00.00 79594 N 0 0 0
0:00:00.00 79897 N 0 0 0
0:00:00.00 80206 N 0 0 0
0:00:00.00 80507 N 0 0 0
0:00:00.00 80793 N 0 0 0
0:00:00.00 81086 N 0 0 0
0:00:00.00 81374 N 0 0 0
0:00:00.00 81689 N 0 0 0
0:00:00.00 81995 N 0 0 0
0:00:00.00 82292 N 0 0 0
0:00:00.00 82606 N 0 0 0
0:00:00.00 82904 N 0 0 0
0:00:00.00 83189 N 0 0 0
0:00:00.00 83486 N 0 0 0
0:00:00.00 83788 N 0 0 0
0:00:00.00 84103 N 0 0 0
0:00:00.00 84404 N 0 0 0
0:00:00.00 84699 N 0 0 0
0:00:00.00 84992 N 0 0 0
0:00:00.00 85275 N 0 0 0
0:00:00.00 85549 N 0 0 0
0:00:00.00 85837 N 0 0 0
0:00:00.00 86139 N 0 0 0
0:00:00.00 86441 N 0 0 0
0:00:00.00 86735 N 0 0 0
0:00:00.00 87025 N 0 0 0
0:00:00.00 87313 N 0 0 0
0:00:00.00 87592 N 0 0 0
0:00:00.00 87872 N 0 0 0
0:00:00.00 88168 N 0 0 0
0:00:00.00 88470 N 0 0 0
0:00:00.00 88771 N 0 0 0
0:00:00.00 89057 N 0 0 0
0:00:00.00 89341 N 0 0 0
0:00:00.00 89629 N 0 0 0
0:00:00.00 89908 N 0 0 0
0:00:00.00 90196 N 0 0 0
0:00:00.00 90497 N 0 0 0
0:00:00.00 90803 N 0 0 0
0:00:00.00 91105 N 0 0 0
0:00:00.00 91390 N 0 0 0
0:00:00.00 91674 N 0 0 0
0:00:00.00 91967 N 0 0 0
0:00:00.00 92252 N 0 0 0
0:00:00.00 92551 N 0 0 0
0:00:00.00 92853 N 0 0 0
0:00:00.00 93154 N 0 0 0
0:00:00.00 93442 N 0 0 0
0:00:00.00 93721 N 0 0 0
0:00:00.00 94005 N 0 0 0
0:00:00.00 94289 N 0 0 0
0:00:00.00 94576 N 0 0 0
0:00:00.00 94876 N 0 0 0
0:00:00.00 95166 N 0 0 0
0:00:00.00 95456 N 0 0 0
0:00:00.00 95724 N 0 0 0
0:00:00.00 95980 N 0 0 0
0:00:00.00 96239 N 0 0 0
0:00:00.00 96511 N 0 0 0
0:00:00.00 96790 N 0 0 0
0:00:00.00 97079 N 0 0 0
0:00:00.00 97376 N 0 0 0
0:00:00.00 97673 N 0 0 0
0:00:00.00 97972 N 0 0 0
0:00:00.00 98257 N 0 0 0
0:00:00.00 98557 N 0 0 0
0:00:00.00 98883 N 0 0 0
0:00:00.00 99191 N 0 0 0
0:00:00.00 99497 N 0 0 0
0:00:00.00 99806 N 0 0 0
0:00:00.00 100109 N 0 0 0
0:00:00.00 100402 N 0 0 0
0:00:00.00 100690 N 0 0 0
0:00:00.00 101005 N 0 0 0
0:00:00.00 101327 N 0 0 0
0:00:00.00 101644 N 0 0 0
0:00:00.00 101961 N 0 0 0
0:00:00.00 102274 N 0 0 0
0:00:00.00 102580 N 0 0 0
0:00:00.00 102886 N 0 0 0
0:00:00.00 103203 N 0 0 0
0:00:00.00 103529 N 0 0 0
0:00:00.00 103847 N 0 0 0
0:00:00.00 104166 N 0 0 0
0:00:00.00 104476 N 0 0 0
0:00:00.00 104791 N 0 0 0
0:00:00.00 105097 N 0 0 0
0:00:00.00 105417 N 0 0 0
0:00:00.00 105759 N 0 0 0
0:00:00.00 106083 N 0 0 0
0:00:00.00 106400 N 0 0 0
0:00:00.00 106706 N 0 0 0
0:00:00.00 107021 N 0 0 0
0:00:00.00 107336 N 0 0 0
0:00:00.00 107654 N 0 0 0
0:00:00.00 107995 N 0 0 0
0:00:00.00 108320 N 0 0 0
0:00:00.00 108619 N 0 0 0
0:00:00.00 108923 N 0 0 0
0:00:00.00 109229 N 0 0 0
0:00:00.00 109537 N 0 0 0
0:00:00.00 109849 N 0 0 0
0:00:00.00 110173 N 0 0 0
0:00:00.00 110491 N 0 0 0
0:00:00.00 110794 N 0 0 0
0:00:00.00 111091 N 0 0 0
0:00:00.00 111389 N 0 0 0
0:00:00.00 111706 N 0 0 0
0:00:00.00 112023 N 0 0 0
0:00:00.00 112342 N 0 0 0
0:00:00.00 112660 N 0 0 0
0:00:00.00 112963 N 0 0 0
0:00:00.00 113260 N 0 0 0
0:00:00.00 113560 N 0 0 0
0:00:00.00 113879 N 0 0 0
0:00:00.00 114205 N 0 0 0
0:00:00.00 114527 N 0 0 0
0:00:00.00 114860 N 0 0 0
0:00:00.00 115177 N 0 0 0
0:00:00.00 115479 N 0 0 0
0:00:00.00 115783 N 0 0 0
0:00:00.00 116096 N 0 0 0
0:00:00.00 116419 N 0 0 0
0:00:00.00 116735 N 0 0 0
0:00:00.00 117052 N 0 0 0
0:00:00.00 117360 N 0 0 0
0:00:00.00 117659 N 0 0 0
0:00:00.00 117961 N 0 0 0
0:00:00.00 118274 N 0 0 0
0:00:00.00 118598 N 0 0 0
0:00:00.00 118917 N 0 0 0
0:00:00.00 119230 N 0 0 0
0:00:00.00 119542 N 0 0 0
0:00:00.00 119840 N 0 0 0
0:00:00.00 120136 N 0 0 0
0:00:00.00 120440 N 0 0 0
0:00:00.00 120758 N 0 0 0
0:00:00.00 121077 N 0 0 0
0:00:00.00 121379 N 0 0 0
0:00:00.00 121680 N 0 0 0
0:00:00.00 121973 N 0 0 0
0:00:00.00 122261 N 0 0 0
0:00:00.00 122566 N 0 0 0
0:00:00.00 122875 N 0 0 0
0:00:00.00 123188 N 0 0 0
0:00:00.00 123493 N 0 0 0
0:00:00.00 123777 N 0 0 0
0:00:00.00 124074 N 0 0 0
0:00:00.00 124362 N 0 0 0
0:00:00.00 124648 N 0 0 0
0:00:00.00 124951 N 0 0 0
0:00:00.00 125257 N 0 0 0
0:00:00.00 125563 N 0 0 0
0:00:00.00 125854 N 0 0 0
0:00:00.00 126144 N 0 0 0
0:00:00.00 126446 N 0 0 0
0:00:00.00 126752 N 0 0 0
0:00:00.00 127064 N 0 0 0
0:00:00.00 127384 N 0 0 0
0:00:00.00 127714 N 0 0 0
0:00:00.00 128030 N 0 0 0
0:00:00.00 128329 N 0 0 0
0:00:00.00 128639 N 0 0 0
0:00:00.00 128952 N 0 0 0
0:00:00.00 129269 N 0 0 0
0:00:00.00 129587 N 0 0 0
0:00:00.00 129902 N 0 0 0
0:00:00.00 130212 N 0 0 0
0:00:00.00 130502 N 0 0 0
0:00:00.00 130793 N 0 0 0
0:00:00.00 131105 N 0 0 0
0:00:00.00 131411 N 0 0 0
0:00:00.00 131715 N 0 0 0
0:00:00.00 132028 N 0 0 0
0:00:00.00 132338 N 0 0 0
0:00:00.00 132631 N 0 0 0
0:00:00.00 132921 N 0 0 0
0:00:00.00 133218 N 0 0 0
0:00:00.00 133519 N 0 0 0
0:00:00.00 133808 N 0 0 0
0:00:00.00 134091 N 0 0 0
0:00:00.00 134370 N 0 0 0
0:00:00.00 134653 N 0 0 0
0:00:00.00 134933 N 0 0 0
0:00:00.00 135230 N 0 0 0
0:00:00.00 135558 N 0 0 0
0:00:00.00 135900 N 0 0 0
0:00:00.00 136233 N 0 0 0
0:00:00.00 136564 N 0 0 0
0:00:00.00 136897 N 0 0 0
0:00:00.00 137221 N 0 0 0
0:00:00.00 137543 N 0 0 0
0:00:00.00 137896 N 0 0 0
0:00:00.00 138235 N 0 0 0
0:00:00.00 138560 N 0 0 0
0:00:00.00 138874 N 0 0 0
0:00:00.00 139190 N 0 0 0
0:00:00.00 139507 N 0 0 0
0:00:00.00 139820 N 0 0 0
0:00:00.00 140157 N 0 0 0
0:00:00.00 140492 N 0 0 0
0:00:00.00 140807 N 0 0 0
0:00:00.00 141116 N 0 0 0
0:00:00.00 141426 N 0 0 0
0:00:00.00 141739 N 0 0 0
0:00:00.00 142051 N 0 0 0
0:00:00.00 142376 N 0 0 0
0:00:00.00 142700 N 0 0 0
0:00:00.00 143012 N 0 0 0
0:00:00.00 143314 N 0 0 0
0:00:00.00 143615 N 0 0 0
0:00:00.00 143921 N 0 0 0
0:00:00.00 144221 N 0 0 0
0:00:00.00 144529 N 0 0 0
0:00:00.00 144851 N 0 0 0
0:00:00.00 145159 N 0 0 0
0:00:00.00 145453 N 0 0 0
0:00:00.00 145742 N 0 0 0
0:00:00.00 146047 N 0 0 0
0:00:00.00 146360 N 0 0 0
0:00:00.00 146673 N 0 0 0
0:00:00.00 146995 N 0 0 0
0:00:00.00 147319 N 0 0 0
0:00:00.00 147620 N 0 0 0
0:00:00.00 147926 N 0 0 0
0:00:00.00 148234 N 0 0 0
0:00:00.00 148558 N 0 0 0
0:00:00.00 148880 N 0 0 0
0:00:00.00 149197 N 0 0 0
0:00:00.00 149526 N 0 0 0
0:00:00.00 149832 N 0 0 0
0:00:00.00 150131 N 0 0 0
0:00:00.00 150440 N 0 0 0
0:00:00.00 150764 N 0 0 0
0:00:00.00 151087 N 0 0 0
0:00:00.00 151400 N 0 0 0
0:00:00.00 151718 N 0 0 0
0:00:00.00 152015 N 0 0 0
0:00:00.00 152307 N 0 0 0
0:00:00.00 152602 N 0 0 0
0:00:00.00 152915 N 0 0 0
0:00:00.00 153245 N 0 0 0
0:00:00.00 153563 N 0 0 0
0:00:00.00 153882 N 0 0 0
0:00:00.00 154192 N 0 0 0
0:00:00.00 154492 N 0 0 0
0:00:00.00 154807 N 0 0 0
0:00:00.00 155126 N 0 0 0
0:00:00.00 155459 N 0 0 0
0:00:00.00 155779 N 0 0 0
0:00:00.00 156080 N 0 0 0
0:00:00.00 156393 N 0 0 0
0:00:00.00 156694 N 0 0 0
0:00:00.00 156989 N 0 0 0
0:00:00.00 157306 N 0 0 0
0:00:00.00 157633 N 0 0 0
0:00:00.00 157950 N 0 0 0
0:00:00.00 158252 N 0 0 0
0:00:00.00 158555 N 0 0 0
0:00:00.00 158850 N 0 0 0
0:00:00.00 159145 N 0 0 0
0:00:00.00 159458 N 0 0 0
0:00:00.00 159784 N 0 0 0
0:00:00.00 160114 N 0 0 0
0:00:00.00 160423 N 0 0 0
0:00:00.00 160735 N 0 0 0
0:00:00.00 161053 N 0 0 0
0:00:00.00 161366 N 0 0 0
0:00:00.00 161694 N 0 0 0
0:00:00.00 162023 N 0 0 0
0:00:00.00 162362 N 0 0 0
0:00:00.00 162677 N 0 0 0
0:00:00.00 162979 N 0 0 0
0:00:00.00 163292 N 0 0 0
0:00:00.00 163598 N 0 0 0
0:00:00.00 163908 N 0 0 0
0:00:00.00 164225 N 0 0 0
0:00:00.00 164536 N 0 0 0
0:00:00.00 164830 N 0 0 0
0:00:00.00 165119 N 0 0 0
0:00:00.00 165418 N 0 0 0
0:00:00.00 165721 N 0 0 0
0:00:00.00 166030 N 0 0 0
0:00:00.00 166347 N 0 0 0
0:00:00.00 166662 N 0 0 0
0:00:00.00 166966 N 0 0 0
0:00:00.00 167256 N 0 0 0
0:00:00.00 167549 N 0 0 0
0:00:00.00 167864 N 0 0 0
0:00:00.00 168176 N 0 0 0
0:00:00.00 168484 N 0 0 0
0:00:00.00 168793 N 0 0 0
0:00:00.00 169106 N 0 0 0
0:00:00.00 169411 N 0 0 0
0:00:00.00 169706 N 0 0 0
0:00:00.00 170023 N 0 0 0
0:00:00.00 170350 N 0 0 0
0:00:00.00 170667 N 0 0 0
0:00:00.00 170987 N 0 0 0
0:00:00.00 171292 N 0 0 0
0:00:00.00 171592 N 0 0 0
0:00:00.00 171889 N 0 0 0
0:00:00.00 172190 N 0 0 0
0:00:00.00 172521 N 0 0 0
0:00:00.00 172838 N 0 0 0
0:00:00.00 173144 N 0 0 0
0:00:00.00 173455 N 0 0 0
0:00:00.00 173765 N 0 0 0
0:00:00.00 174069 N 0 0 0
0:00:00.00 174371 N 0 0 0
0:00:00.00 174697 N 0 0 0
0:00:00.00 175016 N 0 0 0
0:00:00.00 175322 N 0 0 0
0:00:00.00 175621 N 0 0 0
0:00:00.00 175914 N 0 0 0
0:00:00.00 176213 N 0 0 0
0:00:00.00 176510 N 0 0 0
0:00:00.00 176819 N 0 0 0
0:00:00.00 177136 N 0 0 0
0:00:00.00 177444 N 0 0 0
0:00:00.00 177739 N 0 0 0
0:00:00.00 178027 N 0 0 0
0:00:00.00 178317 N 0 0 0
0:00:00.00 178610 N 0 0 0
0:00:00.00 178904 N 0 0 0
0:00:00.00 179213 N 0 0 0
0:00:00.00 179527 N 0 0 0
0:00:00.00 179822 N 0 0 0
0:00:00.00 180122 N 0 0 0
0:00:00.00 180427 N 0 0 0
0:00:00.00 180738 N 0 0 0
0:00:00.00 181060 N 0 0 0
0:00:00.00 181381 N 0 0 0
0:00:00.00 181714 N 0 0 0
0:00:00.00 182029 N 0 0 0
0:00:00.00 182326 N 0 0 0
0:00:00.00 182633 N 0 0 0
0:00:00.00 182950 N 0 0 0
0:00:00.00 183263 N 0 0 0
0:00:00.00 183580 N 0 0 0
0:00:00.00 183908 N 0 0 0
0:00:00.00 184212 N 0 0 0
0:00:00.00 184505 N 0 0 0
0:00:00.00 184806 N 0 0 0
0:00:00.00 185110 N 0 0 0
0:00:00.00 185436 N 0 0 0
0:00:00.00 185751 N 0 0 0
0:00:00.00 186064 N 0 0 0
0:00:00.00 186374 N 0 0 0
0:00:00.00 186669 N 0 0 0
0:00:00.00 186975 N 0 0 0
0:00:00.00 187283 N 0 0 0
0:00:00.00 187607 N 0 0 0
0:00:00.00 187929 N 0 0 0
0:00:00.00 188239 N 0 0 0
0:00:00.00 188552 N 0 0 0
0:00:00.00 188852 N 0 0 0
0:00:00.00 189142 N 0 0 0
0:00:00.00 189450 N 0 0 0
0:00:00.00 189772 N 0 0 0
0:00:00.00 190091 N 0 0 0
0:00:00.00 190404 N 0 0 0
0:00:00.00 190719 N 0 0 0
0:00:00.00 191027 N 0 0 0
0:00:00.00 191336 N 0 0 0
0:00:00.00 191651 N 0 0 0
0:00:00.00 191975 N 0 0 0
0:00:00.00 192317 N 0 0 0
0:00:00.00 192634 N 0 0 0
0:00:00.00 192944 N 0 0 0
0:00:00.00 193257 N 0 0 0
0:00:00.00 193568 N 0 0 0
0:00:00.00 193892 N 0 0 0
0:00:00.00 194222 N 0 0 0
0:00:00.00 194562 N 0 0 0
0:00:00.00 194886 N 0 0 0
0:00:00.00 195190 N 0 0 0
0:00:00.00 195516 N 0 0 0
0:00:00.00 195829 N 0 0 0
0:00:00.00 196153 N 0 0 0
0:00:00.00 196484 N 0 0 0
0:00:00.00 196817 N 0 0 0
0:00:00.00 197136 N 0 0 0
0:00:00.00 197437 N 0 0 0
0:00:00.00 197750 N 0 0 0
0:00:00.00 198063 N 0 0 0
0:00:00.00 198373 N 0 0 0
0:00:00.00 198695 N 0 0 0
0:00:00.00 199017 N 0 0 0
0:00:00.00 199323 N 0 0 0
0:00:00.00 199620 N 0 0 0
0:00:00.00 199924 N 0 0 0
0:00:00.00 200232 N 0 0 0
0:00:00.00 200551 N 0 0 0
0:00:00.00 200873 N 0 0 0
0:00:00.00 201188 N 0 0 0
0:00:00.00 201503 N 0 0 0
0:00:00.00 201802 N 0 0 0
0:00:00.00 202102 N 0 0 0
0:00:00.00 202423 N 0 0 0
0:00:00.00 202741 N 0 0 0
0:00:00.00 203062 N 0 0 0
0:00:00.00 203377 N 0 0 0
0:00:00.00 203690 N 0 0 0
0:00:00.00 203990 N 0 0 0
0:00:00.00 204278 N 0 0 0
0:00:00.00 204584 N 0 0 0
0:00:00.00 204905 N 0 0 0
0:00:00.00 205218 N 0 0 0
0:00:00.00 205529 N 0 0 0
0:00:00.00 205839 N 0 0 0
0:00:00.00 206147 N 0 0 0
0:00:00.00 206453 N 0 0 0
0:00:00.00 206764 N 0 0 0
0:00:00.00 207092 N 0 0 0
0:00:00.00 207409 N 0 0 0
0:00:00.00 207720 N 0 0 0
0:00:00.00 208024 N 0 0 0
0:00:00.00 208328 N 0 0 0
0:00:00.00 208620 N 0 0 0
0:00:00.00 208919 N 0 0 0
0:00:00.00 209243 N 0 0 0
0:00:00.00 209556 N 0 0 0
0:00:00.00 209855 N 0 0 0
0:00:00.00 210154 N 0 0 0
0:00:00.00 210442 N 0 0 0
0:00:00.00 210737 N 0 0 0
0:00:00.00 211030 N 0 0 0
0:00:00.00 211327 N 0 0 0
0:00:00.00 211637 N 0 0 0
0:00:00.00 211932 N 0 0 0
0:00:00.00 212215 N 0 0 0
0:00:00.00 212494 N 0 0 0
0:00:00.00 212776 N 0 0 0
0:00:00.00 213064 N 0 0 0
0:00:00.00 213359 N 0 0 0
0:00:00.00 213664 N 0 0 0
0:00:00.00 213975 N 0 0 0
0:00:00.00 214272 N 0 0 0
0:00:00.00 214562 N 0 0 0
0:00:00.00 214853 N 0 0 0
0:00:00.00 215154 N 0 0 0
0:00:00.00 215458 N 0 0 0
0:00:00.00 215768 N 0 0 0
0:00:00.00 216095 N 0 0 0
0:00:00.00 216407 N 0 0 0
0:00:00.00 216704 N 0 0 0
0:00:00.00 217001 N 0 0 0
0:00:00.00 217301 N 0 0 0
0:00:00.00 217618 N 0 0 0
0:00:00.00 217935 N 0 0 0
0:00:00.00 218255 N 0 0 0
0:00:00.00 218579 N 0 0 0
0:00:00.00 218876 N 0 0 0
0:00:00.00 219173 N 0 0 0
0:00:00.00 219472 N 0 0 0
0:00:00.00 219785 N 0 0 0
0:00:00.00 220100 N 0 0 0
0:00:00.00 220408 N 0 0 0
0:00:00.00 220730 N 0 0 0
0:00:00.00 221033 N 0 0 0
0:00:00.00 221317 N 0 0 0
0:00:00.00 221618 N 0 0 0
0:00:00.00 221929 N 0 0 0
0:00:00.00 222248 N 0 0 0
0:00:00.00 222561 N 0 0 0
0:00:00.00 222880 N 0 0 0
0:00:00.00 223186 N 0 0 0
0:00:00.00 223481 N 0 0 0
0:00:00.00 223781 N 0 0 0
0:00:00.00 224087 N 0 0 0
0:00:00.00 224415 N 0 0 0
0:00:00.00 224730 N 0 0 0
0:00:00.00 225038 N 0 0 0
0:00:00.00 225349 N 0 0 0
0:00:00.00 225644 N 0 0 0
0:00:00.00 225934 N 0 0 0
0:00:00.00 226237 N 0 0 0
0:00:00.00 226550 N 0 0 0
0:00:00.00 226861 N 0 0 0
0:00:00.00 227158 N 0 0 0
0:00:00.00 227452 N 0 0 0
0:00:00.00 227750 N 0 0 0
0:00:00.00 228035 N 0 0 0
0:00:00.00 228323 N 0 0 0
0:00:00.00 228631 N 0 0 0
0:00:00.00 228953 N 0 0 0
0:00:00.00 229268 N 0 0 0
0:00:00.00 229561 N 0 0 0
0:00:00.00 229864 N 0 0 0
0:00:00.00 230164 N 0 0 0
0:00:00.00 230459 N 0 0 0
0:00:00.00 230764 N 0 0 0
0:00:00.00 231071 N 0 0 0
0:00:00.00 231381 N 0 0 0
0:00:00.00 231674 N 0 0 0
0:00:00.00 231964 N 0 0 0
0:00:00.00 232265 N 0 0 0
0:00:00.00 232564 N 0 0 0
0:00:00.00 232875 N 0 0 0
0:00:00.00 233203 N 0 0 0
0:00:00.00 233527 N 0 0 0
0:00:00.00 233856 N 0 0 0
0:00:00.00 234153 N 0 0 0
0:00:00.00 234470 N 0 0 0
0:00:00.00 234785 N 0 0 0
0:00:00.00 235102 N 0 0 0
0:00:00.00 235424 N 0 0 0
0:00:00.00 235737 N 0 0 0
0:00:00.00 236050 N 0 0 0
0:00:00.00 236347 N 0 0 0
0:00:00.00 236644 N 0 0 0
0:00:00.00 236956 N 0 0 0
0:00:00.00 237269 N 0 0 0
0:00:00.00 237582 N 0 0 0
0:00:00.00 237895 N 0 0 0
0:00:00.00 238203 N 0 0 0
0:00:00.00 238495 N 0 0 0
0:00:00.00 238784 N 0 0 0
0:00:00.00 239098 N 0 0 0
0:00:00.00 239413 N 0 0 0
0:00:00.00 239724 N 0 0 0
0:00:00.00 240035 N 0 0 0
0:00:00.00 240345 N 0 0 0
0:00:00.00 240646 N 0 0 0
0:00:00.00 240937 N 0 0 0
0:00:00.00 241249 N 0 0 0
0:00:00.00 241571 N 0 0 0
0:00:00.00 241889 N 0 0 0
0:00:00.00 242212 N 0 0 0
0:00:00.00 242518 N 0 0 0
0:00:00.00 242820 N 0 0 0
0:00:00.00 243110 N 0 0 0
0:00:00.00 243403 N 0 0 0
0:00:00.00 243725 N 0 0 0
0:00:00.00 244040 N 0 0 0
0:00:00.00 244343 N 0 0 0
0:00:00.00 244651 N 0 0 0
0:00:00.00 244955 N 0 0 0
0:00:00.00 245255 N 0 0 0
0:00:00.00 245561 N 0 0 0
0:00:00.00 245884 N 0 0 0
0:00:00.00 246209 N 0 0 0
0:00:00.00 246523 N 0 0 0
0:00:00.00 246825 N 0 0 0
0:00:00.00 247122 N 0 0 0
0:00:00.00 247424 N 0 0 0
0:00:00.00 247721 N 0 0 0
0:00:00.00 248031 N 0 0 0
0:00:00.00 248360 N 0 0 0
0:00:00.00 248675 N 0 0 0
0:00:00.00 248980 N 0 0 0
0:00:00.00 249284 N 0 0 0
0:00:00.00 249597 N 0 0 0
0:00:00.00 249917 N 0 0 0
0:00:00.00 250236 N 0 0 0
0:00:00.00 250576 N 0 0 0
0:00:00.00 250902 N 0 0 0
0:00:00.00 251208 N 0 0 0
0:00:00.00 251510 N 0 0 0
0:00:00.00 251813 N 0 0 0
0:00:00.00 252130 N 0 0 0
0:00:00.00 252450 N 0 0 0
0:00:00.00 252778 N 0 0 0
0:00:00.00 253102 N 0 0 0
0:00:00.00 253406 N 0 0 0
0:00:00.00 253705 N 0 0 0
0:00:00.00 254009 N 0 0 0
0:00:00.00 254324 N 0 0 0
0:00:00.00 254639 N 0 0 0
0:00:00.00 254954 N 0 0 0
0:00:00.00 255276 N 0 0 0
0:00:00.00 255573 N 0 0 0
0:00:00.00 255866 N 0 0 0
0:00:00.00 256163 N 0 0 0
0:00:00.00 256478 N 0 0 0
0:00:00.00 256799 N 0 0 0
0:00:00.00 257117 N 0 0 0
0:00:00.00 257441 N 0 0 0
0:00:00.00 257751 N 0 0 0
0:00:00.00 258048 N 0 0 0
0:00:00.00 258361 N 0 0 0
0:00:00.00 258671 N 0 0 0
0:00:00.00 258997 N 0 0 0
0:00:00.00 259313 N 0 0 0
0:00:00.00 259623 N 0 0 0
0:00:00.00 259934 N 0 0 0
0:00:00.00 260231 N 0 0 0
0:00:00.00 260525 N 0 0 0
0:00:00.00 260836 N 0 0 0
0:00:00.00 261160 N 0 0 0
0:00:00.00 261477 N 0 0 0
0:00:00.00 261787 N 0 0 0
0:00:00.00 262096 N 0 0 0
0:00:00.00 262390 N 0 0 0
0:00:00.00 262681 N 0 0 0
0:00:00.00 262987 N 0 0 0
0:00:00.00 263304 N 0 0 0
0:00:00.00 263624 N 0 0 0
0:00:00.00 263929 N 0 0 0
0:00:00.00 264233 N 0 0 0
0:00:00.00 264537 N 0 0 0
0:00:00.00 264838 N 0 0 0
0:00:00.00 265149 N 0 0 0
0:00:00.00 265471 N 0 0 0
0:00:00.00 265806 N 0 0 0
0:00:00.00 266121 N 0 0 0
0:00:00.00 266420 N 0 0 0
0:00:00.00 266735 N 0 0 0
0:00:00.00 267035 N 0 0 0
0:00:00.00 267336 N 0 0 0
0:00:00.00 267651 N 0 0 0
0:00:00.00 267970 N 0 0 0
0:00:00.00 268283 N 0 0 0
0:00:00.00 268578 N 0 0 0
0:00:00.00 268873 N 0 0 0
0:00:00.00 269174 N 0 0 0
0:00:00.00 269469 N 0 0 0
0:00:00.00 269780 N 0 0 0
0:00:00.00 270095 N 0 0 0
0:00:00.00 270412 N 0 0 0
0:00:00.00 270706 N 0 0 0
0:00:00.00 270994 N 0 0 0
0:00:00.00 271298 N 0 0 0
0:00:00.00 271606 N 0 0 0
0:00:00.00 271913 N 0 0 0
0:00:00.00 272227 N 0 0 0
0:00:00.00 272542 N 0 0 0
0:00:00.00 272846 N 0 0 0
0:00:00.00 273139 N 0 0 0
0:00:00.00 273442 N 0 0 0
0:00:00.00 273757 N 0 0 0
0:00:00.00 274072 N 0 0 0
0:00:00.00 274397 N 0 0 0
0:00:00.00 274718 N 0 0 0
0:00:00.00 275033 N 0 0 0
0:00:00.00 275332 N 0 0 0
0:00:00.00 275632 N 0 0 0
0:00:00.00 275962 N 0 0 0
0:00:00.00 276293 N 0 0 0
0:00:00.00 276599 N 0 0 0
0:00:00.00 276905 N 0 0 0
0:00:00.00 277207 N 0 0 0
0:00:00.00 277490 N 0 0 0
0:00:00.00 277772 N 0 0 0
0:00:00.00 278080 N 0 0 0
0:00:00.00 278397 N 0 0 0
0:00:00.00 278717 N 0 0 0
0:00:00.00 279032 N 0 0 0
0:00:00.00 279344 N 0 0 0
0:00:00.00 279659 N 0 0 0
0:00:00.00 279968 N 0 0 0
0:00:00.00 280300 N 0 0 0
0:00:00.00 280638 N 0 0 0
0:00:00.00 280966 N 0 0 0
0:00:00.00 281293 N 0 0 0
0:00:00.00 281608 N 0 0 0
0:00:00.00 281927 N 0 0 0
0:00:00.00 282244 N 0 0 0
0:00:00.00 282569 N 0 0 0
0:00:00.00 282911 N 0 0 0
0:00:00.00 283234 N 0 0 0
0:00:00.00 283552 N 0 0 0
0:00:00.00 283864 N 0 0 0
0:00:00.00 284182 N 0 0 0
0:00:00.00 284497 N 0 0 0
0:00:00.00 284825 N 0 0 0
0:00:00.00 285163 N 0 0 0
0:00:00.00 285487 N 0 0 0
0:00:00.00 285793 N 0 0 0
0:00:00.00 286103 N 0 0 0
0:00:00.00 286421 N 0 0 0
0:00:00.00 286740 N 0 0 0
0:00:00.00 287064 N 0 0 0
0:00:00.00 287404 N 0 0 0
0:00:00.00 287721 N 0 0 0
0:00:00.00 288027 N 0 0 0
0:00:00.00 288333 N 0 0 0
0:00:00.00 288653 N 0 0 0
0:00:00.00 288979 N 0 0 0
0:00:00.00 289307 N 0 0 0
0:00:00.00 289645 N 0 0 0
0:00:00.00 289964 N 0 0 0
0:00:00.00 290264 N 0 0 0
0:00:00.00 290570 N 0 0 0
0:00:00.00 290878 N 0 0 0
0:00:00.00 291199 N 0 0 0
0:00:00.00 291521 N 0 0 0
0:00:00.00 291845 N 0 0 0
0:00:00.00 292163 N 0 0 0
0:00:00.00 292462 N 0 0 0
0:00:00.00 292765 N 0 0 0
0:00:00.00 293078 N 0 0 0
0:00:00.00 293409 N 0 0 0
0:00:00.00 293731 N 0 0 0
0:00:00.00 294052 N 0 0 0
0:00:00.00 294370 N 0 0 0
0:00:00.00 294669 N 0 0 0
0:00:00.00 294961 N 0 0 0
0:00:00.00 295263 N 0 0 0
0:00:00.00 295591 N 0 0 0
0:00:00.00 295909 N 0 0 0
0:00:00.00 296217 N 0 0 0
0:00:00.00 296534 N 0 0 0
0:00:00.00 296838 N 0 0 0
0:00:00.00 297133 N 0 0 0
0:00:00.00 297441 N 0 0 0
0:00:00.00 297760 N 0 0 0
0:00:00.00 298087 N 0 0 0
0:00:00.00 298408 N 0 0 0
0:00:00.00 298717 N 0 0 0
0:00:00.00 299029 N 0 0 0
0:00:00.00 299327 N 0 0 0
0:00:00.00 299644 N 0 0 0
0:00:00.00 299972 N 0 0 0
0:00:00.00 300303 N 0 0 0
0:00:00.00 300620 N 0 0 0
0:00:00.00 300926 N 0 0 0
0:00:00.00 301237 N 0 0 0
0:00:00.00 301540 N 0 0 0
0:00:00.00 301844 N 0 0 0
0:00:00.00 302166 N 0 0 0
0:00:00.00 302499 N 0 0 0
0:00:00.00 302814 N 0 0 0
0:00:00.00 303116 N 0 0 0
0:00:00.00 303435 N 0 0 0
0:00:00.00 303741 N 0 0 0
0:00:00.00 304052 N 0 0 0
0:00:00.00 304375 N 0 0 0
0:00:00.00 304706 N 0 0 0
0:00:00.00 305026 N 0 0 0
0:00:00.00 305330 N 0 0 0
0:00:00.00 305645 N 0 0 0
0:00:00.00 305966 N 0 0 0
0:00:00.00 306288 N 0 0 0
0:00:00.00 306623 N 0 0 0
0:00:00.00 306956 N 0 0 0
0:00:00.00 307282 N 0 0 0
0:00:00.00 307580 N 0 0 0
0:00:00.00 307883 N 0 0 0
0:00:00.00 308198 N 0 0 0
0:00:00.00 308513 N 0 0 0
0:00:00.00 308833 N 0 0 0
0:00:00.00 309152 N 0 0 0
0:00:00.00 309470 N 0 0 0
0:00:00.00 309771 N 0 0 0
0:00:00.00 310077 N 0 0 0
0:00:00.00 310401 N 0 0 0
0:00:00.00 310727 N 0 0 0
0:00:00.00 311054 N 0 0 0
0:00:00.00 311382 N 0 0 0
0:00:00.00 311704 N 0 0 0
0:00:00.00 312021 N 0 0 0
0:00:00.00 312327 N 0 0 0
0:00:00.00 312662 N 0 0 0
0:00:00.00 312986 N 0 0 0
0:00:00.00 313317 N 0 0 0
0:00:00.00 313663 N 0 0 0
0:00:00.00 313992 N 0 0 0
0:00:00.00 314316 N 0 0 0
0:00:00.00 314631 N 0 0 0
0:00:00.00 314971 N 0 0 0
0:00:00.00 315306 N 0 0 0
0:00:00.00 315632 N 0 0 0
0:00:00.00 315956 N 0 0 0
0:00:00.00 316273 N 0 0 0
0:00:00.00 316577 N 0 0 0
0:00:00.00 316895 N 0 0 0
0:00:00.00 317237 N 0 0 0
0:00:00.00 317576 N 0 0 0
0:00:00.00 317903 N 0 0 0
0:00:00.00 318222 N 0 0 0
0:00:00.00 318550 N 0 0 0
0:00:00.00 318870 N 0 0 0
0:00:00.00 319187 N 0 0 0
0:00:00.00 319529 N 0 0 0
0:00:00.00 319855 N 0 0 0
0:00:00.00 320173 N 0 0 0
0:00:00.00 320483 N 0 0 0
0:00:00.00 320798 N 0 0 0
0:00:00.00 321116 N 0 0 0
0:00:00.00 321439 N 0 0 0
0:00:00.00 321781 N 0 0 0
0:00:00.00 322112 N 0 0 0
0:00:00.00 322421 N 0 0 0
0:00:00.00 322731 N 0 0 0
0:00:00.00 323041 N 0 0 0
0:00:00.00 323356 N 0 0 0
0:00:00.00 323681 N 0 0 0
0:00:00.00 324022 N 0 0 0
0:00:00.00 324353 N 0 0 0
0:00:00.00 324657 N 0 0 0
0:00:00.00 324958 N 0 0 0
0:00:00.00 325264 N 0 0 0
0:00:00.00 325566 N 0 0 0
0:00:00.00 325861 N 0 0 0
0:00:00.00 326160 N 0 0 0
0:00:00.00 326466 N 0 0 0
0:00:00.00 326759 N 0 0 0
0:00:00.00 327044 N 0 0 0
0:00:00.00 327339 N 0 0 0
0:00:00.00 327652 N 0 0 0
0:00:00.00 327978 N 0 0 0
0:00:00.00 328298 N 0 0 0
0:00:00.00 328635 N 0 0 0
0:00:00.00 328957 N 0 0 0
0:00:00.00 329269 N 0 0 0
0:00:00.00 329582 N 0 0 0
0:00:00.00 329904 N 0 0 0
0:00:00.00 330242 N 0 0 0
0:00:00.00 330566 N 0 0 0
0:00:00.00 330885 N 0 0 0
0:00:00.00 331193 N 0 0 0
0:00:00.00 331479 N 0 0 0
0:00:00.00 331772 N 0 0 0
0:00:00.00 332078 N 0 0 0
0:00:00.00 332399 N 0 0 0
0:00:00.00 332717 N 0 0 0
0:00:00.00 333034 N 0 0 0
0:00:00.00 333353 N 0 0 0
0:00:00.00 333659 N 0 0 0
0:00:00.00 333963 N 0 0 0
0:00:00.00 334278 N 0 0 0
0:00:00.00 334613 N 0 0 0
0:00:00.00 334931 N 0 0 0
0:00:00.00 335232 N 0 0 0
0:00:00.00 335543 N 0 0 0
0:00:00.00 335844 N 0 0 0
0:00:00.00 336146 N 0 0 0
0:00:00.00 336463 N 0 0 0
0:00:00.00 336789 N 0 0 0
0:00:00.00 337120 N 0 0 0
0:00:00.00 337435 N 0 0 0
0:00:00.00 337745 N 0 0 0
0:00:00.00 338058 N 0 0 0
0:00:00.00 338368 N 0 0 0
0:00:00.00 338702 N 0 0 0
0:00:00.00 339034 N 0 0 0
0:00:00.00 339370 N 0 0 0
0:00:00.00 339700 N 0 0 0
0:00:00.00 340018 N 0 0 0
0:00:00.00 340349 N 0 0 0
0:00:00.00 340679 N 0 0 0
0:00:00.00 341015 N 0 0 0
0:00:00.00 341352 N 0 0 0
0:00:00.00 341690 N 0 0 0
0:00:00.00 342004 N 0 0 0
0:00:00.00 342324 N 0 0 0
0:00:00.00 342646 N 0 0 0
0:00:00.00 342974 N 0 0 0
0:00:00.00 343309 N 0 0 0
0:00:00.00 343640 N 0 0 0
0:00:00.00 343967 N 0 0 0
0:00:00.00 344279 N 0 0 0
0:00:00.00 344588 N 0 0 0
0:00:00.00 344903 N 0 0 0
0:00:00.00 345220 N 0 0 0
0:00:00.00 345548 N 0 0 0
0:00:00.00 345866 N 0 0 0
0:00:00.00 346181 N 0 0 0
0:00:00.00 346482 N 0 0 0
0:00:00.00 346779 N 0 0 0
0:00:00.00 347094 N 0 0 0
0:00:00.00 347418 N 0 0 0
0:00:00.00 347742 N 0 0 0
0:00:00.00 348077 N 0 0 0
0:00:00.00 348413 N 0 0 0
0:00:00.00 348734 N 0 0 0
0:00:00.00 349052 N 0 0 0
0:00:00.00 349393 N 0 0 0
0:00:00.00 349727 N 0 0 0
0:00:00.00 350060 N 0 0 0
0:00:00.00 350383 N 0 0 0
0:00:00.00 350699 N 0 0 0
0:00:00.00 351005 N 0 0 0
0:00:00.00 351306 N 0 0 0
0:00:00.00 351639 N 0 0 0
0:00:00.00 351959 N 0 0 0
0:00:00.00 352274 N 0 0 0
0:00:00.00 352586 N 0 0 0
0:00:00.00 352892 N 0 0 0
0:00:00.00 353194 N 0 0 0
0:00:00.00 353495 N 0 0 0
0:00:00.00 353815 N 0 0 0
0:00:00.00 354143 N 0 0 0
0:00:00.00 354465 N 0 0 0
0:00:00.00 354778 N 0 0 0
0:00:00.00 355081 N 0 0 0
0:00:00.00 355387 N 0 0 0
0:00:00.00 355691 N 0 0 0
0:00:00.00 356008 N 0 0 0
0:00:00.00 356339 N 0 0 0
0:00:00.00 356659 N 0 0 0
0:00:00.00 356969 N 0 0 0
0:00:00.00 357271 N 0 0 0
0:00:00.00 357584 N 0 0 0
0:00:00.00 357890 N 0 0 0
0:00:00.00 358207 N 0 0 0
0:00:00.00 358546 N 0 0 0
0:00:00.00 358864 N 0 0 0
0:00:00.00 359176 N 0 0 0
0:00:00.00 359478 N 0 0 0
0:00:00.00 359786 N 0 0 0
0:00:00.00 360099 N 0 0 0
0:00:00.00 360418 N 0 0 0
0:00:00.00 360754 N 0 0 0
0:00:00.00 361080 N 0 0 0
0:00:00.00 361395 N 0 0 0
0:00:00.00 361706 N 0 0 0
0:00:00.00 362016 N 0 0 0
0:00:00.00 362344 N 0 0 0
0:00:00.00 362673 N 0 0 0
0:00:00.00 363002 N 0 0 0
0:00:00.00 363334 N 0 0 0
0:00:00.00 363649 N 0 0 0
0:00:00.00 363958 N 0 0 0
0:00:00.00 364279 N 0 0 0
0:00:00.00 364608 N 0 0 0
0:00:00.00 364937 N 0 0 0
0:00:00.00 365274 N 0 0 0
0:00:00.00 365602 N 0 0 0
0:00:00.00 365906 N 0 0 0
0:00:00.00 366217 N 0 0 0
0:00:00.00 366536 N 0 0 0
0:00:00.00 366863 N 0 0 0
0:00:00.00 367180 N 0 0 0
0:00:00.00 367499 N 0 0 0
0:00:00.00 367812 N 0 0 0
0:00:00.00 368102 N 0 0 0
0:00:00.00 368395 N 0 0 0
0:00:00.00 368701 N 0 0 0
0:00:00.00 369023 N 0 0 0
0:00:00.00 369338 N 0 0 0
0:00:00.00 369650 N 0 0 0
0:00:00.00 369967 N 0 0 0
0:00:00.00 370267 N 0 0 0
0:00:00.00 370559 N 0 0 0
0:00:00.00 370863 N 0 0 0
0:00:00.00 371192 N 0 0 0
0:00:00.00 371522 N 0 0 0
0:00:00.00 371844 N 0 0 0
0:00:00.00 372164 N 0 0 0
0:00:00.00 372476 N 0 0 0
0:00:00.00 372775 N 0 0 0
0:00:00.00 373086 N 0 0 0
0:00:00.00 373406 N 0 0 0
0:00:00.00 373732 N 0 0 0
0:00:00.00 374040 N 0 0 0
0:00:00.00 374346 N 0 0 0
0:00:00.00 374654 N 0 0 0
0:00:00.00 374949 N 0 0 0
0:00:00.00 375255 N 0 0 0
0:00:00.00 375577 N 0 0 0
0:00:00.00 375903 N 0 0 0
0:00:00.00 376218 N 0 0 0
0:00:00.00 376520 N 0 0 0
0:00:00.00 376837 N 0 0 0
0:00:00.00 377141 N 0 0 0
0:00:00.00 377447 N 0 0 0
0:00:00.00 377773 N 0 0 0
0:00:00.00 378106 N 0 0 0
0:00:00.00 378425 N 0 0 0
0:00:00.00 378729 N 0 0 0
0:00:00.00 379044 N 0 0 0
0:00:00.00 379359 N 0 0 0
0:00:00.00 379674 N 0 0 0
0:00:00.00 380002 N 0 0 0
0:00:00.00 380331 N 0 0 0
0:00:00.00 380653 N 0 0 0
0:00:00.00 380954 N 0 0 0
0:00:00.00 381260 N 0 0 0
0:00:00.00 381568 N 0 0 0
0:00:00.00 381874 N 0 0 0
0:00:00.00 382196 N 0 0 0
0:00:00.00 382511 N 0 0 0
0:00:00.00 382829 N 0 0 0
0:00:00.00 383130 N 0 0 0
0:00:00.00 383422 N 0 0 0
0:00:00.00 383740 N 0 0 0
0:00:00.00 384061 N 0 0 0
0:00:00.00 384381 N 0 0 0
0:00:00.00 384709 N 0 0 0
0:00:00.00 385034 N 0 0 0
0:00:00.00 385346 N 0 0 0
0:00:00.00 385648 N 0 0 0
0:00:00.00 385967 N 0 0 0
0:00:00.00 386293 N 0 0 0
0:00:00.00 386609 N 0 0 0
0:00:00.00 386923 N 0 0 0
0:00:00.00 387232 N 0 0 0
0:00:00.00 387536 N 0 0 0
0:00:00.00 387832 N 0 0 0
0:00:00.00 388143 N 0 0 0
0:00:00.00 388469 N 0 0 0
0:00:00.00 388787 N 0 0 0
0:00:00.00 389111 N 0 0 0
0:00:00.00 389428 N 0 0 0
0:00:00.00 389740 N 0 0 0
0:00:00.00 390037 N 0 0 0
0:00:00.00 390343 N 0 0 0
0:00:00.00 390677 N 0 0 0
0:00:00.00 390994 N 0 0 0
0:00:00.00 391302 N 0 0 0
0:00:00.00 391604 N 0 0 0
0:00:00.00 391898 N 0 0 0
0:00:00.00 392193 N 0 0 0
0:00:00.00 392477 N 0 0 0
0:00:00.00 392769 N 0 0 0
0:00:00.00 393057 N 0 0 0
0:00:00.00 393327 N 0 0 0
0:00:00.00 393583 N 0 0 0
0:00:00.00 393840 N 0 0 0
0:00:00.00 394105 N 0 0 0
0:00:00.00 394574 N 0 0 0
0:00:00.00 394812 N 0 0 0
0:00:00.00 395068 N 0 0 0
0:00:00.00 395321 N 0 0 0
0:00:00.00 395570 N 0 0 0
0:00:00.00 395806 N 0 0 0
0:00:00.00 396038 N 0 0 0
0:00:00.00 396275 N 0 0 0
0:00:00.00 396518 N 0 0 0
0:00:00.00 396763 N 0 0 0
0:00:00.00 397015 N 0 0 0
0:00:00.00 397287 N 0 0 0
0:00:00.00 397571 N 0 0 0
0:00:00.00 397845 N 0 0 0
0:00:00.00 398111 N 0 0 0
0:00:00.00 398385 N 0 0 0
0:00:00.00 398671 N 0 0 0
0:00:00.00 398970 N 0 0 0
0:00:00.00 399274 N 0 0 0
0:00:00.00 399589 N 0 0 0
0:00:00.00 399911 N 0 0 0
0:00:00.00 400219 N 0 0 0
0:00:00.00 400522 N 0 0 0
0:00:00.00 400829 N 0 0 0
0:00:00.00 401159 N 0 0 0
0:00:00.00 401488 N 0 0 0
0:00:00.00 401828 N 0 0 0
0:00:00.00 402163 N 0 0 0
0:00:00.00 402482 N 0 0 0
0:00:00.00 402804 N 0 0 0
0:00:00.00 403133 N 0 0 0
0:00:00.00 403475 N 0 0 0
0:00:00.00 403810 N 0 0 0
0:00:00.00 404150 N 0 0 0
0:00:00.00 404483 N 0 0 0
0:00:00.00 404793 N 0 0 0
0:00:00.00 405101 N 0 0 0
0:00:00.00 405405 N 0 0 0
0:00:00.00 405725 N 0 0 0
0:00:00.00 406044 N 0 0 0
0:00:00.00 406359 N 0 0 0
0:00:00.00 406687 N 0 0 0
0:00:00.00 406993 N 0 0 0
0:00:00.00 407304 N 0 0 0
0:00:00.00 407628 N 0 0 0
0:00:00.00 407956 N 0 0 0
0:00:00.00 408287 N 0 0 0
0:00:00.00 408616 N 0 0 0
0:00:00.00 408937 N 0 0 0
0:00:00.00 409230 N 0 0 0
0:00:00.00 409522 N 0 0 0
0:00:00.00 409831 N 0 0 0
0:00:00.00 410173 N 0 0 0
0:00:00.00 410497 N 0 0 0
0:00:00.00 410816 N 0 0 0
0:00:00.00 411142 N 0 0 0
0:00:00.00 411455 N 0 0 0
0:00:00.00 411755 N 0 0 0
0:00:00.00 412070 N 0 0 0
0:00:00.00 412403 N 0 0 0
0:00:00.00 412731 N 0 0 0
0:00:00.00 413023 N 0 0 0
0:00:00.00 413303 N 0 0 0
0:00:00.00 413575 N 0 0 0
0:00:00.00 413836 N 0 0 0
0:00:00.00 414092 N 0 0 0
0:00:00.00 414360 N 0 0 0
0:00:00.00 414632 N 0 0 0
0:00:00.00 414904 N 0 0 0
0:00:00.00 415166 N 0 0 0
0:00:00.00 415422 N 0 0 0
0:00:00.00 415688 N 0 0 0
0:00:00.00 415951 N 0 0 0
0:00:00.00 416218 N 0 0 0
0:00:00.00 416500 N 0 0 0
0:00:00.00 416790 N 0 0 0
0:00:00.00 417092 N 0 0 0
0:00:00.00 417393 N 0 0 0
0:00:00.00 417690 N 0 0 0
0:00:00.00 417998 N 0 0 0
0:00:00.00 418275 N 0 0 0
0:00:00.00 418639 N 0 0 0
0:00:00.00 418977 N 0 0 0
0:00:00.00 419306 N 0 0 0
0:00:00.00 419629 N 0 0 0
0:00:00.00 419933 N 0 0 0
0:00:00.00 420250 N 0 0 0
0:00:00.00 420575 N 0 0 0
0:00:00.00 420896 N 0 0 0
0:00:00.00 421234 N 0 0 0
0:00:00.00 421565 N 0 0 0
0:00:00.00 421882 N 0 0 0
0:00:00.00 422194 N 0 0 0
0:00:00.00 422514 N 0 0 0
0:00:00.00 422843 N 0 0 0
0:00:00.00 423173 N 0 0 0
0:00:00.00 423515 N 0 0 0
0:00:00.00 423842 N 0 0 0
0:00:00.00 424161 N 0 0 0
0:00:00.00 424467 N 0 0 0
0:00:00.00 424780 N 0 0 0
0:00:00.00 425102 N 0 0 0
0:00:00.00 425421 N 0 0 0
0:00:00.00 425741 N 0 0 0
0:00:00.00 426055 N 0 0 0
0:00:00.00 426368 N 0 0 0
0:00:00.00 426679 N 0 0 0
0:00:00.00 427000 N 0 0 0
0:00:00.00 427345 N 0 0 0
0:00:00.00 427680 N 0 0 0
0:00:00.00 428022 N 0 0 0
0:00:00.00 428344 N 0 0 0
0:00:00.00 428666 N 0 0 0
0:00:00.00 428983 N 0 0 0
0:00:00.00 429318 N 0 0 0
0:00:00.00 429671 N 0 0 0
0:00:00.00 430002 N 0 0 0
0:00:00.00 430335 N 0 0 0
0:00:00.00 430655 N 0 0 0
0:00:00.00 430974 N 0 0 0
0:00:00.00 431287 N 0 0 0
0:00:00.00 431618 N 0 0 0
0:00:00.00 431960 N 0 0 0
0:00:00.00 432286 N 0 0 0
0:00:00.00 432587 N 0 0 0
0:00:00.00 432869 N 0 0 0
0:00:00.00 433139 N 0 0 0
0:00:00.00 433408 N 0 0 0
0:00:00.00 433672 N 0 0 0
0:00:00.00 433958 N 0 0 0
0:00:00.00 434246 N 0 0 0
0:00:00.00 434531 N 0 0 0
0:00:00.00 434810 N 0 0 0
0:00:00.00 435082 N 0 0 0
0:00:00.00 435359 N 0 0 0
0:00:00.00 435636 N 0 0 0
0:00:00.00 435913 N 0 0 0
0:00:00.00 436198 N 0 0 0
0:00:00.00 436486 N 0 0 0
0:00:00.00 436752 N 0 0 0
0:00:00.00 437004 N 0 0 0
0:00:00.00 437256 N 0 0 0
0:00:00.00 437512 N 0 0 0
0:00:00.00 437776 N 0 0 0
0:00:00.00 438039 N 0 0 0
0:00:00.00 438305 N 0 0 0
0:00:00.00 438590 N 0 0 0
0:00:00.00 438867 N 0 0 0
0:00:00.00 439135 N 0 0 0
0:00:00.00 439405 N 0 0 0
0:00:00.00 439684 N 0 0 0
0:00:00.00 439978 N 0 0 0
0:00:00.00 440273 N 0 0 0
0:00:00.00 440573 N 0 0 0
0:00:00.00 440896 N 0 0 0
0:00:00.00 441202 N 0 0 0
0:00:00.00 441508 N 0 0 0
0:00:00.00 441812 N 0 0 0
0:00:00.00 442138 N 0 0 0
0:00:00.00 442480 N 0 0 0
0:00:00.00 442813 N 0 0 0
0:00:00.00 443155 N 0 0 0
0:00:00.00 443479 N 0 0 0
0:00:00.00 443788 N 0 0 0
0:00:00.00 444101 N 0 0 0
0:00:00.00 444433 N 0 0 0
0:00:00.00 444773 N 0 0 0
0:00:00.00 445106 N 0 0 0
0:00:00.00 445450 N 0 0 0
0:00:00.00 445777 N 0 0 0
0:00:00.00 446087 N 0 0 0
0:00:00.00 446407 N 0 0 0
0:00:00.00 446744 N 0 0 0
0:00:00.00 447079 N 0 0 0
0:00:00.00 447406 N 0 0 0
0:00:00.00 447737 N 0 0 0
0:00:00.00 448047 N 0 0 0
0:00:00.00 448355 N 0 0 0
0:00:00.00 448673 N 0 0 0
0:00:00.00 449006 N 0 0 0
0:00:00.00 449336 N 0 0 0
0:00:00.00 449653 N 0 0 0
0:00:00.00 449969 N 0 0 0
0:00:00.00 450277 N 0 0 0
0:00:00.00 450578 N 0 0 0
0:00:00.00 450895 N 0 0 0
0:00:00.00 451213 N 0 0 0
0:00:00.00 451537 N 0 0 0
0:00:00.00 451847 N 0 0 0
0:00:00.00 452144 N 0 0 0
0:00:00.00 452452 N 0 0 0
0:00:00.00 452747 N 0 0 0
0:00:00.00 453037 N 0 0 0
0:00:00.00 453348 N 0 0 0
0:00:00.00 453672 N 0 0 0
0:00:00.00 453985 N 0 0 0
0:00:00.00 454279 N 0 0 0
0:00:00.00 454585 N 0 0 0
0:00:00.00 454891 N 0 0 0
0:00:00.00 455198 N 0 0 0
0:00:00.00 455517 N 0 0 0
0:00:00.00 455845 N 0 0 0
0:00:00.00 456174 N 0 0 0
0:00:00.00 456482 N 0 0 0
0:00:00.00 456799 N 0 0 0
0:00:00.00 457117 N 0 0 0
0:00:00.00 457443 N 0 0 0
0:00:00.00 457789 N 0 0 0
0:00:00.00 458120 N 0 0 0
0:00:00.00 458453 N 0 0 0
0:00:00.00 458771 N 0 0 0
0:00:00.00 459092 N 0 0 0
0:00:00.00 459419 N 0 0 0
0:00:00.00 459756 N 0 0 0
0:00:00.00 460098 N 0 0 0
0:00:00.00 460436 N 0 0 0
0:00:00.00 460764 N 0 0 0
0:00:00.00 461079 N 0 0 0
0:00:00.00 461403 N 0 0 0
0:00:00.00 461740 N 0 0 0
0:00:00.00 462064 N 0 0 0
0:00:00.00 462389 N 0 0 0
0:00:00.00 462713 N 0 0 0
0:00:00.00 463034 N 0 0 0
0:00:00.00 463342 N 0 0 0
0:00:00.00 463669 N 0 0 0
0:00:00.00 464006 N 0 0 0
0:00:00.00 464341 N 0 0 0
0:00:00.00 464672 N 0 0 0
0:00:00.00 464989 N 0 0 0
0:00:00.00 465298 N 0 0 0
0:00:00.00 465595 N 0 0 0
0:00:00.00 465914 N 0 0 0
0:00:00.00 466238 N 0 0 0
0:00:00.00 466555 N 0 0 0
0:00:00.00 466875 N 0 0 0
0:00:00.00 467181 N 0 0 0
0:00:00.00 467480 N 0 0 0
0:00:00.00 467768 N 0 0 0
0:00:00.00 468059 N 0 0 0
0:00:00.00 468376 N 0 0 0
0:00:00.00 468697 N 0 0 0
0:00:00.00 468997 N 0 0 0
0:00:00.00 469300 N 0 0 0
0:00:00.00 469607 N 0 0 0
0:00:00.00 469912 N 0 0 0
0:00:00.00 470221 N 0 0 0
0:00:00.00 470563 N 0 0 0
0:00:00.00 470902 N 0 0 0
0:00:00.00 471222 N 0 0 0
0:00:00.00 471535 N 0 0 0
0:00:00.00 471845 N 0 0 0
0:00:00.00 472154 N 0 0 0
0:00:00.00 472462 N 0 0 0
0:00:00.00 472793 N 0 0 0
0:00:00.00 473114 N 0 0 0
0:00:00.00 473414 N 0 0 0
0:00:00.00 473717 N 0 0 0
0:00:00.00 474014 N 0 0 0
0:00:00.00 474318 N 0 0 0
0:00:00.00 474615 N 0 0 0
0:00:00.00 474921 N 0 0 0
0:00:00.00 475247 N 0 0 0
0:00:00.00 475562 N 0 0 0
0:00:00.00 475857 N 0 0 0
0:00:00.00 476161 N 0 0 0
0:00:00.00 476489 N 0 0 0
0:00:00.00 476789 N 0 0 0
0:00:00.00 477081 N 0 0 0
0:00:00.00 477380 N 0 0 0
0:00:00.00 477664 N 0 0 0
0:00:00.00 477931 N 0 0 0
0:00:00.00 478195 N 0 0 0
0:00:00.00 478451 N 0 0 0
0:00:00.00 478719 N 0 0 0
0:00:00.00 478989 N 0 0 0
0:00:00.00 479257 N 0 0 0
0:00:00.00 479538 N 0 0 0
0:00:00.00 479826 N 0 0 0
0:00:00.00 480100 N 0 0 0
0:00:00.00 480366 N 0 0 0
0:00:00.00 480652 N 0 0 0
0:00:00.00 480949 N 0 0 0
0:00:00.00 481261 N 0 0 0
0:00:00.00 481577 N 0 0 0
0:00:00.00 481909 N 0 0 0
0:00:00.00 482236 N 0 0 0
0:00:00.00 482544 N 0 0 0
0:00:00.00 482863 N 0 0 0
0:00:00.00 483187 N 0 0 0
0:00:00.00 483518 N 0 0 0
0:00:00.00 483849 N 0 0 0
0:00:00.00 484186 N 0 0 0
0:00:00.00 484511 N 0 0 0
0:00:00.00 484819 N 0 0 0
0:00:00.00 485129 N 0 0 0
0:00:00.00 485442 N 0 0 0
0:00:00.00 485775 N 0 0 0
0:00:00.00 486095 N 0 0 0
0:00:00.00 486423 N 0 0 0
0:00:00.00 486749 N 0 0 0
0:00:00.00 487058 N 0 0 0
0:00:00.00 487382 N 0 0 0
0:00:00.00 487723 N 0 0 0
0:00:00.00 488072 N 0 0 0
0:00:00.00 488408 N 0 0 0
0:00:00.00 488743 N 0 0 0
0:00:00.00 489067 N 0 0 0
0:00:00.00 489379 N 0 0 0
0:00:00.00 489640 N 0 0 0
0:00:00.00 490043 N 0 0 0
0:00:00.00 490396 N 0 0 0
0:00:00.00 490729 N 0 0 0
0:00:00.00 491054 N 0 0 0
0:00:00.00 491377 N 0 0 0
0:00:00.00 491697 N 0 0 0
0:00:00.00 492019 N 0 0 0
0:00:00.00 492345 N 0 0 0
0:00:00.00 492678 N 0 0 0
0:00:00.00 492986 N 0 0 0
0:00:00.00 493286 N 0 0 0
0:00:00.00 493594 N 0 0 0
0:00:00.00 493897 N 0 0 0
0:00:00.00 494219 N 0 0 0
0:00:00.00 494543 N 0 0 0
0:00:00.00 494876 N 0 0 0
0:00:00.00 495196 N 0 0 0
0:00:00.00 495504 N 0 0 0
0:00:00.00 495819 N 0 0 0
0:00:00.00 496129 N 0 0 0
0:00:00.00 496458 N 0 0 0
0:00:00.00 496795 N 0 0 0
0:00:00.00 497124 N 0 0 0
0:00:00.00 497434 N 0 0 0
0:00:00.00 497741 N 0 0 0
0:00:00.00 498055 N 0 0 0
0:00:00.00 498362 N 0 0 0
0:00:00.00 498676 N 0 0 0
0:00:00.00 499003 N 0 0 0
0:00:00.00 499338 N 0 0 0
0:00:00.00 499646 N 0 0 0
0:00:00.00 499950 N 0 0 0
0:00:00.00 500276 N 0 0 0
0:00:00.00 500594 N 0 0 0
0:00:00.00 500917 N 0 0 0
0:00:00.00 501239 N 0 0 0
0:00:00.00 501568 N 0 0 0
0:00:00.00 501881 N 0 0 0
0:00:00.00 502186 N 0 0 0
0:00:00.00 502522 N 0 0 0
0:00:00.00 502864 N 0 0 0
0:00:00.00 503192 N 0 0 0
0:00:00.00 503525 N 0 0 0
0:00:00.00 503858 N 0 0 0
0:00:00.00 504175 N 0 0 0
0:00:00.00 504490 N 0 0 0
0:00:00.00 504821 N 0 0 0
0:00:00.00 505159 N 0 0 0
0:00:00.00 505489 N 0 0 0
0:00:00.00 505816 N 0 0 0
0:00:00.00 506140 N 0 0 0
0:00:00.00 506452 N 0 0 0
0:00:00.00 506765 N 0 0 0
0:00:00.00 507100 N 0 0 0
0:00:00.00 507431 N 0 0 0
0:00:00.00 507753 N 0 0 0
0:00:00.00 508070 N 0 0 0
0:00:00.00 508381 N 0 0 0
0:00:00.00 508680 N 0 0 0
0:00:00.00 508975 N 0 0 0
0:00:00.00 509294 N 0 0 0
0:00:00.00 509616 N 0 0 0
0:00:00.00 509931 N 0 0 0
0:00:00.00 510253 N 0 0 0
0:00:00.00 510565 N 0 0 0
0:00:00.00 510880 N 0 0 0
0:00:00.00 511195 N 0 0 0
0:00:00.00 511531 N 0 0 0
0:00:00.00 511873 N 0 0 0
0:00:00.00 512192 N 0 0 0
0:00:00.00 512505 N 0 0 0
0:00:00.00 512809 N 0 0 0
0:00:00.00 513112 N 0 0 0
0:00:00.00 513401 N 0 0 0
0:00:00.00 513697 N 0 0 0
0:00:00.00 514004 N 0 0 0
0:00:00.00 514309 N 0 0 0
0:00:00.00 514607 N 0 0 0
0:00:00.00 514910 N 0 0 0
0:00:00.00 515234 N 0 0 0
0:00:00.00 515563 N 0 0 0
0:00:00.00 515896 N 0 0 0
0:00:00.00 516262 N 0 0 0
0:00:00.00 516613 N 0 0 0
0:00:00.00 516935 N 0 0 0
0:00:00.00 517253 N 0 0 0
0:00:00.00 517588 N 0 0 0
0:00:00.00 517921 N 0 0 0
0:00:00.00 518252 N 0 0 0
0:00:00.00 518596 N 0 0 0
0:00:00.00 518918 N 0 0 0
0:00:00.00 519223 N 0 0 0
0:00:00.00 519536 N 0 0 0
0:00:00.00 519860 N 0 0 0
0:00:00.00 520184 N 0 0 0
0:00:00.00 520510 N 0 0 0
0:00:00.00 520852 N 0 0 0
0:00:00.00 521167 N 0 0 0
0:00:00.00 521469 N 0 0 0
0:00:00.00 521777 N 0 0 0
0:00:00.00 522101 N 0 0 0
0:00:00.00 522423 N 0 0 0
0:00:00.00 522731 N 0 0 0
0:00:00.00 523046 N 0 0 0
0:00:00.00 523343 N 0 0 0
0:00:00.00 523629 N 0 0 0
0:00:00.00 523922 N 0 0 0
0:00:00.00 524221 N 0 0 0
0:00:00.00 524547 N 0 0 0
0:00:00.00 524873 N 0 0 0
0:00:00.00 525199 N 0 0 0
0:00:00.00 525512 N 0 0 0
0:00:00.00 525809 N 0 0 0
0:00:00.00 526117 N 0 0 0
0:00:00.00 526439 N 0 0 0
0:00:00.00 526770 N 0 0 0
0:00:00.00 527099 N 0 0 0
0:00:00.00 527429 N 0 0 0
0:00:00.00 527749 N 0 0 0
0:00:00.00 528043 N 0 0 0
0:00:00.00 528345 N 0 0 0
0:00:00.00 528660 N 0 0 0
0:00:00.00 528997 N 0 0 0
0:00:00.00 529321 N 0 0 0
0:00:00.00 529646 N 0 0 0
0:00:00.00 529979 N 0 0 0
0:00:00.00 530293 N 0 0 0
0:00:00.00 530608 N 0 0 0
0:00:00.00 530939 N 0 0 0
0:00:00.00 531288 N 0 0 0
0:00:00.00 531621 N 0 0 0
0:00:00.00 531941 N 0 0 0
0:00:00.00 532271 N 0 0 0
0:00:00.00 532589 N 0 0 0
0:00:00.00 532912 N 0 0 0
0:00:00.00 533254 N 0 0 0
0:00:00.00 533601 N 0 0 0
0:00:00.00 533938 N 0 0 0
0:00:00.00 534254 N 0 0 0
0:00:00.00 534580 N 0 0 0
0:00:00.00 534893 N 0 0 0
0:00:00.00 535217 N 0 0 0
0:00:00.00 535547 N 0 0 0
0:00:00.00 535873 N 0 0 0
0:00:00.00 536177 N 0 0 0
0:00:00.00 536483 N 0 0 0
0:00:00.00 536801 N 0 0 0
0:00:00.00 537120 N 0 0 0
0:00:00.00 537457 N 0 0 0
0:00:00.00 537779 N 0 0 0
0:00:00.00 538103 N 0 0 0
0:00:00.00 538400 N 0 0 0
0:00:00.00 538679 N 0 0 0
0:00:00.00 538976 N 0 0 0
0:00:00.00 539264 N 0 0 0
0:00:00.00 539559 N 0 0 0
0:00:00.00 539872 N 0 0 0
0:00:00.00 540196 N 0 0 0
0:00:00.00 540517 N 0 0 0
0:00:00.00 540828 N 0 0 0
0:00:00.00 541145 N 0 0 0
0:00:00.00 541474 N 0 0 0
0:00:00.00 541804 N 0 0 0
0:00:00.00 542144 N 0 0 0
0:00:00.00 542482 N 0 0 0
0:00:00.00 542804 N 0 0 0
0:00:00.00 543114 N 0 0 0
0:00:00.00 543436 N 0 0 0
0:00:00.00 543758 N 0 0 0
0:00:00.00 544082 N 0 0 0
0:00:00.00 544414 N 0 0 0
0:00:00.00 544738 N 0 0 0
0:00:00.00 545051 N 0 0 0
0:00:00.00 545355 N 0 0 0
0:00:00.00 545672 N 0 0 0
0:00:00.00 546003 N 0 0 0
0:00:00.00 546332 N 0 0 0
0:00:00.00 546669 N 0 0 0
0:00:00.00 546989 N 0 0 0
0:00:00.00 547310 N 0 0 0
0:00:00.00 547623 N 0 0 0
0:00:00.00 547936 N 0 0 0
0:00:00.00 548271 N 0 0 0
0:00:00.00 548597 N 0 0 0
0:00:00.00 548919 N 0 0 0
0:00:00.00 549236 N 0 0 0
0:00:00.00 549554 N 0 0 0
0:00:00.00 549859 N 0 0 0
0:00:00.00 550174 N 0 0 0
0:00:00.00 550508 N 0 0 0
0:00:00.00 550838 N 0 0 0
0:00:00.00 551162 N 0 0 0
0:00:00.00 551470 N 0 0 0
0:00:00.00 551781 N 0 0 0
0:00:00.00 552085 N 0 0 0
0:00:00.00 552395 N 0 0 0
0:00:00.00 552731 N 0 0 0
0:00:00.00 553048 N 0 0 0
0:00:00.00 553360 N 0 0 0
0:00:00.00 553664 N 0 0 0
0:00:00.00 553966 N 0 0 0
0:00:00.00 554269 N 0 0 0
0:00:00.00 554578 N 0 0 0
0:00:00.00 554915 N 0 0 0
0:00:00.00 555241 N 0 0 0
0:00:00.00 555545 N 0 0 0
0:00:00.00 555849 N 0 0 0
0:00:00.00 556160 N 0 0 0
0:00:00.00 556477 N 0 0 0
0:00:00.00 556798 N 0 0 0
0:00:00.00 557141 N 0 0 0
0:00:00.00 557482 N 0 0 0
0:00:00.00 557813 N 0 0 0
0:00:00.00 558131 N 0 0 0
0:00:00.00 558461 N 0 0 0
0:00:00.00 558792 N 0 0 0
0:00:00.00 559118 N 0 0 0
0:00:00.00 559465 N 0 0 0
0:00:00.00 559798 N 0 0 0
0:00:00.00 560108 N 0 0 0
0:00:00.00 560403 N 0 0 0
0:00:00.00 560713 N 0 0 0
0:00:00.00 561035 N 0 0 0
0:00:00.00 561357 N 0 0 0
0:00:00.00 561683 N 0 0 0
0:00:00.00 562009 N 0 0 0
0:00:00.00 562313 N 0 0 0
0:00:00.00 562622 N 0 0 0
0:00:00.00 562928 N 0 0 0
0:00:00.00 563242 N 0 0 0
0:00:00.00 563558 N 0 0 0
0:00:00.00 563882 N 0 0 0
0:00:00.00 564203 N 0 0 0
0:00:00.00 564507 N 0 0 0
0:00:00.00 564818 N 0 0 0
0:00:00.00 565128 N 0 0 0
0:00:00.00 565456 N 0 0 0
0:00:00.00 565781 N 0 0 0
0:00:00.00 566114 N 0 0 0
0:00:00.00 566446 N 0 0 0
0:00:00.00 566752 N 0 0 0
0:00:00.00 567065 N 0 0 0
0:00:00.00 567387 N 0 0 0
0:00:00.00 567725 N 0 0 0
0:00:00.00 568053 N 0 0 0
0:00:00.00 568381 N 0 0 0
0:00:00.00 568708 N 0 0 0
0:00:00.00 569007 N 0 0 0
0:00:00.00 569308 N 0 0 0
0:00:00.00 569623 N 0 0 0
0:00:00.00 569952 N 0 0 0
0:00:00.00 570274 N 0 0 0
0:00:00.00 570587 N 0 0 0
0:00:00.00 570906 N 0 0 0
0:00:00.00 571214 N 0 0 0
0:00:00.00 571513 N 0 0 0
0:00:00.00 571817 N 0 0 0
0:00:00.00 572137 N 0 0 0
0:00:00.00 572459 N 0 0 0
0:00:00.00 572762 N 0 0 0
0:00:00.00 573066 N 0 0 0
0:00:00.00 573359 N 0 0 0
0:00:00.00 573655 N 0 0 0
0:00:00.00 573964 N 0 0 0
0:00:00.00 574285 N 0 0 0
0:00:00.00 574614 N 0 0 0
0:00:00.00 574929 N 0 0 0
0:00:00.00 575230 N 0 0 0
0:00:00.00 575537 N 0 0 0
0:00:00.00 575836 N 0 0 0
0:00:00.00 576151 N 0 0 0
0:00:00.00 576475 N 0 0 0
0:00:00.00 576801 N 0 0 0
0:00:00.00 577114 N 0 0 0
0:00:00.00 577420 N 0 0 0
0:00:00.00 577737 N 0 0 0
0:00:00.00 578054 N 0 0 0
0:00:00.00 578369 N 0 0 0
0:00:00.00 578711 N 0 0 0
0:00:00.00 579056 N 0 0 0
0:00:00.00 579375 N 0 0 0
0:00:00.00 579683 N 0 0 0
0:00:00.00 580009 N 0 0 0
0:00:00.00 580322 N 0 0 0
0:00:00.00 580630 N 0 0 0
0:00:00.00 580945 N 0 0 0
0:00:00.00 581267 N 0 0 0
0:00:00.00 581576 N 0 0 0
0:00:00.00 581868 N 0 0 0
0:00:00.00 582181 N 0 0 0
0:00:00.00 582496 N 0 0 0
0:00:00.00 582815 N 0 0 0
0:00:00.00 583141 N 0 0 0
0:00:00.00 583465 N 0 0 0
0:00:00.00 583781 N 0 0 0
0:00:00.00 584082 N 0 0 0
0:00:00.00 584390 N 0 0 0
0:00:00.00 584707 N 0 0 0
0:00:00.00 585031 N 0 0 0
0:00:00.00 585365 N 0 0 0
0:00:00.00 585698 N 0 0 0
0:00:00.00 586022 N 0 0 0
0:00:00.00 586336 N 0 0 0
0:00:00.00 586658 N 0 0 0
0:00:00.00 586985 N 0 0 0
0:00:00.00 587317 N 0 0 0
0:00:00.00 587646 N 0 0 0
0:00:00.00 587965 N 0 0 0
0:00:00.00 588281 N 0 0 0
0:00:00.00 588584 N 0 0 0
0:00:00.00 588899 N 0 0 0
0:00:00.00 589228 N 0 0 0
0:00:00.00 589549 N 0 0 0
0:00:00.00 589876 N 0 0 0
0:00:00.00 590197 N 0 0 0
0:00:00.00 590508 N 0 0 0
0:00:00.00 590809 N 0 0 0
0:00:00.00 591120 N 0 0 0
0:00:00.00 591457 N 0 0 0
0:00:00.00 591788 N 0 0 0
0:00:00.00 592115 N 0 0 0
0:00:00.00 592441 N 0 0 0
0:00:00.00 592763 N 0 0 0
0:00:00.00 593073 N 0 0 0
0:00:00.00 593397 N 0 0 0
0:00:00.00 593737 N 0 0 0
0:00:00.00 594068 N 0 0 0
0:00:00.00 594401 N 0 0 0
0:00:00.00 594718 N 0 0 0
0:00:00.00 595031 N 0 0 0
0:00:00.00 595334 N 0 0 0
0:00:00.00 595647 N 0 0 0
0:00:00.00 595978 N 0 0 0
0:00:00.00 596300 N 0 0 0
0:00:00.00 596612 N 0 0 0
0:00:00.00 596920 N 0 0 0
0:00:00.00 597224 N 0 0 0
0:00:00.00 597532 N 0 0 0
0:00:00.00 597847 N 0 0 0
0:00:00.00 598185 N 0 0 0
0:00:00.00 598509 N 0 0 0
0:00:00.00 598819 N 0 0 0
0:00:00.00 599130 N 0 0 0
0:00:00.00 599447 N 0 0 0
0:00:00.00 599760 N 0 0 0
0:00:00.00 600082 N 0 0 0
0:00:00.00 600426 N 0 0 0
0:00:00.00 600755 N 0 0 0
0:00:00.00 601083 N 0 0 0
0:00:00.00 601393 N 0 0 0
0:00:00.00 601718 N 0 0 0
0:00:00.00 602053 N 0 0 0
0:00:00.00 602390 N 0 0 0
0:00:00.00 602741 N 0 0 0
0:00:00.00 603072 N 0 0 0
0:00:00.00 603385 N 0 0 0
0:00:00.00 603700 N 0 0 0
0:00:00.00 604022 N 0 0 0
0:00:00.00 604346 N 0 0 0
0:00:00.00 604667 N 0 0 0
0:00:00.00 605002 N 0 0 0
0:00:00.00 605322 N 0 0 0
0:00:00.00 605619 N 0 0 0
0:00:00.00 605927 N 0 0 0
0:00:00.00 606247 N 0 0 0
0:00:00.00 606575 N 0 0 0
0:00:00.00 606910 N 0 0 0
0:00:00.00 607246 N 0 0 0
0:00:00.00 607563 N 0 0 0
0:00:00.00 607867 N 0 0 0
0:00:00.00 608177 N 0 0 0
0:00:00.00 608503 N 0 0 0
0:00:00.00 608834 N 0 0 0
0:00:00.00 609152 N 0 0 0
0:00:00.00 609484 N 0 0 0
0:00:00.00 609788 N 0 0 0
0:00:00.00 610085 N 0 0 0
0:00:00.00 610382 N 0 0 0
0:00:00.00 610681 N 0 0 0
0:00:00.00 610999 N 0 0 0
0:00:00.00 611312 N 0 0 0
0:00:00.00 611627 N 0 0 0
0:00:00.00 611955 N 0 0 0
0:00:00.00 612261 N 0 0 0
0:00:00.00 612571 N 0 0 0
0:00:00.00 612896 N 0 0 0
0:00:00.00 613238 N 0 0 0
0:00:00.00 613564 N 0 0 0
0:00:00.00 613886 N 0 0 0
0:00:00.00 614209 N 0 0 0
0:00:00.00 614520 N 0 0 0
0:00:00.00 614837 N 0 0 0
0:00:00.00 615166 N 0 0 0
0:00:00.00 615508 N 0 0 0
0:00:00.00 615832 N 0 0 0
0:00:00.00 616145 N 0 0 0
0:00:00.00 616462 N 0 0 0
0:00:00.00 616766 N 0 0 0
0:00:00.00 617081 N 0 0 0
0:00:00.00 617418 N 0 0 0
0:00:00.00 617762 N 0 0 0
0:00:00.00 618100 N 0 0 0
0:00:00.00 618421 N 0 0 0
0:00:00.00 618748 N 0 0 0
0:00:00.00 619061 N 0 0 0
0:00:00.00 619385 N 0 0 0
0:00:00.00 619724 N 0 0 0
0:00:00.00 620068 N 0 0 0
0:00:00.00 620392 N 0 0 0
0:00:00.00 620707 N 0 0 0
0:00:00.00 621029 N 0 0 0
0:00:00.00 621346 N 0 0 0
0:00:00.00 621679 N 0 0 0
0:00:00.00 622015 N 0 0 0
0:00:00.00 622355 N 0 0 0
0:00:00.00 622667 N 0 0 0
0:00:00.00 622976 N 0 0 0
0:00:00.00 623288 N 0 0 0
0:00:00.00 623588 N 0 0 0
0:00:00.00 623896 N 0 0 0
0:00:00.00 624199 N 0 0 0
0:00:00.00 624503 N 0 0 0
0:00:00.00 624798 N 0 0 0
0:00:00.00 625084 N 0 0 0
0:00:00.00 625387 N 0 0 0
0:00:00.00 625693 N 0 0 0
0:00:00.00 626013 N 0 0 0
0:00:00.00 626348 N 0 0 0
0:00:00.00 626683 N 0 0 0
0:00:00.00 626998 N 0 0 0
0:00:00.00 627304 N 0 0 0
0:00:00.00 627624 N 0 0 0
0:00:00.00 627955 N 0 0 0
0:00:00.00 628286 N 0 0 0
0:00:00.00 628623 N 0 0 0
0:00:00.00 628963 N 0 0 0
0:00:00.00 629282 N 0 0 0
0:00:00.00 629586 N 0 0 0
0:00:00.00 629908 N 0 0 0
0:00:00.00 630232 N 0 0 0
0:00:00.00 630560 N 0 0 0
0:00:00.00 630886 N 0 0 0
0:00:00.00 631202 N 0 0 0
0:00:00.00 631516 N 0 0 0
0:00:00.00 631814 N 0 0 0
0:00:00.00 632128 N 0 0 0
0:00:00.00 632450 N 0 0 0
0:00:00.00 632765 N 0 0 0
0:00:00.00 633085 N 0 0 0
0:00:00.00 633389 N 0 0 0
0:00:00.00 633688 N 0 0 0
0:00:00.00 633978 N 0 0 0
0:00:00.00 634279 N 0 0 0
0:00:00.00 634603 N 0 0 0
0:00:00.00 634934 N 0 0 0
0:00:00.00 635267 N 0 0 0
0:00:00.00 635594 N 0 0 0
0:00:00.00 635922 N 0 0 0
0:00:00.00 636239 N 0 0 0
0:00:00.00 636572 N 0 0 0
0:00:00.00 636925 N 0 0 0
0:00:00.00 637265 N 0 0 0
0:00:00.00 637605 N 0 0 0
0:00:00.00 637933 N 0 0 0
0:00:00.00 638262 N 0 0 0
0:00:00.00 638586 N 0 0 0
0:00:00.00 638924 N 0 0 0
0:00:00.00 639268 N 0 0 0
0:00:00.00 639598 N 0 0 0
0:00:00.00 639925 N 0 0 0
0:00:00.00 640238 N 0 0 0
0:00:00.00 640555 N 0 0 0
0:00:00.00 640870 N 0 0 0
0:00:00.00 641200 N 0 0 0
0:00:00.00 641533 N 0 0 0
0:00:00.00 641853 N 0 0 0
0:00:00.00 642161 N 0 0 0
0:00:00.00 642465 N 0 0 0
0:00:00.00 642778 N 0 0 0
0:00:00.00 643090 N 0 0 0
0:00:00.00 643414 N 0 0 0
0:00:00.00 643747 N 0 0 0
0:00:00.00 644060 N 0 0 0
0:00:00.00 644366 N 0 0 0
0:00:00.00 644670 N 0 0 0
0:00:00.00 644981 N 0 0 0
0:00:00.00 645287 N 0 0 0
0:00:00.00 645604 N 0 0 0
0:00:00.00 645948 N 0 0 0
0:00:00.00 646268 N 0 0 0
0:00:00.00 646576 N 0 0 0
0:00:00.00 646893 N 0 0 0
0:00:00.00 647217 N 0 0 0
0:00:00.00 647548 N 0 0 0
0:00:00.00 647881 N 0 0 0
0:00:00.00 648229 N 0 0 0
0:00:00.00 648558 N 0 0 0
0:00:00.00 648873 N 0 0 0
0:00:00.00 649197 N 0 0 0
0:00:00.00 649537 N 0 0 0
0:00:00.00 649876 N 0 0 0
