0:00:00.00 18 N 0 0 0
0:00:00.00 293 N 0 0 0
0:00:00.00 614 N 0 0 0
0:00:00.00 902 N 0 0 0
0:00:00.00 1188 N 0 0 0
0:00:00.00 1460 N 0 0 0
0:00:00.00 1750 N 0 0 0
0:00:00.00 2063 N 0 0 0
0:00:00.00 2360 N 0 0 0
0:00:00.00 2651 N 0 0 0
0:00:00.00 2941 N 0 0 0
0:00:00.00 3231 N 0 0 0
0:00:00.00 3524 N 0 0 0
0:00:00.00 3796 N 0 0 0
0:00:00.00 4102 N 0 0 0
0:00:00.00 4406 N 0 0 0
0:00:00.00 4703 N 0 0 0
0:00:00.00 4995 N 0 0 0
0:00:00.00 5281 N 0 0 0
0:00:00.00 5571 N 0 0 0
0:00:00.00 5850 N 0 0 0
0:00:00.00 6143 N 0 0 0
0:00:00.00 6451 N 0 0 0
0:00:00.00 6745 N 0 0 0
0:00:00.00 7042 N 0 0 0
0:00:00.00 7333 N 0 0 0
0:00:00.00 7621 N 0 0 0
0:00:00.00 7902 N 0 0 0
0:00:00.00 8185 N 0 0 0
0:00:00.00 8492 N 0 0 0
0:00:00.00 8795 N 0 0 0
0:00:00.00 9088 N 0 0 0
0:00:00.00 9378 N 0 0 0
0:00:00.00 9682 N 0 0 0
0:00:00.00 9945 N 0 0 0
0:00:00.00 10224 N 0 0 0
0:00:00.00 10526 N 0 0 0
0:00:00.00 10832 N 0 0 0
0:00:00.00 11128 N 0 0 0
0:00:00.00 11435 N 0 0 0
0:00:00.00 11729 N 0 0 0
0:00:00.00 11999 N 0 0 0
0:00:00.00 12280 N 0 0 0
0:00:00.00 12568 N 0 0 0
0:00:00.00 12877 N 0 0 0
0:00:00.00 13178 N 0 0 0
0:00:00.00 13473 N 0 0 0
0:00:00.00 13761 N 0 0 0
0:00:00.00 14053 N 0 0 0
0:00:00.00 14339 N 0 0 0
0:00:00.00 14611 N 0 0 0
0:00:00.00 14924 N 0 0 0
0:00:00.00 15226 N 0 0 0
0:00:00.00 15518 N 0 0 0
0:00:00.00 15818 N 0 0 0
0:00:00.00 16119 N 0 0 0
0:00:00.00 16416 N 0 0 0
0:00:00.00 16663 N 0 0 0
0:00:00.00 16960 N 0 0 0
0:00:00.00 17266 N 0 0 0
0:00:00.00 17564 N 0 0 0
0:00:00.00 17861 N 0 0 0
0:00:00.00 18149 N 0 0 0
0:00:00.00 18439 N 0 0 0
0:00:00.00 18716 N 0 0 0
0:00:00.00 19001 N 0 0 0
0:00:00.00 19318 N 0 0 0
0:00:00.00 19602 N 0 0 0
0:00:00.00 19910 N 0 0 0
0:00:00.00 20192 N 0 0 0
0:00:00.00 20495 N 0 0 0
0:00:00.00 20772 N 0 0 0
0:00:00.00 21056 N 0 0 0
0:00:00.00 21362 N 0 0 0
0:00:00.00 21667 N 0 0 0
0:00:00.00 21944 N 0 0 0
0:00:00.00 22235 N 0 0 0
0:00:00.00 22307 N 0 0 0
0:00:00.00 22379 N 0 0 0
0:00:00.00 22451 N 0 0 0
0:00:00.00 22531 N 0 0 0
0:00:00.00 22606 N 0 0 0
0:00:00.00 22680 N 0 0 0
0:00:00.00 22756 N 0 0 0
0:00:00.00 22829 N 0 0 0
0:00:00.00 22909 N 0 0 0
0:00:00.00 23101 N 0 0 0
0:00:00.00 23382 N 0 0 0
0:00:00.00 23587 N 0 0 0
0:00:00.00 23699 N 0 0 0
0:00:00.00 23998 N 0 0 0
0:00:00.00 24300 N 0 0 0
0:00:00.00 24590 N 0 0 0
0:00:00.00 24880 N 0 0 0
0:00:00.00 25159 N 0 0 0
0:00:00.00 25439 N 0 0 0
0:00:00.00 25747 N 0 0 0
0:00:00.00 26048 N 0 0 0
0:00:00.00 26341 N 0 0 0
0:00:00.00 26635 N 0 0 0
0:00:00.00 26926 N 0 0 0
0:00:00.00 27185 N 0 0 0
0:00:00.00 27468 N 0 0 0
0:00:00.00 27779 N 0 0 0
0:00:00.00 28084 N 0 0 0
0:00:00.00 28381 N 0 0 0
0:00:00.00 28676 N 0 0 0
0:00:00.00 28964 N 0 0 0
0:00:00.00 29250 N 0 0 0
0:00:00.00 29520 N 0 0 0
0:00:00.00 29813 N 0 0 0
0:00:00.00 30125 N 0 0 0
0:00:00.00 30415 N 0 0 0
0:00:00.00 30719 N 0 0 0
0:00:00.00 31005 N 0 0 0
0:00:00.00 31295 N 0 0 0
0:00:00.00 31574 N 0 0 0
0:00:00.00 31862 N 0 0 0
0:00:00.00 32161 N 0 0 0
0:00:00.00 32449 N 0 0 0
0:00:00.00 32737 N 0 0 0
0:00:00.00 33041 N 0 0 0
0:00:00.00 33327 N 0 0 0
0:00:00.00 33611 N 0 0 0
0:00:00.00 33889 N 0 0 0
0:00:00.00 34187 N 0 0 0
0:00:00.00 34492 N 0 0 0
0:00:00.00 34787 N 0 0 0
0:00:00.00 35086 N 0 0 0
0:00:00.00 35361 N 0 0 0
0:00:00.00 35665 N 0 0 0
0:00:00.00 35932 N 0 0 0
0:00:00.00 36218 N 0 0 0
0:00:00.00 36522 N 0 0 0
0:00:00.00 36821 N 0 0 0
0:00:00.00 37123 N 0 0 0
0:00:00.00 37409 N 0 0 0
0:00:00.00 37701 N 0 0 0
0:00:00.00 37980 N 0 0 0
0:00:00.00 38281 N 0 0 0
0:00:00.00 38565 N 0 0 0
0:00:00.00 38864 N 0 0 0
0:00:00.00 39157 N 0 0 0
0:00:00.00 39454 N 0 0 0
0:00:00.00 39748 N 0 0 0
0:00:00.00 40032 N 0 0 0
0:00:00.00 40304 N 0 0 0
0:00:00.00 40610 N 0 0 0
0:00:00.00 40903 N 0 0 0
0:00:00.00 41202 N 0 0 0
0:00:00.00 41503 N 0 0 0
0:00:00.00 41794 N 0 0 0
0:00:00.00 41868 N 0 0 0
0:00:00.00 41944 N 0 0 0
0:00:00.00 42016 N 0 0 0
0:00:00.00 42088 N 0 0 0
0:00:00.00 42161 N 0 0 0
0:00:00.00 42239 N 0 0 0
0:00:00.00 42311 N 0 0 0
0:00:00.00 42392 N 0 0 0
0:00:00.00 42644 N 0 0 0
0:00:00.00 42953 N 0 0 0
0:00:00.00 43245 N 0 0 0
0:00:00.00 43560 N 0 0 0
0:00:00.00 43837 N 0 0 0
0:00:00.00 44132 N 0 0 0
0:00:00.00 44206 N 0 0 0
0:00:00.00 44278 N 0 0 0
0:00:00.00 44352 N 0 0 0
0:00:00.00 44424 N 0 0 0
0:00:00.00 44498 N 0 0 0
0:00:00.00 44690 N 0 0 0
0:00:00.00 45000 N 0 0 0
0:00:00.00 45290 N 0 0 0
0:00:00.00 45365 N 0 0 0
0:00:00.00 45452 N 0 0 0
0:00:00.00 45526 N 0 0 0
0:00:00.00 45599 N 0 0 0
0:00:00.00 45749 N 0 0 0
0:00:00.00 45875 N 0 0 0
0:00:00.00 46181 N 0 0 0
0:00:00.00 46458 N 0 0 0
0:00:00.00 46746 N 0 0 0
0:00:00.00 47036 N 0 0 0
0:00:00.00 47333 N 0 0 0
0:00:00.00 47542 N 0 0 0
0:00:00.00 47628 N 0 0 0
0:00:00.00 47700 N 0 0 0
0:00:00.00 47774 N 0 0 0
0:00:00.00 47848 N 0 0 0
0:00:00.00 47921 N 0 0 0
0:00:00.00 48008 N 0 0 0
0:00:00.00 48082 N 0 0 0
0:00:00.00 48154 N 0 0 0
0:00:00.00 48231 N 0 0 0
0:00:00.00 48305 N 0 0 0
0:00:00.00 48407 N 0 0 0
0:00:00.00 48798 N 0 0 0
0:00:00.00 49084 N 0 0 0
0:00:00.00 49246 N 0 0 0
0:00:00.00 49367 N 0 0 0
0:00:00.00 49685 N 0 0 0
0:00:00.00 49932 N 0 0 0
0:00:00.00 50006 N 0 0 0
0:00:00.00 50251 N 0 0 0
0:00:00.00 50521 N 0 0 0
0:00:00.00 50593 N 0 0 0
0:00:00.00 50665 N 0 0 0
0:00:00.00 50809 N 0 0 0
0:00:00.00 50881 N 0 0 0
0:00:00.00 50953 N 0 0 0
0:00:00.00 51084 N 0 0 0
0:00:00.00 51158 N 0 0 0
0:00:00.00 51394 N 0 0 0
0:00:00.00 51593 N 0 0 0
0:00:00.00 51689 N 0 0 0
0:00:00.00 51986 N 0 0 0
0:00:00.00 52294 N 0 0 0
0:00:00.00 52580 N 0 0 0
0:00:00.00 52747 N 0 0 0
0:00:00.00 52832 N 0 0 0
0:00:00.00 52904 N 0 0 0
0:00:00.00 53053 N 0 0 0
0:00:00.00 53131 N 0 0 0
0:00:00.00 53203 N 0 0 0
0:00:00.00 53276 N 0 0 0
0:00:00.00 53348 N 0 0 0
0:00:00.00 53437 N 0 0 0
0:00:00.00 53509 N 0 0 0
0:00:00.00 53581 N 0 0 0
0:00:00.00 53658 N 0 0 0
0:00:00.00 53732 N 0 0 0
0:00:00.00 53863 N 0 0 0
0:00:00.00 53941 N 0 0 0
0:00:00.00 54014 N 0 0 0
0:00:00.00 54297 N 0 0 0
0:00:00.00 54560 N 0 0 0
0:00:00.00 54880 N 0 0 0
0:00:00.00 55150 N 0 0 0
0:00:00.00 55467 N 0 0 0
0:00:00.00 55787 N 0 0 0
0:00:00.00 56045 N 0 0 0
0:00:00.00 56327 N 0 0 0
0:00:00.00 56637 N 0 0 0
0:00:00.00 56932 N 0 0 0
0:00:00.00 57042 N 0 0 0
0:00:00.00 57218 N 0 0 0
0:00:00.00 57330 N 0 0 0
0:00:00.00 57402 N 0 0 0
0:00:00.00 57474 N 0 0 0
0:00:00.00 57548 N 0 0 0
0:00:00.00 57784 N 0 0 0
0:00:00.00 58095 N 0 0 0
0:00:00.00 58385 N 0 0 0
0:00:00.00 58673 N 0 0 0
0:00:00.00 58954 N 0 0 0
0:00:00.00 59269 N 0 0 0
0:00:00.00 59531 N 0 0 0
0:00:00.00 59810 N 0 0 0
0:00:00.00 60115 N 0 0 0
0:00:00.00 60413 N 0 0 0
0:00:00.00 60707 N 0 0 0
0:00:00.00 61009 N 0 0 0
0:00:00.00 61083 N 0 0 0
0:00:00.00 61155 N 0 0 0
0:00:00.00 61234 N 0 0 0
0:00:00.00 61306 N 0 0 0
0:00:00.00 61589 N 0 0 0
0:00:00.00 61852 N 0 0 0
0:00:00.00 62129 N 0 0 0
0:00:00.00 62437 N 0 0 0
0:00:00.00 62732 N 0 0 0
0:00:00.00 63032 N 0 0 0
0:00:00.00 63333 N 0 0 0
0:00:00.00 63608 N 0 0 0
0:00:00.00 63904 N 0 0 0
0:00:00.00 64181 N 0 0 0
0:00:00.00 64487 N 0 0 0
0:00:00.00 64769 N 0 0 0
0:00:00.00 65061 N 0 0 0
0:00:00.00 65338 N 0 0 0
0:00:00.00 65653 N 0 0 0
0:00:00.00 65932 N 0 0 0
0:00:00.00 66202 N 0 0 0
0:00:00.00 66501 N 0 0 0
0:00:00.00 66800 N 0 0 0
0:00:00.00 66935 N 0 0 0
0:00:00.00 67091 N 0 0 0
0:00:00.00 67390 N 0 0 0
0:00:00.00 67687 N 0 0 0
0:00:00.00 67981 N 0 0 0
0:00:00.00 68252 N 0 0 0
0:00:00.00 68544 N 0 0 0
0:00:00.00 68841 N 0 0 0
0:00:00.00 69138 N 0 0 0
0:00:00.00 69442 N 0 0 0
0:00:00.00 69707 N 0 0 0
0:00:00.00 69997 N 0 0 0
0:00:00.00 70279 N 0 0 0
0:00:00.00 70564 N 0 0 0
0:00:00.00 70870 N 0 0 0
0:00:00.00 71176 N 0 0 0
0:00:00.00 71451 N 0 0 0
0:00:00.00 71750 N 0 0 0
0:00:00.00 72054 N 0 0 0
0:00:00.00 72331 N 0 0 0
0:00:00.00 72617 N 0 0 0
0:00:00.00 72911 N 0 0 0
0:00:00.00 73202 N 0 0 0
0:00:00.00 73499 N 0 0 0
0:00:00.00 73809 N 0 0 0
0:00:00.00 74102 N 0 0 0
0:00:00.00 74381 N 0 0 0
0:00:00.00 74662 N 0 0 0
0:00:00.00 74932 N 0 0 0
0:00:00.00 75015 N 0 0 0
0:00:00.00 75089 N 0 0 0
0:00:00.00 75163 N 0 0 0
0:00:00.00 75235 N 0 0 0
0:00:00.00 75314 N 0 0 0
0:00:00.00 75553 N 0 0 0
0:00:00.00 75850 N 0 0 0
0:00:00.00 76151 N 0 0 0
0:00:00.00 76430 N 0 0 0
0:00:00.00 76702 N 0 0 0
0:00:00.00 76970 N 0 0 0
0:00:00.00 77260 N 0 0 0
0:00:00.00 77551 N 0 0 0
0:00:00.00 77841 N 0 0 0
0:00:00.00 78134 N 0 0 0
0:00:00.00 78426 N 0 0 0
0:00:00.00 78710 N 0 0 0
0:00:00.00 78984 N 0 0 0
0:00:00.00 79263 N 0 0 0
0:00:00.00 79556 N 0 0 0
0:00:00.00 79848 N 0 0 0
0:00:00.00 80140 N 0 0 0
0:00:00.00 80433 N 0 0 0
0:00:00.00 80725 N 0 0 0
0:00:00.00 81002 N 0 0 0
0:00:00.00 81270 N 0 0 0
0:00:00.00 81556 N 0 0 0
0:00:00.00 81848 N 0 0 0
0:00:00.00 82138 N 0 0 0
0:00:00.00 82352 N 0 0 0
0:00:00.00 82631 N 0 0 0
0:00:00.00 82924 N 0 0 0
0:00:00.00 83201 N 0 0 0
0:00:00.00 83480 N 0 0 0
0:00:00.00 83779 N 0 0 0
0:00:00.00 84074 N 0 0 0
0:00:00.00 84370 N 0 0 0
0:00:00.00 84676 N 0 0 0
0:00:00.00 84964 N 0 0 0
0:00:00.00 85253 N 0 0 0
0:00:00.00 85529 N 0 0 0
0:00:00.00 85822 N 0 0 0
0:00:00.00 86126 N 0 0 0
0:00:00.00 86416 N 0 0 0
0:00:00.00 86715 N 0 0 0
0:00:00.00 87008 N 0 0 0
0:00:00.00 87304 N 0 0 0
0:00:00.00 87581 N 0 0 0
0:00:00.00 87869 N 0 0 0
0:00:00.00 88173 N 0 0 0
0:00:00.00 88459 N 0 0 0
0:00:00.00 88769 N 0 0 0
0:00:00.00 89068 N 0 0 0
0:00:00.00 89359 N 0 0 0
0:00:00.00 89636 N 0 0 0
0:00:00.00 89932 N 0 0 0
0:00:00.00 90227 N 0 0 0
0:00:00.00 90520 N 0 0 0
0:00:00.00 90808 N 0 0 0
0:00:00.00 91109 N 0 0 0
0:00:00.00 91409 N 0 0 0
0:00:00.00 91694 N 0 0 0
0:00:00.00 91971 N 0 0 0
0:00:00.00 92268 N 0 0 0
0:00:00.00 92509 N 0 0 0
0:00:00.00 92846 N 0 0 0
0:00:00.00 93112 N 0 0 0
0:00:00.00 93409 N 0 0 0
0:00:00.00 93704 N 0 0 0
0:00:00.00 93973 N 0 0 0
0:00:00.00 94264 N 0 0 0
0:00:00.00 94559 N 0 0 0
0:00:00.00 94853 N 0 0 0
0:00:00.00 95153 N 0 0 0
0:00:00.00 95454 N 0 0 0
0:00:00.00 95756 N 0 0 0
0:00:00.00 96041 N 0 0 0
0:00:00.00 96318 N 0 0 0
0:00:00.00 96615 N 0 0 0
0:00:00.00 96890 N 0 0 0
0:00:00.00 97198 N 0 0 0
0:00:00.00 97497 N 0 0 0
0:00:00.00 97798 N 0 0 0
0:00:00.00 98086 N 0 0 0
0:00:00.00 98363 N 0 0 0
0:00:00.00 98660 N 0 0 0
0:00:00.00 98876 N 0 0 0
0:00:00.00 98948 N 0 0 0
0:00:00.00 99020 N 0 0 0
0:00:00.00 99092 N 0 0 0
0:00:00.00 99167 N 0 0 0
0:00:00.00 99248 N 0 0 0
0:00:00.00 99545 N 0 0 0
0:00:00.00 99846 N 0 0 0
0:00:00.00 100118 N 0 0 0
0:00:00.00 100352 N 0 0 0
0:00:00.00 100625 N 0 0 0
0:00:00.00 100904 N 0 0 0
0:00:00.00 101189 N 0 0 0
0:00:00.00 101480 N 0 0 0
0:00:00.00 101767 N 0 0 0
0:00:00.00 102064 N 0 0 0
0:00:00.00 102350 N 0 0 0
0:00:00.00 102620 N 0 0 0
0:00:00.00 102897 N 0 0 0
0:00:00.00 103180 N 0 0 0
0:00:00.00 103466 N 0 0 0
0:00:00.00 103756 N 0 0 0
0:00:00.00 104044 N 0 0 0
0:00:00.00 104341 N 0 0 0
0:00:00.00 104616 N 0 0 0
0:00:00.00 104882 N 0 0 0
0:00:00.00 105174 N 0 0 0
0:00:00.00 105453 N 0 0 0
0:00:00.00 105743 N 0 0 0
0:00:00.00 106042 N 0 0 0
0:00:00.00 106331 N 0 0 0
0:00:00.00 106621 N 0 0 0
0:00:00.00 106897 N 0 0 0
0:00:00.00 107177 N 0 0 0
0:00:00.00 107469 N 0 0 0
0:00:00.00 107759 N 0 0 0
0:00:00.00 108061 N 0 0 0
0:00:00.00 108358 N 0 0 0
0:00:00.00 108608 N 0 0 0
0:00:00.00 108686 N 0 0 0
0:00:00.00 108943 N 0 0 0
0:00:00.00 109220 N 0 0 0
0:00:00.00 109519 N 0 0 0
0:00:00.00 109807 N 0 0 0
0:00:00.00 109879 N 0 0 0
0:00:00.00 109951 N 0 0 0
0:00:00.00 110027 N 0 0 0
0:00:00.00 110108 N 0 0 0
0:00:00.00 110394 N 0 0 0
0:00:00.00 110680 N 0 0 0
0:00:00.00 110752 N 0 0 0
0:00:00.00 110830 N 0 0 0
0:00:00.00 110909 N 0 0 0
0:00:00.00 110993 N 0 0 0
0:00:00.00 111271 N 0 0 0
0:00:00.00 111499 N 0 0 0
0:00:00.00 111571 N 0 0 0
0:00:00.00 111649 N 0 0 0
0:00:00.00 111721 N 0 0 0
0:00:00.00 111793 N 0 0 0
0:00:00.00 111865 N 0 0 0
0:00:00.00 111937 N 0 0 0
0:00:00.00 112009 N 0 0 0
0:00:00.00 112081 N 0 0 0
0:00:00.00 112156 N 0 0 0
0:00:00.00 112457 N 0 0 0
0:00:00.00 112732 N 0 0 0
0:00:00.00 112806 N 0 0 0
0:00:00.00 112880 N 0 0 0
0:00:00.00 112952 N 0 0 0
0:00:00.00 113024 N 0 0 0
0:00:00.00 113096 N 0 0 0
0:00:00.00 113171 N 0 0 0
0:00:00.00 113326 N 0 0 0
0:00:00.00 113427 N 0 0 0
0:00:00.00 113501 N 0 0 0
0:00:00.00 113612 N 0 0 0
0:00:00.00 113911 N 0 0 0
0:00:00.00 114199 N 0 0 0
0:00:00.00 114507 N 0 0 0
0:00:00.00 114655 N 0 0 0
0:00:00.00 114755 N 0 0 0
0:00:00.00 114827 N 0 0 0
0:00:00.00 114903 N 0 0 0
0:00:00.00 114975 N 0 0 0
0:00:00.00 115099 N 0 0 0
0:00:00.00 115175 N 0 0 0
0:00:00.00 115384 N 0 0 0
0:00:00.00 115456 N 0 0 0
0:00:00.00 115533 N 0 0 0
0:00:00.00 115605 N 0 0 0
0:00:00.00 115677 N 0 0 0
0:00:00.00 115855 N 0 0 0
0:00:00.00 115949 N 0 0 0
0:00:00.00 116239 N 0 0 0
0:00:00.00 116521 N 0 0 0
0:00:00.00 116836 N 0 0 0
0:00:00.00 117126 N 0 0 0
0:00:00.00 117293 N 0 0 0
0:00:00.00 117412 N 0 0 0
0:00:00.00 117484 N 0 0 0
0:00:00.00 117560 N 0 0 0
0:00:00.00 117632 N 0 0 0
0:00:00.00 117706 N 0 0 0
0:00:00.00 117805 N 0 0 0
0:00:00.00 117977 N 0 0 0
0:00:00.00 118051 N 0 0 0
0:00:00.00 118125 N 0 0 0
0:00:00.00 118201 N 0 0 0
0:00:00.00 118289 N 0 0 0
0:00:00.00 118575 N 0 0 0
0:00:00.00 118876 N 0 0 0
0:00:00.00 119176 N 0 0 0
0:00:00.00 119477 N 0 0 0
0:00:00.00 119763 N 0 0 0
0:00:00.00 120038 N 0 0 0
0:00:00.00 120339 N 0 0 0
0:00:00.00 120620 N 0 0 0
0:00:00.00 120917 N 0 0 0
0:00:00.00 121226 N 0 0 0
0:00:00.00 121523 N 0 0 0
0:00:00.00 121810 N 0 0 0
0:00:00.00 122085 N 0 0 0
0:00:00.00 122380 N 0 0 0
0:00:00.00 122668 N 0 0 0
0:00:00.00 122958 N 0 0 0
0:00:00.00 123257 N 0 0 0
0:00:00.00 123563 N 0 0 0
0:00:00.00 123858 N 0 0 0
0:00:00.00 124137 N 0 0 0
0:00:00.00 124429 N 0 0 0
0:00:00.00 124715 N 0 0 0
0:00:00.00 125005 N 0 0 0
0:00:00.00 125307 N 0 0 0
0:00:00.00 125608 N 0 0 0
0:00:00.00 125910 N 0 0 0
0:00:00.00 126193 N 0 0 0
0:00:00.00 126473 N 0 0 0
0:00:00.00 126767 N 0 0 0
0:00:00.00 127053 N 0 0 0
0:00:00.00 127346 N 0 0 0
0:00:00.00 127651 N 0 0 0
0:00:00.00 127964 N 0 0 0
0:00:00.00 128245 N 0 0 0
0:00:00.00 128529 N 0 0 0
0:00:00.00 128817 N 0 0 0
0:00:00.00 129109 N 0 0 0
0:00:00.00 129382 N 0 0 0
0:00:00.00 129668 N 0 0 0
0:00:00.00 129953 N 0 0 0
0:00:00.00 130239 N 0 0 0
0:00:00.00 130504 N 0 0 0
0:00:00.00 130774 N 0 0 0
0:00:00.00 131058 N 0 0 0
0:00:00.00 131333 N 0 0 0
0:00:00.00 131614 N 0 0 0
0:00:00.00 131902 N 0 0 0
0:00:00.00 132205 N 0 0 0
0:00:00.00 132491 N 0 0 0
0:00:00.00 132763 N 0 0 0
0:00:00.00 133051 N 0 0 0
0:00:00.00 133337 N 0 0 0
0:00:00.00 133619 N 0 0 0
0:00:00.00 133920 N 0 0 0
0:00:00.00 134221 N 0 0 0
0:00:00.00 134527 N 0 0 0
0:00:00.00 134811 N 0 0 0
0:00:00.00 135088 N 0 0 0
0:00:00.00 135389 N 0 0 0
0:00:00.00 135680 N 0 0 0
0:00:00.00 135979 N 0 0 0
0:00:00.00 136287 N 0 0 0
0:00:00.00 136588 N 0 0 0
0:00:00.00 136858 N 0 0 0
0:00:00.00 137160 N 0 0 0
0:00:00.00 137430 N 0 0 0
0:00:00.00 137504 N 0 0 0
0:00:00.00 137747 N 0 0 0
0:00:00.00 138008 N 0 0 0
0:00:00.00 138307 N 0 0 0
0:00:00.00 138605 N 0 0 0
0:00:00.00 138904 N 0 0 0
0:00:00.00 139183 N 0 0 0
0:00:00.00 139471 N 0 0 0
0:00:00.00 139761 N 0 0 0
0:00:00.00 140047 N 0 0 0
0:00:00.00 140355 N 0 0 0
0:00:00.00 140657 N 0 0 0
0:00:00.00 140945 N 0 0 0
0:00:00.00 141239 N 0 0 0
0:00:00.00 141525 N 0 0 0
0:00:00.00 141815 N 0 0 0
0:00:00.00 142092 N 0 0 0
0:00:00.00 142402 N 0 0 0
0:00:00.00 142697 N 0 0 0
0:00:00.00 143005 N 0 0 0
0:00:00.00 143294 N 0 0 0
0:00:00.00 143564 N 0 0 0
0:00:00.00 143860 N 0 0 0
0:00:00.00 144144 N 0 0 0
0:00:00.00 144437 N 0 0 0
0:00:00.00 144738 N 0 0 0
0:00:00.00 145048 N 0 0 0
0:00:00.00 145350 N 0 0 0
0:00:00.00 145622 N 0 0 0
0:00:00.00 145904 N 0 0 0
0:00:00.00 146191 N 0 0 0
0:00:00.00 146479 N 0 0 0
0:00:00.00 146777 N 0 0 0
0:00:00.00 147078 N 0 0 0
0:00:00.00 147393 N 0 0 0
0:00:00.00 147670 N 0 0 0
0:00:00.00 147944 N 0 0 0
0:00:00.00 148243 N 0 0 0
0:00:00.00 148525 N 0 0 0
0:00:00.00 148819 N 0 0 0
0:00:00.00 149121 N 0 0 0
0:00:00.00 149429 N 0 0 0
0:00:00.00 149719 N 0 0 0
0:00:00.00 149998 N 0 0 0
0:00:00.00 150293 N 0 0 0
0:00:00.00 150577 N 0 0 0
0:00:00.00 150862 N 0 0 0
0:00:00.00 151159 N 0 0 0
0:00:00.00 151468 N 0 0 0
0:00:00.00 151742 N 0 0 0
0:00:00.00 151997 N 0 0 0
0:00:00.00 152287 N 0 0 0
0:00:00.00 152577 N 0 0 0
0:00:00.00 152865 N 0 0 0
0:00:00.00 153158 N 0 0 0
0:00:00.00 153457 N 0 0 0
0:00:00.00 153769 N 0 0 0
0:00:00.00 154064 N 0 0 0
0:00:00.00 154352 N 0 0 0
0:00:00.00 154645 N 0 0 0
0:00:00.00 154917 N 0 0 0
0:00:00.00 155196 N 0 0 0
0:00:00.00 155495 N 0 0 0
0:00:00.00 155808 N 0 0 0
0:00:00.00 156105 N 0 0 0
0:00:00.00 156384 N 0 0 0
0:00:00.00 156679 N 0 0 0
0:00:00.00 156964 N 0 0 0
0:00:00.00 157243 N 0 0 0
0:00:00.00 157540 N 0 0 0
0:00:00.00 157844 N 0 0 0
0:00:00.00 158144 N 0 0 0
0:00:00.00 158432 N 0 0 0
0:00:00.00 158702 N 0 0 0
0:00:00.00 158989 N 0 0 0
0:00:00.00 159280 N 0 0 0
0:00:00.00 159590 N 0 0 0
0:00:00.00 159878 N 0 0 0
0:00:00.00 160182 N 0 0 0
0:00:00.00 160472 N 0 0 0
0:00:00.00 160753 N 0 0 0
0:00:00.00 161046 N 0 0 0
0:00:00.00 161329 N 0 0 0
0:00:00.00 161611 N 0 0 0
0:00:00.00 161910 N 0 0 0
0:00:00.00 162218 N 0 0 0
0:00:00.00 162520 N 0 0 0
0:00:00.00 162803 N 0 0 0
0:00:00.00 163094 N 0 0 0
0:00:00.00 163382 N 0 0 0
0:00:00.00 163663 N 0 0 0
0:00:00.00 163935 N 0 0 0
0:00:00.00 164227 N 0 0 0
0:00:00.00 164540 N 0 0 0
0:00:00.00 164833 N 0 0 0
0:00:00.00 165119 N 0 0 0
0:00:00.00 165416 N 0 0 0
0:00:00.00 165685 N 0 0 0
0:00:00.00 165967 N 0 0 0
0:00:00.00 166266 N 0 0 0
0:00:00.00 166576 N 0 0 0
0:00:00.00 166874 N 0 0 0
0:00:00.00 167153 N 0 0 0
0:00:00.00 167449 N 0 0 0
0:00:00.00 167724 N 0 0 0
0:00:00.00 168012 N 0 0 0
0:00:00.00 168307 N 0 0 0
0:00:00.00 168613 N 0 0 0
0:00:00.00 168916 N 0 0 0
0:00:00.00 169204 N 0 0 0
0:00:00.00 169483 N 0 0 0
0:00:00.00 169778 N 0 0 0
0:00:00.00 170059 N 0 0 0
0:00:00.00 170354 N 0 0 0
0:00:00.00 170631 N 0 0 0
0:00:00.00 170914 N 0 0 0
0:00:00.00 171220 N 0 0 0
0:00:00.00 171500 N 0 0 0
0:00:00.00 171796 N 0 0 0
0:00:00.00 172073 N 0 0 0
0:00:00.00 172359 N 0 0 0
0:00:00.00 172656 N 0 0 0
0:00:00.00 172966 N 0 0 0
0:00:00.00 173250 N 0 0 0
0:00:00.00 173542 N 0 0 0
0:00:00.00 173837 N 0 0 0
0:00:00.00 174112 N 0 0 0
0:00:00.00 174391 N 0 0 0
0:00:00.00 174685 N 0 0 0
0:00:00.00 174987 N 0 0 0
0:00:00.00 175295 N 0 0 0
0:00:00.00 175585 N 0 0 0
0:00:00.00 175873 N 0 0 0
0:00:00.00 176161 N 0 0 0
0:00:00.00 176440 N 0 0 0
0:00:00.00 176731 N 0 0 0
0:00:00.00 177030 N 0 0 0
0:00:00.00 177340 N 0 0 0
0:00:00.00 177635 N 0 0 0
0:00:00.00 177917 N 0 0 0
0:00:00.00 178187 N 0 0 0
0:00:00.00 178465 N 0 0 0
0:00:00.00 178736 N 0 0 0
0:00:00.00 179044 N 0 0 0
0:00:00.00 179361 N 0 0 0
0:00:00.00 179671 N 0 0 0
0:00:00.00 179933 N 0 0 0
0:00:00.00 180236 N 0 0 0
0:00:00.00 180517 N 0 0 0
0:00:00.00 180794 N 0 0 0
0:00:00.00 181084 N 0 0 0
0:00:00.00 181384 N 0 0 0
0:00:00.00 181688 N 0 0 0
0:00:00.00 181980 N 0 0 0
0:00:00.00 182272 N 0 0 0
0:00:00.00 182558 N 0 0 0
0:00:00.00 182837 N 0 0 0
0:00:00.00 183125 N 0 0 0
0:00:00.00 183422 N 0 0 0
0:00:00.00 183733 N 0 0 0
0:00:00.00 184009 N 0 0 0
0:00:00.00 184284 N 0 0 0
0:00:00.00 184590 N 0 0 0
0:00:00.00 184874 N 0 0 0
0:00:00.00 185161 N 0 0 0
0:00:00.00 185429 N 0 0 0
0:00:00.00 185744 N 0 0 0
0:00:00.00 186041 N 0 0 0
0:00:00.00 186334 N 0 0 0
0:00:00.00 186628 N 0 0 0
0:00:00.00 186912 N 0 0 0
0:00:00.00 187191 N 0 0 0
0:00:00.00 187481 N 0 0 0
0:00:00.00 187780 N 0 0 0
0:00:00.00 188087 N 0 0 0
0:00:00.00 188383 N 0 0 0
0:00:00.00 188671 N 0 0 0
0:00:00.00 188962 N 0 0 0
0:00:00.00 189239 N 0 0 0
0:00:00.00 189522 N 0 0 0
0:00:00.00 189821 N 0 0 0
0:00:00.00 190080 N 0 0 0
0:00:00.00 190393 N 0 0 0
0:00:00.00 190678 N 0 0 0
0:00:00.00 190973 N 0 0 0
0:00:00.00 191264 N 0 0 0
0:00:00.00 191536 N 0 0 0
0:00:00.00 191826 N 0 0 0
0:00:00.00 192127 N 0 0 0
0:00:00.00 192433 N 0 0 0
0:00:00.00 192726 N 0 0 0
0:00:00.00 193018 N 0 0 0
0:00:00.00 193309 N 0 0 0
0:00:00.00 193585 N 0 0 0
0:00:00.00 193873 N 0 0 0
0:00:00.00 194170 N 0 0 0
0:00:00.00 194481 N 0 0 0
0:00:00.00 194776 N 0 0 0
0:00:00.00 195052 N 0 0 0
0:00:00.00 195349 N 0 0 0
0:00:00.00 195644 N 0 0 0
0:00:00.00 195908 N 0 0 0
0:00:00.00 196196 N 0 0 0
0:00:00.00 196510 N 0 0 0
0:00:00.00 196805 N 0 0 0
0:00:00.00 197095 N 0 0 0
0:00:00.00 197393 N 0 0 0
0:00:00.00 197678 N 0 0 0
0:00:00.00 197955 N 0 0 0
0:00:00.00 198245 N 0 0 0
0:00:00.00 198542 N 0 0 0
0:00:00.00 198850 N 0 0 0
0:00:00.00 199147 N 0 0 0
0:00:00.00 199418 N 0 0 0
0:00:00.00 199706 N 0 0 0
0:00:00.00 200003 N 0 0 0
0:00:00.00 200272 N 0 0 0
0:00:00.00 200570 N 0 0 0
0:00:00.00 200876 N 0 0 0
0:00:00.00 201175 N 0 0 0
0:00:00.00 201465 N 0 0 0
0:00:00.00 201764 N 0 0 0
0:00:00.00 202045 N 0 0 0
0:00:00.00 202318 N 0 0 0
0:00:00.00 202606 N 0 0 0
0:00:00.00 202912 N 0 0 0
0:00:00.00 203215 N 0 0 0
0:00:00.00 203508 N 0 0 0
0:00:00.00 203807 N 0 0 0
0:00:00.00 204080 N 0 0 0
0:00:00.00 204343 N 0 0 0
0:00:00.00 204638 N 0 0 0
0:00:00.00 204930 N 0 0 0
0:00:00.00 205232 N 0 0 0
0:00:00.00 205526 N 0 0 0
0:00:00.00 205821 N 0 0 0
0:00:00.00 206114 N 0 0 0
0:00:00.00 206393 N 0 0 0
0:00:00.00 206676 N 0 0 0
0:00:00.00 206968 N 0 0 0
0:00:00.00 207275 N 0 0 0
0:00:00.00 207576 N 0 0 0
0:00:00.00 207866 N 0 0 0
0:00:00.00 208168 N 0 0 0
0:00:00.00 208453 N 0 0 0
0:00:00.00 208724 N 0 0 0
0:00:00.00 209000 N 0 0 0
0:00:00.00 209284 N 0 0 0
0:00:00.00 209601 N 0 0 0
0:00:00.00 209885 N 0 0 0
0:00:00.00 210195 N 0 0 0
0:00:00.00 210478 N 0 0 0
0:00:00.00 210755 N 0 0 0
0:00:00.00 211041 N 0 0 0
0:00:00.00 211331 N 0 0 0
0:00:00.00 211637 N 0 0 0
0:00:00.00 211934 N 0 0 0
0:00:00.00 212229 N 0 0 0
0:00:00.00 212524 N 0 0 0
0:00:00.00 212803 N 0 0 0
0:00:00.00 213080 N 0 0 0
0:00:00.00 213368 N 0 0 0
0:00:00.00 213667 N 0 0 0
0:00:00.00 213953 N 0 0 0
0:00:00.00 214270 N 0 0 0
0:00:00.00 214556 N 0 0 0
0:00:00.00 214841 N 0 0 0
0:00:00.00 215116 N 0 0 0
0:00:00.00 215399 N 0 0 0
0:00:00.00 215694 N 0 0 0
0:00:00.00 216002 N 0 0 0
0:00:00.00 216299 N 0 0 0
0:00:00.00 216598 N 0 0 0
0:00:00.00 216889 N 0 0 0
0:00:00.00 217163 N 0 0 0
0:00:00.00 217445 N 0 0 0
0:00:00.00 217715 N 0 0 0
0:00:00.00 218027 N 0 0 0
0:00:00.00 218333 N 0 0 0
0:00:00.00 218619 N 0 0 0
0:00:00.00 218921 N 0 0 0
0:00:00.00 219200 N 0 0 0
0:00:00.00 219478 N 0 0 0
0:00:00.00 219762 N 0 0 0
0:00:00.00 220064 N 0 0 0
0:00:00.00 220369 N 0 0 0
0:00:00.00 220662 N 0 0 0
0:00:00.00 220966 N 0 0 0
0:00:00.00 221240 N 0 0 0
0:00:00.00 221542 N 0 0 0
0:00:00.00 221821 N 0 0 0
0:00:00.00 222115 N 0 0 0
0:00:00.00 222413 N 0 0 0
0:00:00.00 222710 N 0 0 0
0:00:00.00 223011 N 0 0 0
0:00:00.00 223313 N 0 0 0
0:00:00.00 223585 N 0 0 0
0:00:00.00 223868 N 0 0 0
0:00:00.00 224154 N 0 0 0
0:00:00.00 224462 N 0 0 0
0:00:00.00 224748 N 0 0 0
0:00:00.00 225041 N 0 0 0
0:00:00.00 225364 N 0 0 0
0:00:00.00 225641 N 0 0 0
0:00:00.00 225905 N 0 0 0
0:00:00.00 226190 N 0 0 0
0:00:00.00 226489 N 0 0 0
0:00:00.00 226791 N 0 0 0
0:00:00.00 227086 N 0 0 0
0:00:00.00 227394 N 0 0 0
0:00:00.00 227682 N 0 0 0
0:00:00.00 227959 N 0 0 0
0:00:00.00 228242 N 0 0 0
0:00:00.00 228530 N 0 0 0
0:00:00.00 228829 N 0 0 0
0:00:00.00 229120 N 0 0 0
0:00:00.00 229428 N 0 0 0
0:00:00.00 229720 N 0 0 0
0:00:00.00 229999 N 0 0 0
0:00:00.00 230272 N 0 0 0
0:00:00.00 230557 N 0 0 0
0:00:00.00 230870 N 0 0 0
0:00:00.00 231170 N 0 0 0
0:00:00.00 231466 N 0 0 0
0:00:00.00 231772 N 0 0 0
0:00:00.00 232056 N 0 0 0
0:00:00.00 232328 N 0 0 0
0:00:00.00 232609 N 0 0 0
0:00:00.00 232906 N 0 0 0
0:00:00.00 233199 N 0 0 0
0:00:00.00 233487 N 0 0 0
0:00:00.00 233806 N 0 0 0
0:00:00.00 234090 N 0 0 0
0:00:00.00 234365 N 0 0 0
0:00:00.00 234648 N 0 0 0
0:00:00.00 234936 N 0 0 0
0:00:00.00 235237 N 0 0 0
0:00:00.00 235535 N 0 0 0
0:00:00.00 235843 N 0 0 0
0:00:00.00 236133 N 0 0 0
0:00:00.00 236414 N 0 0 0
0:00:00.00 236696 N 0 0 0
0:00:00.00 236979 N 0 0 0
0:00:00.00 237276 N 0 0 0
0:00:00.00 237587 N 0 0 0
0:00:00.00 237875 N 0 0 0
0:00:00.00 238187 N 0 0 0
0:00:00.00 238473 N 0 0 0
0:00:00.00 238745 N 0 0 0
0:00:00.00 239027 N 0 0 0
0:00:00.00 239324 N 0 0 0
0:00:00.00 239623 N 0 0 0
0:00:00.00 239918 N 0 0 0
0:00:00.00 240228 N 0 0 0
0:00:00.00 240523 N 0 0 0
0:00:00.00 240800 N 0 0 0
0:00:00.00 241085 N 0 0 0
0:00:00.00 241371 N 0 0 0
0:00:00.00 241663 N 0 0 0
0:00:00.00 241960 N 0 0 0
0:00:00.00 242266 N 0 0 0
0:00:00.00 242564 N 0 0 0
0:00:00.00 242845 N 0 0 0
0:00:00.00 243128 N 0 0 0
0:00:00.00 243412 N 0 0 0
0:00:00.00 243711 N 0 0 0
0:00:00.00 244010 N 0 0 0
0:00:00.00 244298 N 0 0 0
0:00:00.00 244616 N 0 0 0
0:00:00.00 244895 N 0 0 0
0:00:00.00 245171 N 0 0 0
0:00:00.00 245452 N 0 0 0
0:00:00.00 245749 N 0 0 0
0:00:00.00 246049 N 0 0 0
0:00:00.00 246343 N 0 0 0
0:00:00.00 246656 N 0 0 0
0:00:00.00 246951 N 0 0 0
0:00:00.00 247225 N 0 0 0
0:00:00.00 247507 N 0 0 0
0:00:00.00 247779 N 0 0 0
0:00:00.00 248085 N 0 0 0
0:00:00.00 248375 N 0 0 0
0:00:00.00 248677 N 0 0 0
0:00:00.00 248978 N 0 0 0
0:00:00.00 249260 N 0 0 0
0:00:00.00 249550 N 0 0 0
0:00:00.00 249829 N 0 0 0
0:00:00.00 250128 N 0 0 0
0:00:00.00 250423 N 0 0 0
0:00:00.00 250718 N 0 0 0
0:00:00.00 251030 N 0 0 0
0:00:00.00 251327 N 0 0 0
0:00:00.00 251572 N 0 0 0
0:00:00.00 251878 N 0 0 0
0:00:00.00 252148 N 0 0 0
0:00:00.00 252445 N 0 0 0
0:00:00.00 252740 N 0 0 0
0:00:00.00 253048 N 0 0 0
0:00:00.00 253350 N 0 0 0
0:00:00.00 253629 N 0 0 0
0:00:00.00 253912 N 0 0 0
0:00:00.00 254196 N 0 0 0
0:00:00.00 254493 N 0 0 0
0:00:00.00 254794 N 0 0 0
0:00:00.00 255091 N 0 0 0
0:00:00.00 255409 N 0 0 0
0:00:00.00 255690 N 0 0 0
0:00:00.00 255969 N 0 0 0
0:00:00.00 256252 N 0 0 0
0:00:00.00 256538 N 0 0 0
0:00:00.00 256833 N 0 0 0
0:00:00.00 257135 N 0 0 0
0:00:00.00 257441 N 0 0 0
0:00:00.00 257735 N 0 0 0
0:00:00.00 258012 N 0 0 0
0:00:00.00 258298 N 0 0 0
0:00:00.00 258597 N 0 0 0
0:00:00.00 258878 N 0 0 0
0:00:00.00 259173 N 0 0 0
0:00:00.00 259484 N 0 0 0
0:00:00.00 259783 N 0 0 0
0:00:00.00 260066 N 0 0 0
0:00:00.00 260347 N 0 0 0
0:00:00.00 260627 N 0 0 0
0:00:00.00 260923 N 0 0 0
0:00:00.00 261227 N 0 0 0
0:00:00.00 261488 N 0 0 0
0:00:00.00 261801 N 0 0 0
0:00:00.00 262087 N 0 0 0
0:00:00.00 262368 N 0 0 0
0:00:00.00 262651 N 0 0 0
0:00:00.00 262944 N 0 0 0
0:00:00.00 263236 N 0 0 0
0:00:00.00 263531 N 0 0 0
0:00:00.00 263853 N 0 0 0
0:00:00.00 264139 N 0 0 0
0:00:00.00 264436 N 0 0 0
0:00:00.00 264695 N 0 0 0
0:00:00.00 264985 N 0 0 0
0:00:00.00 265279 N 0 0 0
0:00:00.00 265570 N 0 0 0
0:00:00.00 265882 N 0 0 0
0:00:00.00 266186 N 0 0 0
0:00:00.00 266470 N 0 0 0
0:00:00.00 266751 N 0 0 0
0:00:00.00 267035 N 0 0 0
0:00:00.00 267327 N 0 0 0
0:00:00.00 267620 N 0 0 0
0:00:00.00 267921 N 0 0 0
0:00:00.00 268229 N 0 0 0
0:00:00.00 268515 N 0 0 0
0:00:00.00 268807 N 0 0 0
0:00:00.00 269082 N 0 0 0
0:00:00.00 269375 N 0 0 0
0:00:00.00 269663 N 0 0 0
0:00:00.00 269959 N 0 0 0
0:00:00.00 270275 N 0 0 0
0:00:00.00 270571 N 0 0 0
0:00:00.00 270850 N 0 0 0
0:00:00.00 271109 N 0 0 0
0:00:00.00 271408 N 0 0 0
0:00:00.00 271687 N 0 0 0
0:00:00.00 271980 N 0 0 0
0:00:00.00 272293 N 0 0 0
0:00:00.00 272594 N 0 0 0
0:00:00.00 272880 N 0 0 0
0:00:00.00 273163 N 0 0 0
0:00:00.00 273443 N 0 0 0
0:00:00.00 273735 N 0 0 0
0:00:00.00 274028 N 0 0 0
0:00:00.00 274331 N 0 0 0
0:00:00.00 274639 N 0 0 0
0:00:00.00 274930 N 0 0 0
0:00:00.00 275202 N 0 0 0
0:00:00.00 275495 N 0 0 0
0:00:00.00 275787 N 0 0 0
0:00:00.00 276068 N 0 0 0
0:00:00.00 276361 N 0 0 0
0:00:00.00 276674 N 0 0 0
0:00:00.00 276970 N 0 0 0
0:00:00.00 277250 N 0 0 0
0:00:00.00 277533 N 0 0 0
0:00:00.00 277821 N 0 0 0
0:00:00.00 278109 N 0 0 0
0:00:00.00 278408 N 0 0 0
0:00:00.00 278721 N 0 0 0
0:00:00.00 279016 N 0 0 0
0:00:00.00 279302 N 0 0 0
0:00:00.00 279587 N 0 0 0
0:00:00.00 279871 N 0 0 0
0:00:00.00 280157 N 0 0 0
0:00:00.00 280445 N 0 0 0
0:00:00.00 280750 N 0 0 0
0:00:00.00 281057 N 0 0 0
0:00:00.00 281358 N 0 0 0
0:00:00.00 281648 N 0 0 0
0:00:00.00 281921 N 0 0 0
0:00:00.00 282215 N 0 0 0
0:00:00.00 282501 N 0 0 0
0:00:00.00 282793 N 0 0 0
0:00:00.00 283109 N 0 0 0
0:00:00.00 283408 N 0 0 0
0:00:00.00 283689 N 0 0 0
0:00:00.00 283972 N 0 0 0
0:00:00.00 284270 N 0 0 0
0:00:00.00 284560 N 0 0 0
0:00:00.00 284834 N 0 0 0
0:00:00.00 285156 N 0 0 0
0:00:00.00 285453 N 0 0 0
0:00:00.00 285743 N 0 0 0
0:00:00.00 286029 N 0 0 0
0:00:00.00 286310 N 0 0 0
0:00:00.00 286598 N 0 0 0
0:00:00.00 286884 N 0 0 0
0:00:00.00 287194 N 0 0 0
0:00:00.00 287514 N 0 0 0
0:00:00.00 287793 N 0 0 0
0:00:00.00 288076 N 0 0 0
0:00:00.00 288360 N 0 0 0
0:00:00.00 288648 N 0 0 0
0:00:00.00 288932 N 0 0 0
0:00:00.00 289224 N 0 0 0
0:00:00.00 289541 N 0 0 0
0:00:00.00 289838 N 0 0 0
0:00:00.00 290120 N 0 0 0
0:00:00.00 290408 N 0 0 0
0:00:00.00 290696 N 0 0 0
0:00:00.00 290984 N 0 0 0
0:00:00.00 291267 N 0 0 0
0:00:00.00 291582 N 0 0 0
0:00:00.00 291886 N 0 0 0
0:00:00.00 292172 N 0 0 0
0:00:00.00 292457 N 0 0 0
0:00:00.00 292747 N 0 0 0
0:00:00.00 293026 N 0 0 0
0:00:00.00 293294 N 0 0 0
0:00:00.00 293612 N 0 0 0
0:00:00.00 293913 N 0 0 0
0:00:00.00 294199 N 0 0 0
0:00:00.00 294493 N 0 0 0
0:00:00.00 294777 N 0 0 0
0:00:00.00 295065 N 0 0 0
0:00:00.00 295346 N 0 0 0
0:00:00.00 295636 N 0 0 0
0:00:00.00 295949 N 0 0 0
0:00:00.00 296246 N 0 0 0
0:00:00.00 296525 N 0 0 0
0:00:00.00 296825 N 0 0 0
0:00:00.00 297101 N 0 0 0
0:00:00.00 297385 N 0 0 0
0:00:00.00 297670 N 0 0 0
0:00:00.00 297981 N 0 0 0
0:00:00.00 298287 N 0 0 0
0:00:00.00 298577 N 0 0 0
0:00:00.00 298863 N 0 0 0
0:00:00.00 299149 N 0 0 0
0:00:00.00 299435 N 0 0 0
0:00:00.00 299714 N 0 0 0
0:00:00.00 300019 N 0 0 0
0:00:00.00 300326 N 0 0 0
0:00:00.00 300622 N 0 0 0
0:00:00.00 300915 N 0 0 0
0:00:00.00 301199 N 0 0 0
0:00:00.00 301486 N 0 0 0
0:00:00.00 301766 N 0 0 0
0:00:00.00 302071 N 0 0 0
0:00:00.00 302386 N 0 0 0
0:00:00.00 302665 N 0 0 0
0:00:00.00 302960 N 0 0 0
0:00:00.00 303244 N 0 0 0
0:00:00.00 303536 N 0 0 0
0:00:00.00 303818 N 0 0 0
0:00:00.00 304101 N 0 0 0
0:00:00.00 304412 N 0 0 0
0:00:00.00 304727 N 0 0 0
0:00:00.00 305005 N 0 0 0
0:00:00.00 305294 N 0 0 0
0:00:00.00 305584 N 0 0 0
0:00:00.00 305870 N 0 0 0
0:00:00.00 306151 N 0 0 0
0:00:00.00 306454 N 0 0 0
0:00:00.00 306760 N 0 0 0
0:00:00.00 307067 N 0 0 0
0:00:00.00 307364 N 0 0 0
0:00:00.00 307633 N 0 0 0
0:00:00.00 307921 N 0 0 0
0:00:00.00 308200 N 0 0 0
0:00:00.00 308491 N 0 0 0
0:00:00.00 308799 N 0 0 0
0:00:00.00 309094 N 0 0 0
0:00:00.00 309393 N 0 0 0
0:00:00.00 309668 N 0 0 0
0:00:00.00 309987 N 0 0 0
0:00:00.00 310255 N 0 0 0
0:00:00.00 310538 N 0 0 0
0:00:00.00 310853 N 0 0 0
0:00:00.00 311148 N 0 0 0
0:00:00.00 311441 N 0 0 0
0:00:00.00 311729 N 0 0 0
0:00:00.00 312021 N 0 0 0
0:00:00.00 312302 N 0 0 0
0:00:00.00 312588 N 0 0 0
0:00:00.00 312883 N 0 0 0
0:00:00.00 313191 N 0 0 0
0:00:00.00 313486 N 0 0 0
0:00:00.00 313785 N 0 0 0
0:00:00.00 314071 N 0 0 0
0:00:00.00 314357 N 0 0 0
0:00:00.00 314636 N 0 0 0
0:00:00.00 314933 N 0 0 0
0:00:00.00 315236 N 0 0 0
0:00:00.00 315549 N 0 0 0
0:00:00.00 315828 N 0 0 0
0:00:00.00 316120 N 0 0 0
0:00:00.00 316409 N 0 0 0
0:00:00.00 316688 N 0 0 0
0:00:00.00 316969 N 0 0 0
0:00:00.00 317279 N 0 0 0
0:00:00.00 317579 N 0 0 0
0:00:00.00 317873 N 0 0 0
0:00:00.00 318172 N 0 0 0
0:00:00.00 318456 N 0 0 0
0:00:00.00 318740 N 0 0 0
0:00:00.00 319019 N 0 0 0
0:00:00.00 319325 N 0 0 0
0:00:00.00 319624 N 0 0 0
0:00:00.00 319919 N 0 0 0
0:00:00.00 320215 N 0 0 0
0:00:00.00 320503 N 0 0 0
0:00:00.00 320791 N 0 0 0
0:00:00.00 321070 N 0 0 0
0:00:00.00 321361 N 0 0 0
0:00:00.00 321665 N 0 0 0
0:00:00.00 321962 N 0 0 0
0:00:00.00 322261 N 0 0 0
0:00:00.00 322555 N 0 0 0
0:00:00.00 322844 N 0 0 0
0:00:00.00 323136 N 0 0 0
0:00:00.00 323404 N 0 0 0
0:00:00.00 323707 N 0 0 0
0:00:00.00 324005 N 0 0 0
0:00:00.00 324299 N 0 0 0
0:00:00.00 324596 N 0 0 0
0:00:00.00 324891 N 0 0 0
0:00:00.00 325172 N 0 0 0
0:00:00.00 325449 N 0 0 0
0:00:00.00 325751 N 0 0 0
0:00:00.00 326054 N 0 0 0
0:00:00.00 326347 N 0 0 0
0:00:00.00 326642 N 0 0 0
0:00:00.00 326938 N 0 0 0
0:00:00.00 327224 N 0 0 0
0:00:00.00 327501 N 0 0 0
0:00:00.00 327791 N 0 0 0
0:00:00.00 328093 N 0 0 0
0:00:00.00 328392 N 0 0 0
0:00:00.00 328691 N 0 0 0
0:00:00.00 328984 N 0 0 0
0:00:00.00 329276 N 0 0 0
0:00:00.00 329551 N 0 0 0
0:00:00.00 329837 N 0 0 0
0:00:00.00 330154 N 0 0 0
0:00:00.00 330439 N 0 0 0
0:00:00.00 330734 N 0 0 0
0:00:00.00 331031 N 0 0 0
0:00:00.00 331324 N 0 0 0
0:00:00.00 331605 N 0 0 0
0:00:00.00 331880 N 0 0 0
0:00:00.00 332181 N 0 0 0
0:00:00.00 332487 N 0 0 0
0:00:00.00 332784 N 0 0 0
0:00:00.00 333076 N 0 0 0
0:00:00.00 333362 N 0 0 0
0:00:00.00 333648 N 0 0 0
0:00:00.00 333925 N 0 0 0
0:00:00.00 334220 N 0 0 0
0:00:00.00 334517 N 0 0 0
0:00:00.00 334807 N 0 0 0
0:00:00.00 335115 N 0 0 0
0:00:00.00 335408 N 0 0 0
0:00:00.00 335702 N 0 0 0
0:00:00.00 335979 N 0 0 0
0:00:00.00 336262 N 0 0 0
0:00:00.00 336560 N 0 0 0
0:00:00.00 336856 N 0 0 0
0:00:00.00 337154 N 0 0 0
0:00:00.00 337450 N 0 0 0
0:00:00.00 337759 N 0 0 0
0:00:00.00 338038 N 0 0 0
0:00:00.00 338308 N 0 0 0
0:00:00.00 338607 N 0 0 0
0:00:00.00 338900 N 0 0 0
0:00:00.00 339197 N 0 0 0
0:00:00.00 339496 N 0 0 0
0:00:00.00 339797 N 0 0 0
0:00:00.00 340081 N 0 0 0
0:00:00.00 340367 N 0 0 0
0:00:00.00 340654 N 0 0 0
0:00:00.00 340951 N 0 0 0
0:00:00.00 341246 N 0 0 0
0:00:00.00 341548 N 0 0 0
0:00:00.00 341847 N 0 0 0
0:00:00.00 342139 N 0 0 0
0:00:00.00 342416 N 0 0 0
0:00:00.00 342702 N 0 0 0
0:00:00.00 343004 N 0 0 0
0:00:00.00 343292 N 0 0 0
0:00:00.00 343595 N 0 0 0
0:00:00.00 343894 N 0 0 0
0:00:00.00 344192 N 0 0 0
0:00:00.00 344471 N 0 0 0
0:00:00.00 344749 N 0 0 0
0:00:00.00 345049 N 0 0 0
0:00:00.00 345353 N 0 0 0
0:00:00.00 345650 N 0 0 0
0:00:00.00 345938 N 0 0 0
0:00:00.00 346239 N 0 0 0
0:00:00.00 346523 N 0 0 0
0:00:00.00 346799 N 0 0 0
0:00:00.00 347096 N 0 0 0
0:00:00.00 347389 N 0 0 0
0:00:00.00 347683 N 0 0 0
0:00:00.00 347974 N 0 0 0
0:00:00.00 348280 N 0 0 0
0:00:00.00 348575 N 0 0 0
0:00:00.00 348854 N 0 0 0
0:00:00.00 349139 N 0 0 0
0:00:00.00 349434 N 0 0 0
0:00:00.00 349727 N 0 0 0
0:00:00.00 350037 N 0 0 0
0:00:00.00 350338 N 0 0 0
0:00:00.00 350665 N 0 0 0
0:00:00.00 350908 N 0 0 0
0:00:00.00 351189 N 0 0 0
0:00:00.00 351482 N 0 0 0
0:00:00.00 351772 N 0 0 0
0:00:00.00 352067 N 0 0 0
0:00:00.00 352377 N 0 0 0
0:00:00.00 352678 N 0 0 0
0:00:00.00 352958 N 0 0 0
0:00:00.00 353232 N 0 0 0
0:00:00.00 353529 N 0 0 0
0:00:00.00 353821 N 0 0 0
0:00:00.00 354109 N 0 0 0
0:00:00.00 354409 N 0 0 0
0:00:00.00 354715 N 0 0 0
0:00:00.00 354996 N 0 0 0
0:00:00.00 355288 N 0 0 0
0:00:00.00 355565 N 0 0 0
0:00:00.00 355860 N 0 0 0
0:00:00.00 356146 N 0 0 0
0:00:00.00 356449 N 0 0 0
0:00:00.00 356749 N 0 0 0
0:00:00.00 357050 N 0 0 0
0:00:00.00 357331 N 0 0 0
0:00:00.00 357620 N 0 0 0
0:00:00.00 357903 N 0 0 0
0:00:00.00 358205 N 0 0 0
0:00:00.00 358499 N 0 0 0
0:00:00.00 358794 N 0 0 0
0:00:00.00 359100 N 0 0 0
0:00:00.00 359383 N 0 0 0
0:00:00.00 359658 N 0 0 0
0:00:00.00 359955 N 0 0 0
0:00:00.00 360241 N 0 0 0
0:00:00.00 360531 N 0 0 0
0:00:00.00 360814 N 0 0 0
0:00:00.00 361136 N 0 0 0
0:00:00.00 361415 N 0 0 0
0:00:00.00 361692 N 0 0 0
0:00:00.00 361985 N 0 0 0
0:00:00.00 362273 N 0 0 0
0:00:00.00 362560 N 0 0 0
0:00:00.00 362866 N 0 0 0
0:00:00.00 363161 N 0 0 0
0:00:00.00 363461 N 0 0 0
0:00:00.00 363753 N 0 0 0
0:00:00.00 364030 N 0 0 0
0:00:00.00 364318 N 0 0 0
0:00:00.00 364604 N 0 0 0
0:00:00.00 364907 N 0 0 0
0:00:00.00 365207 N 0 0 0
0:00:00.00 365517 N 0 0 0
0:00:00.00 365805 N 0 0 0
0:00:00.00 366091 N 0 0 0
0:00:00.00 366385 N 0 0 0
0:00:00.00 366696 N 0 0 0
0:00:00.00 366946 N 0 0 0
0:00:00.00 367249 N 0 0 0
0:00:00.00 367556 N 0 0 0
0:00:00.00 367850 N 0 0 0
0:00:00.00 368131 N 0 0 0
0:00:00.00 368424 N 0 0 0
0:00:00.00 368723 N 0 0 0
0:00:00.00 368993 N 0 0 0
0:00:00.00 369293 N 0 0 0
0:00:00.00 369599 N 0 0 0
0:00:00.00 369900 N 0 0 0
0:00:00.00 370184 N 0 0 0
0:00:00.00 370471 N 0 0 0
0:00:00.00 370759 N 0 0 0
0:00:00.00 371056 N 0 0 0
0:00:00.00 371342 N 0 0 0
0:00:00.00 371644 N 0 0 0
0:00:00.00 371950 N 0 0 0
0:00:00.00 372238 N 0 0 0
0:00:00.00 372519 N 0 0 0
0:00:00.00 372812 N 0 0 0
0:00:00.00 373097 N 0 0 0
0:00:00.00 373399 N 0 0 0
0:00:00.00 373685 N 0 0 0
0:00:00.00 373997 N 0 0 0
0:00:00.00 374292 N 0 0 0
0:00:00.00 374569 N 0 0 0
0:00:00.00 374866 N 0 0 0
0:00:00.00 375151 N 0 0 0
0:00:00.00 375431 N 0 0 0
0:00:00.00 375727 N 0 0 0
0:00:00.00 376047 N 0 0 0
0:00:00.00 376340 N 0 0 0
0:00:00.00 376619 N 0 0 0
0:00:00.00 376911 N 0 0 0
0:00:00.00 377197 N 0 0 0
0:00:00.00 377480 N 0 0 0
0:00:00.00 377779 N 0 0 0
0:00:00.00 378079 N 0 0 0
0:00:00.00 378382 N 0 0 0
0:00:00.00 378679 N 0 0 0
0:00:00.00 378961 N 0 0 0
0:00:00.00 379246 N 0 0 0
0:00:00.00 379525 N 0 0 0
0:00:00.00 379814 N 0 0 0
0:00:00.00 380117 N 0 0 0
0:00:00.00 380426 N 0 0 0
0:00:00.00 380723 N 0 0 0
0:00:00.00 381004 N 0 0 0
0:00:00.00 381289 N 0 0 0
0:00:00.00 381595 N 0 0 0
0:00:00.00 381854 N 0 0 0
0:00:00.00 382149 N 0 0 0
0:00:00.00 382459 N 0 0 0
0:00:00.00 382759 N 0 0 0
0:00:00.00 383042 N 0 0 0
0:00:00.00 383335 N 0 0 0
0:00:00.00 383621 N 0 0 0
0:00:00.00 383893 N 0 0 0
0:00:00.00 384197 N 0 0 0
0:00:00.00 384493 N 0 0 0
0:00:00.00 384799 N 0 0 0
0:00:00.00 385090 N 0 0 0
0:00:00.00 385380 N 0 0 0
0:00:00.00 385666 N 0 0 0
0:00:00.00 385947 N 0 0 0
0:00:00.00 386239 N 0 0 0
0:00:00.00 386548 N 0 0 0
0:00:00.00 386865 N 0 0 0
0:00:00.00 387142 N 0 0 0
0:00:00.00 387425 N 0 0 0
0:00:00.00 387720 N 0 0 0
0:00:00.00 388001 N 0 0 0
0:00:00.00 388280 N 0 0 0
0:00:00.00 388577 N 0 0 0
0:00:00.00 388888 N 0 0 0
0:00:00.00 389203 N 0 0 0
0:00:00.00 389480 N 0 0 0
0:00:00.00 389772 N 0 0 0
0:00:00.00 390056 N 0 0 0
0:00:00.00 390332 N 0 0 0
0:00:00.00 390620 N 0 0 0
0:00:00.00 390926 N 0 0 0
0:00:00.00 391243 N 0 0 0
0:00:00.00 391518 N 0 0 0
0:00:00.00 391815 N 0 0 0
0:00:00.00 392099 N 0 0 0
0:00:00.00 392378 N 0 0 0
0:00:00.00 392668 N 0 0 0
0:00:00.00 392967 N 0 0 0
0:00:00.00 393275 N 0 0 0
0:00:00.00 393586 N 0 0 0
0:00:00.00 393863 N 0 0 0
0:00:00.00 394153 N 0 0 0
0:00:00.00 394432 N 0 0 0
0:00:00.00 394717 N 0 0 0
0:00:00.00 395010 N 0 0 0
0:00:00.00 395323 N 0 0 0
0:00:00.00 395622 N 0 0 0
0:00:00.00 395912 N 0 0 0
0:00:00.00 396207 N 0 0 0
0:00:00.00 396488 N 0 0 0
0:00:00.00 396770 N 0 0 0
0:00:00.00 397055 N 0 0 0
0:00:00.00 397361 N 0 0 0
0:00:00.00 397663 N 0 0 0
0:00:00.00 397957 N 0 0 0
0:00:00.00 398254 N 0 0 0
0:00:00.00 398552 N 0 0 0
0:00:00.00 398819 N 0 0 0
0:00:00.00 399096 N 0 0 0
0:00:00.00 399400 N 0 0 0
0:00:00.00 399708 N 0 0 0
0:00:00.00 400001 N 0 0 0
0:00:00.00 400298 N 0 0 0
0:00:00.00 400590 N 0 0 0
0:00:00.00 400867 N 0 0 0
0:00:00.00 401152 N 0 0 0
0:00:00.00 401465 N 0 0 0
0:00:00.00 401758 N 0 0 0
0:00:00.00 402057 N 0 0 0
0:00:00.00 402347 N 0 0 0
0:00:00.00 402651 N 0 0 0
0:00:00.00 402926 N 0 0 0
0:00:00.00 403200 N 0 0 0
0:00:00.00 403488 N 0 0 0
0:00:00.00 403799 N 0 0 0
0:00:00.00 404095 N 0 0 0
0:00:00.00 404401 N 0 0 0
0:00:00.00 404694 N 0 0 0
0:00:00.00 404978 N 0 0 0
0:00:00.00 405252 N 0 0 0
0:00:00.00 405538 N 0 0 0
0:00:00.00 405835 N 0 0 0
0:00:00.00 406139 N 0 0 0
0:00:00.00 406435 N 0 0 0
0:00:00.00 406733 N 0 0 0
0:00:00.00 407032 N 0 0 0
0:00:00.00 407308 N 0 0 0
0:00:00.00 407585 N 0 0 0
0:00:00.00 407878 N 0 0 0
0:00:00.00 408186 N 0 0 0
0:00:00.00 408483 N 0 0 0
0:00:00.00 408780 N 0 0 0
0:00:00.00 409077 N 0 0 0
0:00:00.00 409363 N 0 0 0
0:00:00.00 409642 N 0 0 0
0:00:00.00 409923 N 0 0 0
0:00:00.00 410231 N 0 0 0
0:00:00.00 410531 N 0 0 0
0:00:00.00 410825 N 0 0 0
0:00:00.00 411129 N 0 0 0
0:00:00.00 411413 N 0 0 0
0:00:00.00 411685 N 0 0 0
0:00:00.00 411966 N 0 0 0
0:00:00.00 412268 N 0 0 0
0:00:00.00 412580 N 0 0 0
0:00:00.00 412866 N 0 0 0
0:00:00.00 413174 N 0 0 0
0:00:00.00 413462 N 0 0 0
0:00:00.00 413737 N 0 0 0
0:00:00.00 414020 N 0 0 0
0:00:00.00 414310 N 0 0 0
0:00:00.00 414614 N 0 0 0
0:00:00.00 414913 N 0 0 0
0:00:00.00 415213 N 0 0 0
0:00:00.00 415507 N 0 0 0
0:00:00.00 415787 N 0 0 0
0:00:00.00 416070 N 0 0 0
0:00:00.00 416372 N 0 0 0
0:00:00.00 416671 N 0 0 0
0:00:00.00 416963 N 0 0 0
0:00:00.00 417258 N 0 0 0
0:00:00.00 417562 N 0 0 0
0:00:00.00 417845 N 0 0 0
0:00:00.00 418120 N 0 0 0
0:00:00.00 418405 N 0 0 0
0:00:00.00 418711 N 0 0 0
0:00:00.00 419008 N 0 0 0
0:00:00.00 419299 N 0 0 0
0:00:00.00 419609 N 0 0 0
0:00:00.00 419899 N 0 0 0
0:00:00.00 420172 N 0 0 0
0:00:00.00 420451 N 0 0 0
0:00:00.00 420748 N 0 0 0
0:00:00.00 421047 N 0 0 0
0:00:00.00 421337 N 0 0 0
0:00:00.00 421663 N 0 0 0
0:00:00.00 421951 N 0 0 0
0:00:00.00 422221 N 0 0 0
0:00:00.00 422503 N 0 0 0
0:00:00.00 422788 N 0 0 0
0:00:00.00 423088 N 0 0 0
0:00:00.00 423389 N 0 0 0
0:00:00.00 423688 N 0 0 0
0:00:00.00 423990 N 0 0 0
0:00:00.00 424264 N 0 0 0
0:00:00.00 424544 N 0 0 0
0:00:00.00 424836 N 0 0 0
0:00:00.00 425131 N 0 0 0
0:00:00.00 425435 N 0 0 0
0:00:00.00 425725 N 0 0 0
0:00:00.00 426037 N 0 0 0
0:00:00.00 426323 N 0 0 0
0:00:00.00 426589 N 0 0 0
0:00:00.00 426875 N 0 0 0
0:00:00.00 427183 N 0 0 0
0:00:00.00 427468 N 0 0 0
0:00:00.00 427765 N 0 0 0
0:00:00.00 428074 N 0 0 0
0:00:00.00 428369 N 0 0 0
0:00:00.00 428648 N 0 0 0
0:00:00.00 428931 N 0 0 0
0:00:00.00 429217 N 0 0 0
0:00:00.00 429523 N 0 0 0
0:00:00.00 429826 N 0 0 0
0:00:00.00 430117 N 0 0 0
0:00:00.00 430420 N 0 0 0
0:00:00.00 430699 N 0 0 0
0:00:00.00 430983 N 0 0 0
0:00:00.00 431267 N 0 0 0
0:00:00.00 431564 N 0 0 0
0:00:00.00 431861 N 0 0 0
0:00:00.00 432157 N 0 0 0
0:00:00.00 432468 N 0 0 0
0:00:00.00 432760 N 0 0 0
0:00:00.00 433033 N 0 0 0
0:00:00.00 433316 N 0 0 0
0:00:00.00 433611 N 0 0 0
0:00:00.00 433912 N 0 0 0
0:00:00.00 434200 N 0 0 0
0:00:00.00 434516 N 0 0 0
0:00:00.00 434812 N 0 0 0
0:00:00.00 435087 N 0 0 0
0:00:00.00 435368 N 0 0 0
0:00:00.00 435654 N 0 0 0
0:00:00.00 435949 N 0 0 0
0:00:00.00 436244 N 0 0 0
0:00:00.00 436552 N 0 0 0
0:00:00.00 436856 N 0 0 0
0:00:00.00 437148 N 0 0 0
0:00:00.00 437423 N 0 0 0
0:00:00.00 437706 N 0 0 0
0:00:00.00 438001 N 0 0 0
0:00:00.00 438295 N 0 0 0
0:00:00.00 438595 N 0 0 0
0:00:00.00 438903 N 0 0 0
0:00:00.00 439189 N 0 0 0
0:00:00.00 439472 N 0 0 0
0:00:00.00 439753 N 0 0 0
0:00:00.00 440048 N 0 0 0
0:00:00.00 440341 N 0 0 0
0:00:00.00 440636 N 0 0 0
0:00:00.00 440960 N 0 0 0
0:00:00.00 441256 N 0 0 0
0:00:00.00 441562 N 0 0 0
0:00:00.00 441803 N 0 0 0
0:00:00.00 442094 N 0 0 0
0:00:00.00 442382 N 0 0 0
0:00:00.00 442676 N 0 0 0
0:00:00.00 442991 N 0 0 0
0:00:00.00 443290 N 0 0 0
0:00:00.00 443565 N 0 0 0
0:00:00.00 443849 N 0 0 0
0:00:00.00 444132 N 0 0 0
0:00:00.00 444424 N 0 0 0
0:00:00.00 444717 N 0 0 0
0:00:00.00 445023 N 0 0 0
0:00:00.00 445329 N 0 0 0
0:00:00.00 445619 N 0 0 0
0:00:00.00 445905 N 0 0 0
0:00:00.00 446182 N 0 0 0
0:00:00.00 446488 N 0 0 0
0:00:00.00 446762 N 0 0 0
0:00:00.00 447059 N 0 0 0
0:00:00.00 447372 N 0 0 0
0:00:00.00 447665 N 0 0 0
0:00:00.00 447948 N 0 0 0
0:00:00.00 448231 N 0 0 0
0:00:00.00 448520 N 0 0 0
0:00:00.00 448808 N 0 0 0
0:00:00.00 449107 N 0 0 0
0:00:00.00 449419 N 0 0 0
0:00:00.00 449717 N 0 0 0
0:00:00.00 449998 N 0 0 0
0:00:00.00 450279 N 0 0 0
0:00:00.00 450574 N 0 0 0
0:00:00.00 450851 N 0 0 0
0:00:00.00 451139 N 0 0 0
0:00:00.00 451453 N 0 0 0
0:00:00.00 451757 N 0 0 0
0:00:00.00 452063 N 0 0 0
0:00:00.00 452333 N 0 0 0
0:00:00.00 452621 N 0 0 0
0:00:00.00 452903 N 0 0 0
0:00:00.00 453193 N 0 0 0
0:00:00.00 453492 N 0 0 0
0:00:00.00 453802 N 0 0 0
0:00:00.00 454102 N 0 0 0
0:00:00.00 454397 N 0 0 0
0:00:00.00 454675 N 0 0 0
0:00:00.00 454959 N 0 0 0
0:00:00.00 455242 N 0 0 0
0:00:00.00 455535 N 0 0 0
0:00:00.00 455850 N 0 0 0
0:00:00.00 456138 N 0 0 0
0:00:00.00 456431 N 0 0 0
0:00:00.00 456728 N 0 0 0
0:00:00.00 457025 N 0 0 0
0:00:00.00 457290 N 0 0 0
0:00:00.00 457576 N 0 0 0
0:00:00.00 457891 N 0 0 0
0:00:00.00 458192 N 0 0 0
0:00:00.00 458480 N 0 0 0
0:00:00.00 458764 N 0 0 0
0:00:00.00 459067 N 0 0 0
0:00:00.00 459337 N 0 0 0
0:00:00.00 459621 N 0 0 0
0:00:00.00 459929 N 0 0 0
0:00:00.00 460235 N 0 0 0
0:00:00.00 460537 N 0 0 0
0:00:00.00 460825 N 0 0 0
0:00:00.00 461108 N 0 0 0
0:00:00.00 461396 N 0 0 0
0:00:00.00 461678 N 0 0 0
0:00:00.00 461970 N 0 0 0
0:00:00.00 462287 N 0 0 0
0:00:00.00 462582 N 0 0 0
0:00:00.00 462872 N 0 0 0
0:00:00.00 463158 N 0 0 0
0:00:00.00 463455 N 0 0 0
0:00:00.00 463743 N 0 0 0
0:00:00.00 464015 N 0 0 0
0:00:00.00 464333 N 0 0 0
0:00:00.00 464634 N 0 0 0
0:00:00.00 464924 N 0 0 0
0:00:00.00 465210 N 0 0 0
0:00:00.00 465491 N 0 0 0
0:00:00.00 465781 N 0 0 0
0:00:00.00 466052 N 0 0 0
0:00:00.00 466362 N 0 0 0
0:00:00.00 466670 N 0 0 0
0:00:00.00 466963 N 0 0 0
0:00:00.00 467255 N 0 0 0
0:00:00.00 467539 N 0 0 0
0:00:00.00 467827 N 0 0 0
0:00:00.00 468108 N 0 0 0
0:00:00.00 468412 N 0 0 0
0:00:00.00 468700 N 0 0 0
0:00:00.00 469012 N 0 0 0
0:00:00.00 469294 N 0 0 0
0:00:00.00 469580 N 0 0 0
0:00:00.00 469870 N 0 0 0
0:00:00.00 470151 N 0 0 0
0:00:00.00 470435 N 0 0 0
0:00:00.00 470749 N 0 0 0
0:00:00.00 471047 N 0 0 0
0:00:00.00 471335 N 0 0 0
0:00:00.00 471613 N 0 0 0
0:00:00.00 471906 N 0 0 0
0:00:00.00 472189 N 0 0 0
0:00:00.00 472468 N 0 0 0
0:00:00.00 472783 N 0 0 0
0:00:00.00 473078 N 0 0 0
0:00:00.00 473371 N 0 0 0
0:00:00.00 473663 N 0 0 0
0:00:00.00 473951 N 0 0 0
0:00:00.00 474233 N 0 0 0
0:00:00.00 474509 N 0 0 0
0:00:00.00 474811 N 0 0 0
0:00:00.00 475115 N 0 0 0
0:00:00.00 475414 N 0 0 0
0:00:00.00 475713 N 0 0 0
0:00:00.00 476001 N 0 0 0
0:00:00.00 476291 N 0 0 0
0:00:00.00 476568 N 0 0 0
0:00:00.00 476863 N 0 0 0
0:00:00.00 477180 N 0 0 0
0:00:00.00 477459 N 0 0 0
0:00:00.00 477756 N 0 0 0
0:00:00.00 478048 N 0 0 0
0:00:00.00 478341 N 0 0 0
0:00:00.00 478620 N 0 0 0
0:00:00.00 478897 N 0 0 0
0:00:00.00 479218 N 0 0 0
0:00:00.00 479515 N 0 0 0
0:00:00.00 479799 N 0 0 0
0:00:00.00 480101 N 0 0 0
0:00:00.00 480389 N 0 0 0
0:00:00.00 480670 N 0 0 0
0:00:00.00 480947 N 0 0 0
0:00:00.00 481250 N 0 0 0
0:00:00.00 481550 N 0 0 0
0:00:00.00 481844 N 0 0 0
0:00:00.00 482141 N 0 0 0
0:00:00.00 482432 N 0 0 0
0:00:00.00 482720 N 0 0 0
0:00:00.00 482999 N 0 0 0
0:00:00.00 483295 N 0 0 0
0:00:00.00 483592 N 0 0 0
0:00:00.00 483889 N 0 0 0
0:00:00.00 484189 N 0 0 0
0:00:00.00 484486 N 0 0 0
0:00:00.00 484778 N 0 0 0
0:00:00.00 485057 N 0 0 0
0:00:00.00 485339 N 0 0 0
0:00:00.00 485638 N 0 0 0
0:00:00.00 485935 N 0 0 0
0:00:00.00 486250 N 0 0 0
0:00:00.00 486536 N 0 0 0
0:00:00.00 486824 N 0 0 0
0:00:00.00 487107 N 0 0 0
0:00:00.00 487382 N 0 0 0
0:00:00.00 487683 N 0 0 0
0:00:00.00 487982 N 0 0 0
0:00:00.00 488275 N 0 0 0
0:00:00.00 488574 N 0 0 0
0:00:00.00 488875 N 0 0 0
0:00:00.00 489157 N 0 0 0
0:00:00.00 489436 N 0 0 0
0:00:00.00 489731 N 0 0 0
0:00:00.00 490027 N 0 0 0
0:00:00.00 490325 N 0 0 0
0:00:00.00 490626 N 0 0 0
0:00:00.00 490907 N 0 0 0
0:00:00.00 491215 N 0 0 0
0:00:00.00 491479 N 0 0 0
0:00:00.00 491762 N 0 0 0
0:00:00.00 492064 N 0 0 0
0:00:00.00 492358 N 0 0 0
0:00:00.00 492664 N 0 0 0
0:00:00.00 492957 N 0 0 0
0:00:00.00 493256 N 0 0 0
0:00:00.00 493533 N 0 0 0
0:00:00.00 493801 N 0 0 0
0:00:00.00 494118 N 0 0 0
0:00:00.00 494399 N 0 0 0
0:00:00.00 494692 N 0 0 0
0:00:00.00 494991 N 0 0 0
0:00:00.00 495292 N 0 0 0
0:00:00.00 495578 N 0 0 0
0:00:00.00 495853 N 0 0 0
0:00:00.00 496150 N 0 0 0
0:00:00.00 496445 N 0 0 0
0:00:00.00 496728 N 0 0 0
0:00:00.00 497050 N 0 0 0
0:00:00.00 497331 N 0 0 0
0:00:00.00 497621 N 0 0 0
0:00:00.00 497902 N 0 0 0
0:00:00.00 498186 N 0 0 0
0:00:00.00 498479 N 0 0 0
0:00:00.00 498773 N 0 0 0
0:00:00.00 499075 N 0 0 0
0:00:00.00 499376 N 0 0 0
0:00:00.00 499684 N 0 0 0
0:00:00.00 499955 N 0 0 0
0:00:00.00 500234 N 0 0 0
0:00:00.00 500530 N 0 0 0
0:00:00.00 500821 N 0 0 0
0:00:00.00 501116 N 0 0 0
0:00:00.00 501419 N 0 0 0
0:00:00.00 501723 N 0 0 0
0:00:00.00 502006 N 0 0 0
0:00:00.00 502295 N 0 0 0
0:00:00.00 502576 N 0 0 0
0:00:00.00 502864 N 0 0 0
0:00:00.00 503156 N 0 0 0
0:00:00.00 503456 N 0 0 0
0:00:00.00 503764 N 0 0 0
0:00:00.00 504056 N 0 0 0
0:00:00.00 504333 N 0 0 0
0:00:00.00 504639 N 0 0 0
0:00:00.00 504916 N 0 0 0
0:00:00.00 505206 N 0 0 0
0:00:00.00 505505 N 0 0 0
0:00:00.00 505809 N 0 0 0
0:00:00.00 506106 N 0 0 0
0:00:00.00 506385 N 0 0 0
0:00:00.00 506671 N 0 0 0
0:00:00.00 506970 N 0 0 0
0:00:00.00 507262 N 0 0 0
0:00:00.00 507559 N 0 0 0
0:00:00.00 507852 N 0 0 0
0:00:00.00 508158 N 0 0 0
0:00:00.00 508439 N 0 0 0
0:00:00.00 508718 N 0 0 0
0:00:00.00 509013 N 0 0 0
0:00:00.00 509297 N 0 0 0
0:00:00.00 509603 N 0 0 0
0:00:00.00 509900 N 0 0 0
0:00:00.00 510201 N 0 0 0
0:00:00.00 510489 N 0 0 0
0:00:00.00 510766 N 0 0 0
0:00:00.00 511061 N 0 0 0
0:00:00.00 511346 N 0 0 0
0:00:00.00 511634 N 0 0 0
0:00:00.00 511940 N 0 0 0
0:00:00.00 512249 N 0 0 0
0:00:00.00 512539 N 0 0 0
0:00:00.00 512820 N 0 0 0
0:00:00.00 513110 N 0 0 0
0:00:00.00 513398 N 0 0 0
0:00:00.00 513682 N 0 0 0
0:00:00.00 513981 N 0 0 0
0:00:00.00 514285 N 0 0 0
0:00:00.00 514575 N 0 0 0
0:00:00.00 514863 N 0 0 0
0:00:00.00 515147 N 0 0 0
0:00:00.00 515435 N 0 0 0
0:00:00.00 515718 N 0 0 0
0:00:00.00 516017 N 0 0 0
0:00:00.00 516325 N 0 0 0
0:00:00.00 516625 N 0 0 0
0:00:00.00 516917 N 0 0 0
0:00:00.00 517201 N 0 0 0
0:00:00.00 517475 N 0 0 0
0:00:00.00 517757 N 0 0 0
0:00:00.00 518042 N 0 0 0
0:00:00.00 518342 N 0 0 0
0:00:00.00 518654 N 0 0 0
0:00:00.00 518951 N 0 0 0
0:00:00.00 519232 N 0 0 0
0:00:00.00 519527 N 0 0 0
0:00:00.00 519811 N 0 0 0
0:00:00.00 520096 N 0 0 0
0:00:00.00 520393 N 0 0 0
0:00:00.00 520704 N 0 0 0
0:00:00.00 521001 N 0 0 0
0:00:00.00 521287 N 0 0 0
0:00:00.00 521575 N 0 0 0
0:00:00.00 521865 N 0 0 0
0:00:00.00 522144 N 0 0 0
0:00:00.00 522439 N 0 0 0
0:00:00.00 522743 N 0 0 0
0:00:00.00 523064 N 0 0 0
0:00:00.00 523346 N 0 0 0
0:00:00.00 523625 N 0 0 0
0:00:00.00 523917 N 0 0 0
0:00:00.00 524198 N 0 0 0
0:00:00.00 524486 N 0 0 0
0:00:00.00 524786 N 0 0 0
0:00:00.00 525096 N 0 0 0
0:00:00.00 525398 N 0 0 0
0:00:00.00 525692 N 0 0 0
0:00:00.00 525969 N 0 0 0
0:00:00.00 526250 N 0 0 0
0:00:00.00 526529 N 0 0 0
0:00:00.00 526824 N 0 0 0
0:00:00.00 527134 N 0 0 0
0:00:00.00 527434 N 0 0 0
0:00:00.00 527737 N 0 0 0
0:00:00.00 528019 N 0 0 0
0:00:00.00 528302 N 0 0 0
0:00:00.00 528583 N 0 0 0
0:00:00.00 528872 N 0 0 0
0:00:00.00 529175 N 0 0 0
0:00:00.00 529484 N 0 0 0
0:00:00.00 529776 N 0 0 0
0:00:00.00 530062 N 0 0 0
0:00:00.00 530359 N 0 0 0
0:00:00.00 530635 N 0 0 0
0:00:00.00 530919 N 0 0 0
0:00:00.00 531220 N 0 0 0
0:00:00.00 531527 N 0 0 0
0:00:00.00 531821 N 0 0 0
0:00:00.00 532112 N 0 0 0
0:00:00.00 532402 N 0 0 0
0:00:00.00 532685 N 0 0 0
0:00:00.00 532971 N 0 0 0
0:00:00.00 533259 N 0 0 0
0:00:00.00 533570 N 0 0 0
0:00:00.00 533875 N 0 0 0
0:00:00.00 534155 N 0 0 0
0:00:00.00 534451 N 0 0 0
0:00:00.00 534733 N 0 0 0
0:00:00.00 535009 N 0 0 0
0:00:00.00 535291 N 0 0 0
0:00:00.00 535603 N 0 0 0
0:00:00.00 535907 N 0 0 0
0:00:00.00 536198 N 0 0 0
0:00:00.00 536495 N 0 0 0
0:00:00.00 536782 N 0 0 0
0:00:00.00 537059 N 0 0 0
0:00:00.00 537343 N 0 0 0
0:00:00.00 537642 N 0 0 0
0:00:00.00 537930 N 0 0 0
0:00:00.00 538222 N 0 0 0
0:00:00.00 538517 N 0 0 0
0:00:00.00 538808 N 0 0 0
0:00:00.00 539086 N 0 0 0
0:00:00.00 539372 N 0 0 0
0:00:00.00 539672 N 0 0 0
0:00:00.00 539975 N 0 0 0
0:00:00.00 540272 N 0 0 0
0:00:00.00 540558 N 0 0 0
0:00:00.00 540853 N 0 0 0
0:00:00.00 541156 N 0 0 0
0:00:00.00 541411 N 0 0 0
0:00:00.00 541705 N 0 0 0
0:00:00.00 542003 N 0 0 0
0:00:00.00 542308 N 0 0 0
0:00:00.00 542599 N 0 0 0
0:00:00.00 542903 N 0 0 0
0:00:00.00 543188 N 0 0 0
0:00:00.00 543461 N 0 0 0
0:00:00.00 543766 N 0 0 0
0:00:00.00 544046 N 0 0 0
0:00:00.00 544352 N 0 0 0
0:00:00.00 544649 N 0 0 0
0:00:00.00 544950 N 0 0 0
0:00:00.00 545238 N 0 0 0
0:00:00.00 545513 N 0 0 0
0:00:00.00 545800 N 0 0 0
0:00:00.00 546097 N 0 0 0
0:00:00.00 546394 N 0 0 0
0:00:00.00 546692 N 0 0 0
0:00:00.00 546991 N 0 0 0
0:00:00.00 547286 N 0 0 0
0:00:00.00 547564 N 0 0 0
0:00:00.00 547848 N 0 0 0
0:00:00.00 548138 N 0 0 0
0:00:00.00 548444 N 0 0 0
0:00:00.00 548750 N 0 0 0
0:00:00.00 549038 N 0 0 0
0:00:00.00 549340 N 0 0 0
0:00:00.00 549623 N 0 0 0
0:00:00.00 549898 N 0 0 0
0:00:00.00 550181 N 0 0 0
0:00:00.00 550483 N 0 0 0
0:00:00.00 550787 N 0 0 0
0:00:00.00 551081 N 0 0 0
0:00:00.00 551390 N 0 0 0
0:00:00.00 551680 N 0 0 0
0:00:00.00 551954 N 0 0 0
0:00:00.00 552236 N 0 0 0
0:00:00.00 552530 N 0 0 0
0:00:00.00 552823 N 0 0 0
0:00:00.00 553127 N 0 0 0
0:00:00.00 553435 N 0 0 0
0:00:00.00 553729 N 0 0 0
0:00:00.00 554008 N 0 0 0
0:00:00.00 554290 N 0 0 0
0:00:00.00 554576 N 0 0 0
0:00:00.00 554886 N 0 0 0
0:00:00.00 555185 N 0 0 0
0:00:00.00 555482 N 0 0 0
0:00:00.00 555786 N 0 0 0
0:00:00.00 556060 N 0 0 0
0:00:00.00 556339 N 0 0 0
0:00:00.00 556625 N 0 0 0
0:00:00.00 556925 N 0 0 0
0:00:00.00 557224 N 0 0 0
0:00:00.00 557516 N 0 0 0
0:00:00.00 557845 N 0 0 0
0:00:00.00 558115 N 0 0 0
0:00:00.00 558389 N 0 0 0
0:00:00.00 558668 N 0 0 0
0:00:00.00 558965 N 0 0 0
0:00:00.00 559267 N 0 0 0
0:00:00.00 559562 N 0 0 0
0:00:00.00 559872 N 0 0 0
0:00:00.00 560156 N 0 0 0
0:00:00.00 560453 N 0 0 0
0:00:00.00 560714 N 0 0 0
0:00:00.00 561001 N 0 0 0
0:00:00.00 561298 N 0 0 0
0:00:00.00 561595 N 0 0 0
0:00:00.00 561901 N 0 0 0
0:00:00.00 562190 N 0 0 0
0:00:00.00 562480 N 0 0 0
0:00:00.00 562765 N 0 0 0
0:00:00.00 563031 N 0 0 0
0:00:00.00 563344 N 0 0 0
0:00:00.00 563627 N 0 0 0
0:00:00.00 563924 N 0 0 0
0:00:00.00 564233 N 0 0 0
0:00:00.00 564521 N 0 0 0
0:00:00.00 564799 N 0 0 0
0:00:00.00 565088 N 0 0 0
0:00:00.00 565376 N 0 0 0
0:00:00.00 565672 N 0 0 0
0:00:00.00 565954 N 0 0 0
0:00:00.00 566269 N 0 0 0
0:00:00.00 566566 N 0 0 0
0:00:00.00 566842 N 0 0 0
0:00:00.00 567121 N 0 0 0
0:00:00.00 567412 N 0 0 0
0:00:00.00 567706 N 0 0 0
0:00:00.00 567999 N 0 0 0
0:00:00.00 568310 N 0 0 0
0:00:00.00 568622 N 0 0 0
0:00:00.00 568910 N 0 0 0
0:00:00.00 569174 N 0 0 0
0:00:00.00 569459 N 0 0 0
0:00:00.00 569749 N 0 0 0
0:00:00.00 570042 N 0 0 0
0:00:00.00 570348 N 0 0 0
0:00:00.00 570650 N 0 0 0
0:00:00.00 570940 N 0 0 0
0:00:00.00 571228 N 0 0 0
0:00:00.00 571522 N 0 0 0
0:00:00.00 571801 N 0 0 0
0:00:00.00 572094 N 0 0 0
0:00:00.00 572389 N 0 0 0
0:00:00.00 572702 N 0 0 0
0:00:00.00 572994 N 0 0 0
0:00:00.00 573275 N 0 0 0
0:00:00.00 573557 N 0 0 0
0:00:00.00 573858 N 0 0 0
0:00:00.00 574141 N 0 0 0
0:00:00.00 574434 N 0 0 0
0:00:00.00 574751 N 0 0 0
0:00:00.00 575048 N 0 0 0
0:00:00.00 575327 N 0 0 0
0:00:00.00 575609 N 0 0 0
0:00:00.00 575896 N 0 0 0
0:00:00.00 576193 N 0 0 0
0:00:00.00 576477 N 0 0 0
0:00:00.00 576787 N 0 0 0
0:00:00.00 577091 N 0 0 0
0:00:00.00 577379 N 0 0 0
0:00:00.00 577663 N 0 0 0
0:00:00.00 577946 N 0 0 0
0:00:00.00 578236 N 0 0 0
0:00:00.00 578516 N 0 0 0
0:00:00.00 578830 N 0 0 0
0:00:00.00 579137 N 0 0 0
0:00:00.00 579431 N 0 0 0
0:00:00.00 579721 N 0 0 0
0:00:00.00 580001 N 0 0 0
0:00:00.00 580295 N 0 0 0
0:00:00.00 580581 N 0 0 0
0:00:00.00 580873 N 0 0 0
0:00:00.00 581184 N 0 0 0
0:00:00.00 581494 N 0 0 0
0:00:00.00 581774 N 0 0 0
0:00:00.00 582050 N 0 0 0
0:00:00.00 582343 N 0 0 0
0:00:00.00 582626 N 0 0 0
0:00:00.00 582916 N 0 0 0
0:00:00.00 583234 N 0 0 0
0:00:00.00 583537 N 0 0 0
0:00:00.00 583823 N 0 0 0
0:00:00.00 584091 N 0 0 0
0:00:00.00 584383 N 0 0 0
0:00:00.00 584662 N 0 0 0
0:00:00.00 584946 N 0 0 0
0:00:00.00 585252 N 0 0 0
0:00:00.00 585558 N 0 0 0
0:00:00.00 585851 N 0 0 0
0:00:00.00 586143 N 0 0 0
0:00:00.00 586426 N 0 0 0
0:00:00.00 586714 N 0 0 0
0:00:00.00 586989 N 0 0 0
0:00:00.00 587290 N 0 0 0
0:00:00.00 587603 N 0 0 0
0:00:00.00 587893 N 0 0 0
0:00:00.00 588184 N 0 0 0
0:00:00.00 588469 N 0 0 0
0:00:00.00 588760 N 0 0 0
0:00:00.00 589045 N 0 0 0
0:00:00.00 589329 N 0 0 0
0:00:00.00 589644 N 0 0 0
0:00:00.00 589939 N 0 0 0
0:00:00.00 590222 N 0 0 0
0:00:00.00 590510 N 0 0 0
0:00:00.00 590800 N 0 0 0
0:00:00.00 591082 N 0 0 0
0:00:00.00 591365 N 0 0 0
0:00:00.00 591676 N 0 0 0
0:00:00.00 591979 N 0 0 0
0:00:00.00 592270 N 0 0 0
0:00:00.00 592558 N 0 0 0
0:00:00.00 592853 N 0 0 0
0:00:00.00 593131 N 0 0 0
0:00:00.00 593411 N 0 0 0
0:00:00.00 593710 N 0 0 0
0:00:00.00 594025 N 0 0 0
0:00:00.00 594315 N 0 0 0
0:00:00.00 594612 N 0 0 0
0:00:00.00 594896 N 0 0 0
0:00:00.00 595184 N 0 0 0
0:00:00.00 595478 N 0 0 0
0:00:00.00 595762 N 0 0 0
0:00:00.00 596065 N 0 0 0
0:00:00.00 596362 N 0 0 0
0:00:00.00 596659 N 0 0 0
0:00:00.00 596947 N 0 0 0
0:00:00.00 597236 N 0 0 0
0:00:00.00 597515 N 0 0 0
0:00:00.00 597803 N 0 0 0
0:00:00.00 598126 N 0 0 0
0:00:00.00 598410 N 0 0 0
0:00:00.00 598700 N 0 0 0
0:00:00.00 598993 N 0 0 0
0:00:00.00 599287 N 0 0 0
0:00:00.00 599567 N 0 0 0
0:00:00.00 599846 N 0 0 0
0:00:00.00 600152 N 0 0 0
0:00:00.00 600462 N 0 0 0
0:00:00.00 600746 N 0 0 0
0:00:00.00 601040 N 0 0 0
0:00:00.00 601331 N 0 0 0
0:00:00.00 601616 N 0 0 0
0:00:00.00 601895 N 0 0 0
0:00:00.00 602192 N 0 0 0
0:00:00.00 602496 N 0 0 0
0:00:00.00 602802 N 0 0 0
0:00:00.00 603099 N 0 0 0
0:00:00.00 603391 N 0 0 0
0:00:00.00 603675 N 0 0 0
0:00:00.00 603952 N 0 0 0
0:00:00.00 604238 N 0 0 0
0:00:00.00 604543 N 0 0 0
0:00:00.00 604838 N 0 0 0
0:00:00.00 605138 N 0 0 0
0:00:00.00 605432 N 0 0 0
0:00:00.00 605716 N 0 0 0
0:00:00.00 606010 N 0 0 0
0:00:00.00 606278 N 0 0 0
0:00:00.00 606580 N 0 0 0
0:00:00.00 606879 N 0 0 0
0:00:00.00 607181 N 0 0 0
0:00:00.00 607473 N 0 0 0
0:00:00.00 607770 N 0 0 0
0:00:00.00 608053 N 0 0 0
0:00:00.00 608330 N 0 0 0
0:00:00.00 608636 N 0 0 0
0:00:00.00 608940 N 0 0 0
0:00:00.00 609230 N 0 0 0
0:00:00.00 609520 N 0 0 0
0:00:00.00 609817 N 0 0 0
0:00:00.00 610105 N 0 0 0
0:00:00.00 610382 N 0 0 0
0:00:00.00 610672 N 0 0 0
0:00:00.00 610981 N 0 0 0
0:00:00.00 611271 N 0 0 0
0:00:00.00 611572 N 0 0 0
0:00:00.00 611870 N 0 0 0
0:00:00.00 612173 N 0 0 0
0:00:00.00 612436 N 0 0 0
0:00:00.00 612722 N 0 0 0
0:00:00.00 613021 N 0 0 0
0:00:00.00 613314 N 0 0 0
0:00:00.00 613615 N 0 0 0
0:00:00.00 613915 N 0 0 0
0:00:00.00 614212 N 0 0 0
0:00:00.00 614493 N 0 0 0
0:00:00.00 614768 N 0 0 0
0:00:00.00 615076 N 0 0 0
0:00:00.00 615364 N 0 0 0
0:00:00.00 615658 N 0 0 0
0:00:00.00 615956 N 0 0 0
0:00:00.00 616261 N 0 0 0
0:00:00.00 616545 N 0 0 0
0:00:00.00 616820 N 0 0 0
0:00:00.00 617117 N 0 0 0
0:00:00.00 617411 N 0 0 0
0:00:00.00 617715 N 0 0 0
0:00:00.00 618008 N 0 0 0
0:00:00.00 618304 N 0 0 0
0:00:00.00 618597 N 0 0 0
0:00:00.00 618874 N 0 0 0
0:00:00.00 619169 N 0 0 0
0:00:00.00 619457 N 0 0 0
0:00:00.00 619751 N 0 0 0
0:00:00.00 620059 N 0 0 0
0:00:00.00 620345 N 0 0 0
0:00:00.00 620654 N 0 0 0
0:00:00.00 620926 N 0 0 0
0:00:00.00 621209 N 0 0 0
0:00:00.00 621500 N 0 0 0
0:00:00.00 621787 N 0 0 0
0:00:00.00 622093 N 0 0 0
0:00:00.00 622395 N 0 0 0
0:00:00.00 622705 N 0 0 0
0:00:00.00 622980 N 0 0 0
0:00:00.00 623257 N 0 0 0
0:00:00.00 623551 N 0 0 0
0:00:00.00 623840 N 0 0 0
0:00:00.00 624141 N 0 0 0
0:00:00.00 624436 N 0 0 0
0:00:00.00 624746 N 0 0 0
0:00:00.00 625032 N 0 0 0
0:00:00.00 625306 N 0 0 0
0:00:00.00 625597 N 0 0 0
0:00:00.00 625892 N 0 0 0
0:00:00.00 626179 N 0 0 0
0:00:00.00 626479 N 0 0 0
0:00:00.00 626787 N 0 0 0
0:00:00.00 627080 N 0 0 0
0:00:00.00 627358 N 0 0 0
0:00:00.00 627651 N 0 0 0
0:00:00.00 627941 N 0 0 0
0:00:00.00 628227 N 0 0 0
0:00:00.00 628537 N 0 0 0
0:00:00.00 628828 N 0 0 0
0:00:00.00 629127 N 0 0 0
0:00:00.00 629408 N 0 0 0
0:00:00.00 629694 N 0 0 0
0:00:00.00 629982 N 0 0 0
0:00:00.00 630266 N 0 0 0
0:00:00.00 630569 N 0 0 0
0:00:00.00 630869 N 0 0 0
0:00:00.00 631175 N 0 0 0
0:00:00.00 631462 N 0 0 0
0:00:00.00 631762 N 0 0 0
0:00:00.00 632034 N 0 0 0
0:00:00.00 632317 N 0 0 0
0:00:00.00 632606 N 0 0 0
0:00:00.00 632909 N 0 0 0
0:00:00.00 633220 N 0 0 0
0:00:00.00 633514 N 0 0 0
0:00:00.00 633793 N 0 0 0
0:00:00.00 634088 N 0 0 0
0:00:00.00 634369 N 0 0 0
0:00:00.00 634646 N 0 0 0
0:00:00.00 634952 N 0 0 0
0:00:00.00 635260 N 0 0 0
0:00:00.00 635560 N 0 0 0
0:00:00.00 635843 N 0 0 0
0:00:00.00 636134 N 0 0 0
0:00:00.00 636419 N 0 0 0
0:00:00.00 636700 N 0 0 0
0:00:00.00 636997 N 0 0 0
0:00:00.00 637308 N 0 0 0
0:00:00.00 637614 N 0 0 0
0:00:00.00 637898 N 0 0 0
0:00:00.00 638181 N 0 0 0
0:00:00.00 638469 N 0 0 0
0:00:00.00 638750 N 0 0 0
0:00:00.00 639047 N 0 0 0
0:00:00.00 639349 N 0 0 0
0:00:00.00 639659 N 0 0 0
0:00:00.00 639950 N 0 0 0
0:00:00.00 640247 N 0 0 0
0:00:00.00 640525 N 0 0 0
0:00:00.00 640807 N 0 0 0
0:00:00.00 641090 N 0 0 0
0:00:00.00 641389 N 0 0 0
0:00:00.00 641709 N 0 0 0
0:00:00.00 641999 N 0 0 0
0:00:00.00 642283 N 0 0 0
0:00:00.00 642589 N 0 0 0
0:00:00.00 642870 N 0 0 0
0:00:00.00 643142 N 0 0 0
0:00:00.00 643442 N 0 0 0
0:00:00.00 643745 N 0 0 0
0:00:00.00 644045 N 0 0 0
0:00:00.00 644333 N 0 0 0
0:00:00.00 644627 N 0 0 0
0:00:00.00 644913 N 0 0 0
0:00:00.00 645199 N 0 0 0
0:00:00.00 645498 N 0 0 0
0:00:00.00 645782 N 0 0 0
0:00:00.00 646090 N 0 0 0
0:00:00.00 646384 N 0 0 0
0:00:00.00 646675 N 0 0 0
0:00:00.00 646963 N 0 0 0
0:00:00.00 647240 N 0 0 0
0:00:00.00 647532 N 0 0 0
0:00:00.00 647838 N 0 0 0
0:00:00.00 648140 N 0 0 0
0:00:00.00 648436 N 0 0 0
0:00:00.00 648724 N 0 0 0
0:00:00.00 649015 N 0 0 0
0:00:00.00 649292 N 0 0 0
0:00:00.00 649573 N 0 0 0
0:00:00.00 649868 N 0 0 0
