0:00:00.00 31 N 0 0 0
0:00:00.00 106 N 0 0 0
0:00:00.00 200 N 0 0 0
0:00:00.00 463 N 0 0 0
0:00:00.00 713 N 0 0 0
0:00:00.00 968 N 0 0 0
0:00:00.00 1224 N 0 0 0
0:00:00.00 1485 N 0 0 0
0:00:00.00 1748 N 0 0 0
0:00:00.00 2021 N 0 0 0
0:00:00.00 2290 N 0 0 0
0:00:00.00 2556 N 0 0 0
0:00:00.00 2804 N 0 0 0
0:00:00.00 3055 N 0 0 0
0:00:00.00 3305 N 0 0 0
0:00:00.00 3566 N 0 0 0
0:00:00.00 3841 N 0 0 0
0:00:00.00 4106 N 0 0 0
0:00:00.00 4376 N 0 0 0
0:00:00.00 4639 N 0 0 0
0:00:00.00 4903 N 0 0 0
0:00:00.00 5159 N 0 0 0
0:00:00.00 5409 N 0 0 0
0:00:00.00 5564 N 0 0 0
0:00:00.00 5929 N 0 0 0
0:00:00.00 6199 N 0 0 0
0:00:00.00 6473 N 0 0 0
0:00:00.00 6741 N 0 0 0
0:00:00.00 6997 N 0 0 0
0:00:00.00 7249 N 0 0 0
0:00:00.00 7510 N 0 0 0
0:00:00.00 7769 N 0 0 0
0:00:00.00 7925 N 0 0 0
0:00:00.00 8293 N 0 0 0
0:00:00.00 8568 N 0 0 0
0:00:00.00 8833 N 0 0 0
0:00:00.00 9099 N 0 0 0
0:00:00.00 9353 N 0 0 0
0:00:00.00 9601 N 0 0 0
0:00:00.00 9846 N 0 0 0
0:00:00.00 10111 N 0 0 0
0:00:00.00 10386 N 0 0 0
0:00:00.00 10651 N 0 0 0
0:00:00.00 10912 N 0 0 0
0:00:00.00 11171 N 0 0 0
0:00:00.00 11426 N 0 0 0
0:00:00.00 11678 N 0 0 0
0:00:00.00 11936 N 0 0 0
0:00:00.00 12193 N 0 0 0
0:00:00.00 12451 N 0 0 0
0:00:00.00 12629 N 0 0 0
0:00:00.00 12991 N 0 0 0
0:00:00.00 13257 N 0 0 0
0:00:00.00 13509 N 0 0 0
0:00:00.00 13759 N 0 0 0
0:00:00.00 14011 N 0 0 0
0:00:00.00 14260 N 0 0 0
0:00:00.00 14521 N 0 0 0
0:00:00.00 14789 N 0 0 0
0:00:00.00 15059 N 0 0 0
0:00:00.00 15314 N 0 0 0
0:00:00.00 15581 N 0 0 0
0:00:00.00 15836 N 0 0 0
0:00:00.00 16085 N 0 0 0
0:00:00.00 16337 N 0 0 0
0:00:00.00 16594 N 0 0 0
0:00:00.00 16859 N 0 0 0
0:00:00.00 17134 N 0 0 0
0:00:00.00 17402 N 0 0 0
0:00:00.00 17663 N 0 0 0
0:00:00.00 17917 N 0 0 0
0:00:00.00 18173 N 0 0 0
0:00:00.00 18430 N 0 0 0
0:00:00.00 18688 N 0 0 0
0:00:00.00 18950 N 0 0 0
0:00:00.00 19219 N 0 0 0
0:00:00.00 19489 N 0 0 0
0:00:00.00 19751 N 0 0 0
0:00:00.00 20012 N 0 0 0
0:00:00.00 20263 N 0 0 0
0:00:00.00 20518 N 0 0 0
0:00:00.00 20765 N 0 0 0
0:00:00.00 21035 N 0 0 0
0:00:00.00 21204 N 0 0 0
0:00:00.00 21578 N 0 0 0
0:00:00.00 21841 N 0 0 0
0:00:00.00 22104 N 0 0 0
0:00:00.00 22358 N 0 0 0
0:00:00.00 22606 N 0 0 0
0:00:00.00 22865 N 0 0 0
0:00:00.00 23119 N 0 0 0
0:00:00.00 23380 N 0 0 0
0:00:00.00 23645 N 0 0 0
0:00:00.00 23922 N 0 0 0
0:00:00.00 24185 N 0 0 0
0:00:00.00 24431 N 0 0 0
0:00:00.00 24680 N 0 0 0
0:00:00.00 24845 N 0 0 0
0:00:00.00 25200 N 0 0 0
0:00:00.00 25466 N 0 0 0
0:00:00.00 25736 N 0 0 0
0:00:00.00 26001 N 0 0 0
0:00:00.00 26260 N 0 0 0
0:00:00.00 26519 N 0 0 0
0:00:00.00 26773 N 0 0 0
0:00:00.00 27022 N 0 0 0
0:00:00.00 27277 N 0 0 0
0:00:00.00 27536 N 0 0 0
0:00:00.00 27799 N 0 0 0
0:00:00.00 28069 N 0 0 0
0:00:00.00 28339 N 0 0 0
0:00:00.00 28597 N 0 0 0
0:00:00.00 28838 N 0 0 0
0:00:00.00 29092 N 0 0 0
0:00:00.00 29353 N 0 0 0
0:00:00.00 29610 N 0 0 0
0:00:00.00 29875 N 0 0 0
0:00:00.00 30143 N 0 0 0
0:00:00.00 30406 N 0 0 0
0:00:00.00 30667 N 0 0 0
0:00:00.00 30920 N 0 0 0
0:00:00.00 31167 N 0 0 0
0:00:00.00 31421 N 0 0 0
0:00:00.00 31671 N 0 0 0
0:00:00.00 31939 N 0 0 0
0:00:00.00 32211 N 0 0 0
0:00:00.00 32479 N 0 0 0
0:00:00.00 32742 N 0 0 0
0:00:00.00 32987 N 0 0 0
0:00:00.00 33237 N 0 0 0
0:00:00.00 33493 N 0 0 0
0:00:00.00 33750 N 0 0 0
0:00:00.00 34015 N 0 0 0
0:00:00.00 34279 N 0 0 0
0:00:00.00 34547 N 0 0 0
0:00:00.00 34823 N 0 0 0
0:00:00.00 35080 N 0 0 0
0:00:00.00 35323 N 0 0 0
0:00:00.00 35573 N 0 0 0
0:00:00.00 35833 N 0 0 0
0:00:00.00 36101 N 0 0 0
0:00:00.00 36373 N 0 0 0
0:00:00.00 36641 N 0 0 0
0:00:00.00 36796 N 0 0 0
0:00:00.00 37154 N 0 0 0
0:00:00.00 37418 N 0 0 0
0:00:00.00 37669 N 0 0 0
0:00:00.00 37917 N 0 0 0
0:00:00.00 38169 N 0 0 0
0:00:00.00 38434 N 0 0 0
0:00:00.00 38698 N 0 0 0
0:00:00.00 38966 N 0 0 0
0:00:00.00 39227 N 0 0 0
0:00:00.00 39479 N 0 0 0
0:00:00.00 39722 N 0 0 0
0:00:00.00 39976 N 0 0 0
0:00:00.00 40234 N 0 0 0
0:00:00.00 40495 N 0 0 0
0:00:00.00 40750 N 0 0 0
0:00:00.00 41011 N 0 0 0
0:00:00.00 41274 N 0 0 0
0:00:00.00 41530 N 0 0 0
0:00:00.00 41783 N 0 0 0
0:00:00.00 42028 N 0 0 0
0:00:00.00 42275 N 0 0 0
0:00:00.00 42530 N 0 0 0
0:00:00.00 42797 N 0 0 0
0:00:00.00 43060 N 0 0 0
0:00:00.00 43324 N 0 0 0
0:00:00.00 43576 N 0 0 0
0:00:00.00 43821 N 0 0 0
0:00:00.00 44062 N 0 0 0
0:00:00.00 44314 N 0 0 0
0:00:00.00 44568 N 0 0 0
0:00:00.00 44816 N 0 0 0
0:00:00.00 45077 N 0 0 0
0:00:00.00 45342 N 0 0 0
0:00:00.00 45612 N 0 0 0
0:00:00.00 45767 N 0 0 0
0:00:00.00 46105 N 0 0 0
0:00:00.00 46348 N 0 0 0
0:00:00.00 46595 N 0 0 0
0:00:00.00 46849 N 0 0 0
0:00:00.00 47110 N 0 0 0
0:00:00.00 47374 N 0 0 0
0:00:00.00 47639 N 0 0 0
0:00:00.00 47889 N 0 0 0
0:00:00.00 48141 N 0 0 0
0:00:00.00 48395 N 0 0 0
0:00:00.00 48645 N 0 0 0
0:00:00.00 48890 N 0 0 0
0:00:00.00 49149 N 0 0 0
0:00:00.00 49412 N 0 0 0
0:00:00.00 49685 N 0 0 0
0:00:00.00 49948 N 0 0 0
0:00:00.00 50200 N 0 0 0
0:00:00.00 50450 N 0 0 0
0:00:00.00 50695 N 0 0 0
0:00:00.00 50953 N 0 0 0
0:00:00.00 51210 N 0 0 0
0:00:00.00 51475 N 0 0 0
0:00:00.00 51737 N 0 0 0
0:00:00.00 52006 N 0 0 0
0:00:00.00 52259 N 0 0 0
0:00:00.00 52513 N 0 0 0
0:00:00.00 52771 N 0 0 0
0:00:00.00 53023 N 0 0 0
0:00:00.00 53273 N 0 0 0
0:00:00.00 53541 N 0 0 0
0:00:00.00 53818 N 0 0 0
0:00:00.00 54083 N 0 0 0
0:00:00.00 54335 N 0 0 0
0:00:00.00 54589 N 0 0 0
0:00:00.00 54839 N 0 0 0
0:00:00.00 55093 N 0 0 0
0:00:00.00 55355 N 0 0 0
0:00:00.00 55611 N 0 0 0
0:00:00.00 55879 N 0 0 0
0:00:00.00 56144 N 0 0 0
0:00:00.00 56417 N 0 0 0
0:00:00.00 56669 N 0 0 0
0:00:00.00 56920 N 0 0 0
0:00:00.00 57166 N 0 0 0
0:00:00.00 57316 N 0 0 0
0:00:00.00 57668 N 0 0 0
0:00:00.00 57947 N 0 0 0
0:00:00.00 58212 N 0 0 0
0:00:00.00 58477 N 0 0 0
0:00:00.00 58736 N 0 0 0
0:00:00.00 58986 N 0 0 0
0:00:00.00 59242 N 0 0 0
0:00:00.00 59495 N 0 0 0
0:00:00.00 59749 N 0 0 0
0:00:00.00 60005 N 0 0 0
0:00:00.00 60273 N 0 0 0
0:00:00.00 60547 N 0 0 0
0:00:00.00 60815 N 0 0 0
0:00:00.00 61065 N 0 0 0
0:00:00.00 61312 N 0 0 0
0:00:00.00 61560 N 0 0 0
0:00:00.00 61823 N 0 0 0
0:00:00.00 62084 N 0 0 0
0:00:00.00 62350 N 0 0 0
0:00:00.00 62611 N 0 0 0
0:00:00.00 62879 N 0 0 0
0:00:00.00 63131 N 0 0 0
0:00:00.00 63387 N 0 0 0
0:00:00.00 63635 N 0 0 0
0:00:00.00 63887 N 0 0 0
0:00:00.00 64136 N 0 0 0
0:00:00.00 64404 N 0 0 0
0:00:00.00 64678 N 0 0 0
0:00:00.00 64942 N 0 0 0
0:00:00.00 65189 N 0 0 0
0:00:00.00 65439 N 0 0 0
0:00:00.00 65687 N 0 0 0
0:00:00.00 65936 N 0 0 0
0:00:00.00 66193 N 0 0 0
0:00:00.00 66447 N 0 0 0
0:00:00.00 66708 N 0 0 0
0:00:00.00 66870 N 0 0 0
0:00:00.00 67230 N 0 0 0
0:00:00.00 67489 N 0 0 0
0:00:00.00 67738 N 0 0 0
0:00:00.00 67981 N 0 0 0
0:00:00.00 68233 N 0 0 0
0:00:00.00 68477 N 0 0 0
0:00:00.00 68747 N 0 0 0
0:00:00.00 69014 N 0 0 0
0:00:00.00 69273 N 0 0 0
0:00:00.00 69523 N 0 0 0
0:00:00.00 69775 N 0 0 0
0:00:00.00 70029 N 0 0 0
0:00:00.00 70274 N 0 0 0
0:00:00.00 70526 N 0 0 0
0:00:00.00 70781 N 0 0 0
0:00:00.00 71053 N 0 0 0
0:00:00.00 71316 N 0 0 0
0:00:00.00 71586 N 0 0 0
0:00:00.00 71833 N 0 0 0
0:00:00.00 72081 N 0 0 0
0:00:00.00 72328 N 0 0 0
0:00:00.00 72488 N 0 0 0
0:00:00.00 72848 N 0 0 0
0:00:00.00 73121 N 0 0 0
0:00:00.00 73384 N 0 0 0
0:00:00.00 73651 N 0 0 0
0:00:00.00 73910 N 0 0 0
0:00:00.00 74162 N 0 0 0
0:00:00.00 74302 N 0 0 0
0:00:00.00 74660 N 0 0 0
0:00:00.00 74923 N 0 0 0
0:00:00.00 75188 N 0 0 0
0:00:00.00 75463 N 0 0 0
0:00:00.00 75731 N 0 0 0
0:00:00.00 75983 N 0 0 0
0:00:00.00 76234 N 0 0 0
0:00:00.00 76486 N 0 0 0
0:00:00.00 76739 N 0 0 0
0:00:00.00 77002 N 0 0 0
0:00:00.00 77261 N 0 0 0
0:00:00.00 77530 N 0 0 0
0:00:00.00 77792 N 0 0 0
0:00:00.00 78059 N 0 0 0
0:00:00.00 78313 N 0 0 0
0:00:00.00 78565 N 0 0 0
0:00:00.00 78809 N 0 0 0
0:00:00.00 79067 N 0 0 0
0:00:00.00 79319 N 0 0 0
0:00:00.00 79585 N 0 0 0
0:00:00.00 79857 N 0 0 0
0:00:00.00 80122 N 0 0 0
0:00:00.00 80370 N 0 0 0
0:00:00.00 80626 N 0 0 0
0:00:00.00 80883 N 0 0 0
0:00:00.00 81133 N 0 0 0
0:00:00.00 81382 N 0 0 0
0:00:00.00 81644 N 0 0 0
0:00:00.00 81909 N 0 0 0
0:00:00.00 82175 N 0 0 0
0:00:00.00 82442 N 0 0 0
0:00:00.00 82692 N 0 0 0
0:00:00.00 82937 N 0 0 0
0:00:00.00 83183 N 0 0 0
0:00:00.00 83452 N 0 0 0
0:00:00.00 83707 N 0 0 0
0:00:00.00 83974 N 0 0 0
0:00:00.00 84235 N 0 0 0
0:00:00.00 84497 N 0 0 0
0:00:00.00 84749 N 0 0 0
0:00:00.00 85005 N 0 0 0
0:00:00.00 85259 N 0 0 0
0:00:00.00 85513 N 0 0 0
0:00:00.00 85765 N 0 0 0
0:00:00.00 86036 N 0 0 0
0:00:00.00 86312 N 0 0 0
0:00:00.00 86573 N 0 0 0
0:00:00.00 86823 N 0 0 0
0:00:00.00 87073 N 0 0 0
0:00:00.00 87320 N 0 0 0
0:00:00.00 87574 N 0 0 0
0:00:00.00 87835 N 0 0 0
0:00:00.00 88097 N 0 0 0
0:00:00.00 88373 N 0 0 0
0:00:00.00 88634 N 0 0 0
0:00:00.00 88906 N 0 0 0
0:00:00.00 89159 N 0 0 0
0:00:00.00 89410 N 0 0 0
0:00:00.00 89658 N 0 0 0
0:00:00.00 89915 N 0 0 0
0:00:00.00 90178 N 0 0 0
0:00:00.00 90448 N 0 0 0
0:00:00.00 90716 N 0 0 0
0:00:00.00 90988 N 0 0 0
0:00:00.00 91238 N 0 0 0
0:00:00.00 91492 N 0 0 0
0:00:00.00 91748 N 0 0 0
0:00:00.00 92002 N 0 0 0
0:00:00.00 92255 N 0 0 0
0:00:00.00 92527 N 0 0 0
0:00:00.00 92794 N 0 0 0
0:00:00.00 93064 N 0 0 0
0:00:00.00 93335 N 0 0 0
0:00:00.00 93591 N 0 0 0
0:00:00.00 93830 N 0 0 0
0:00:00.00 94090 N 0 0 0
0:00:00.00 94361 N 0 0 0
0:00:00.00 94624 N 0 0 0
0:00:00.00 94889 N 0 0 0
0:00:00.00 95161 N 0 0 0
0:00:00.00 95427 N 0 0 0
0:00:00.00 95684 N 0 0 0
0:00:00.00 95942 N 0 0 0
0:00:00.00 96190 N 0 0 0
0:00:00.00 96449 N 0 0 0
0:00:00.00 96714 N 0 0 0
0:00:00.00 96989 N 0 0 0
0:00:00.00 97263 N 0 0 0
0:00:00.00 97524 N 0 0 0
0:00:00.00 97780 N 0 0 0
0:00:00.00 98033 N 0 0 0
0:00:00.00 98280 N 0 0 0
0:00:00.00 98548 N 0 0 0
0:00:00.00 98813 N 0 0 0
0:00:00.00 99081 N 0 0 0
0:00:00.00 99347 N 0 0 0
0:00:00.00 99621 N 0 0 0
0:00:00.00 99887 N 0 0 0
0:00:00.00 100139 N 0 0 0
0:00:00.00 100386 N 0 0 0
0:00:00.00 100640 N 0 0 0
0:00:00.00 100901 N 0 0 0
0:00:00.00 101169 N 0 0 0
0:00:00.00 101444 N 0 0 0
0:00:00.00 101709 N 0 0 0
0:00:00.00 101963 N 0 0 0
0:00:00.00 102118 N 0 0 0
0:00:00.00 102470 N 0 0 0
0:00:00.00 102724 N 0 0 0
0:00:00.00 102974 N 0 0 0
0:00:00.00 103241 N 0 0 0
0:00:00.00 103505 N 0 0 0
0:00:00.00 103766 N 0 0 0
0:00:00.00 104029 N 0 0 0
0:00:00.00 104279 N 0 0 0
0:00:00.00 104530 N 0 0 0
0:00:00.00 104773 N 0 0 0
0:00:00.00 105030 N 0 0 0
0:00:00.00 105298 N 0 0 0
0:00:00.00 105565 N 0 0 0
0:00:00.00 105824 N 0 0 0
0:00:00.00 106088 N 0 0 0
0:00:00.00 106342 N 0 0 0
0:00:00.00 106591 N 0 0 0
0:00:00.00 106846 N 0 0 0
0:00:00.00 107096 N 0 0 0
0:00:00.00 107348 N 0 0 0
0:00:00.00 107608 N 0 0 0
0:00:00.00 107881 N 0 0 0
0:00:00.00 108029 N 0 0 0
0:00:00.00 108398 N 0 0 0
0:00:00.00 108648 N 0 0 0
0:00:00.00 108900 N 0 0 0
0:00:00.00 109143 N 0 0 0
0:00:00.00 109402 N 0 0 0
0:00:00.00 109663 N 0 0 0
0:00:00.00 109931 N 0 0 0
0:00:00.00 110191 N 0 0 0
0:00:00.00 110459 N 0 0 0
0:00:00.00 110720 N 0 0 0
0:00:00.00 110965 N 0 0 0
0:00:00.00 111211 N 0 0 0
0:00:00.00 111461 N 0 0 0
0:00:00.00 111713 N 0 0 0
0:00:00.00 111982 N 0 0 0
0:00:00.00 112252 N 0 0 0
0:00:00.00 112516 N 0 0 0
0:00:00.00 112765 N 0 0 0
0:00:00.00 113018 N 0 0 0
0:00:00.00 113272 N 0 0 0
0:00:00.00 113521 N 0 0 0
0:00:00.00 113780 N 0 0 0
0:00:00.00 114037 N 0 0 0
0:00:00.00 114307 N 0 0 0
0:00:00.00 114572 N 0 0 0
0:00:00.00 114836 N 0 0 0
0:00:00.00 115090 N 0 0 0
0:00:00.00 115339 N 0 0 0
0:00:00.00 115585 N 0 0 0
0:00:00.00 115841 N 0 0 0
0:00:00.00 116111 N 0 0 0
0:00:00.00 116379 N 0 0 0
0:00:00.00 116642 N 0 0 0
0:00:00.00 116905 N 0 0 0
0:00:00.00 117160 N 0 0 0
0:00:00.00 117414 N 0 0 0
0:00:00.00 117673 N 0 0 0
0:00:00.00 117920 N 0 0 0
0:00:00.00 118175 N 0 0 0
0:00:00.00 118346 N 0 0 0
0:00:00.00 118717 N 0 0 0
0:00:00.00 118987 N 0 0 0
0:00:00.00 119239 N 0 0 0
0:00:00.00 119488 N 0 0 0
0:00:00.00 119740 N 0 0 0
0:00:00.00 119907 N 0 0 0
0:00:00.00 119995 N 0 0 0
0:00:00.00 120251 N 0 0 0
0:00:00.00 120514 N 0 0 0
0:00:00.00 120780 N 0 0 0
0:00:00.00 121039 N 0 0 0
0:00:00.00 121307 N 0 0 0
0:00:00.00 121561 N 0 0 0
0:00:00.00 121813 N 0 0 0
0:00:00.00 122058 N 0 0 0
0:00:00.00 122315 N 0 0 0
0:00:00.00 122575 N 0 0 0
0:00:00.00 122843 N 0 0 0
0:00:00.00 123118 N 0 0 0
0:00:00.00 123383 N 0 0 0
0:00:00.00 123631 N 0 0 0
0:00:00.00 123883 N 0 0 0
0:00:00.00 124148 N 0 0 0
0:00:00.00 124396 N 0 0 0
0:00:00.00 124648 N 0 0 0
0:00:00.00 124915 N 0 0 0
0:00:00.00 125185 N 0 0 0
0:00:00.00 125453 N 0 0 0
0:00:00.00 125723 N 0 0 0
0:00:00.00 125971 N 0 0 0
0:00:00.00 126113 N 0 0 0
0:00:00.00 126470 N 0 0 0
0:00:00.00 126740 N 0 0 0
0:00:00.00 127004 N 0 0 0
0:00:00.00 127274 N 0 0 0
0:00:00.00 127541 N 0 0 0
0:00:00.00 127804 N 0 0 0
0:00:00.00 128057 N 0 0 0
0:00:00.00 128317 N 0 0 0
0:00:00.00 128567 N 0 0 0
0:00:00.00 128826 N 0 0 0
0:00:00.00 129083 N 0 0 0
0:00:00.00 129357 N 0 0 0
0:00:00.00 129632 N 0 0 0
0:00:00.00 129897 N 0 0 0
0:00:00.00 130144 N 0 0 0
0:00:00.00 130396 N 0 0 0
0:00:00.00 130646 N 0 0 0
0:00:00.00 130903 N 0 0 0
0:00:00.00 131164 N 0 0 0
0:00:00.00 131431 N 0 0 0
0:00:00.00 131695 N 0 0 0
0:00:00.00 131958 N 0 0 0
0:00:00.00 132224 N 0 0 0
0:00:00.00 132471 N 0 0 0
0:00:00.00 132719 N 0 0 0
0:00:00.00 132966 N 0 0 0
0:00:00.00 133227 N 0 0 0
0:00:00.00 133490 N 0 0 0
0:00:00.00 133763 N 0 0 0
0:00:00.00 134030 N 0 0 0
0:00:00.00 134296 N 0 0 0
0:00:00.00 134539 N 0 0 0
0:00:00.00 134793 N 0 0 0
0:00:00.00 135049 N 0 0 0
0:00:00.00 135308 N 0 0 0
0:00:00.00 135567 N 0 0 0
0:00:00.00 135833 N 0 0 0
0:00:00.00 136102 N 0 0 0
0:00:00.00 136368 N 0 0 0
0:00:00.00 136631 N 0 0 0
0:00:00.00 136883 N 0 0 0
0:00:00.00 137128 N 0 0 0
0:00:00.00 137385 N 0 0 0
0:00:00.00 137655 N 0 0 0
0:00:00.00 137921 N 0 0 0
0:00:00.00 138188 N 0 0 0
0:00:00.00 138454 N 0 0 0
0:00:00.00 138717 N 0 0 0
0:00:00.00 138969 N 0 0 0
0:00:00.00 139225 N 0 0 0
0:00:00.00 139475 N 0 0 0
0:00:00.00 139738 N 0 0 0
0:00:00.00 140000 N 0 0 0
0:00:00.00 140276 N 0 0 0
0:00:00.00 140553 N 0 0 0
0:00:00.00 140812 N 0 0 0
0:00:00.00 141064 N 0 0 0
0:00:00.00 141311 N 0 0 0
0:00:00.00 141561 N 0 0 0
0:00:00.00 141829 N 0 0 0
0:00:00.00 142097 N 0 0 0
0:00:00.00 142366 N 0 0 0
0:00:00.00 142630 N 0 0 0
0:00:00.00 142898 N 0 0 0
0:00:00.00 143158 N 0 0 0
0:00:00.00 143415 N 0 0 0
0:00:00.00 143660 N 0 0 0
0:00:00.00 143915 N 0 0 0
0:00:00.00 144180 N 0 0 0
0:00:00.00 144457 N 0 0 0
0:00:00.00 144729 N 0 0 0
0:00:00.00 144990 N 0 0 0
0:00:00.00 145247 N 0 0 0
0:00:00.00 145499 N 0 0 0
0:00:00.00 145760 N 0 0 0
0:00:00.00 146011 N 0 0 0
0:00:00.00 146273 N 0 0 0
0:00:00.00 146540 N 0 0 0
0:00:00.00 146806 N 0 0 0
0:00:00.00 146952 N 0 0 0
0:00:00.00 147330 N 0 0 0
0:00:00.00 147586 N 0 0 0
0:00:00.00 147836 N 0 0 0
0:00:00.00 148084 N 0 0 0
0:00:00.00 148347 N 0 0 0
0:00:00.00 148621 N 0 0 0
0:00:00.00 148891 N 0 0 0
0:00:00.00 149148 N 0 0 0
0:00:00.00 149409 N 0 0 0
0:00:00.00 149656 N 0 0 0
0:00:00.00 149908 N 0 0 0
0:00:00.00 150165 N 0 0 0
0:00:00.00 150417 N 0 0 0
0:00:00.00 150680 N 0 0 0
0:00:00.00 150943 N 0 0 0
0:00:00.00 151216 N 0 0 0
0:00:00.00 151477 N 0 0 0
0:00:00.00 151726 N 0 0 0
0:00:00.00 151974 N 0 0 0
0:00:00.00 152226 N 0 0 0
0:00:00.00 152478 N 0 0 0
0:00:00.00 152739 N 0 0 0
0:00:00.00 153005 N 0 0 0
0:00:00.00 153272 N 0 0 0
0:00:00.00 153538 N 0 0 0
0:00:00.00 153801 N 0 0 0
0:00:00.00 154055 N 0 0 0
0:00:00.00 154309 N 0 0 0
0:00:00.00 154562 N 0 0 0
0:00:00.00 154822 N 0 0 0
0:00:00.00 155084 N 0 0 0
0:00:00.00 155358 N 0 0 0
0:00:00.00 155632 N 0 0 0
0:00:00.00 155889 N 0 0 0
0:00:00.00 156139 N 0 0 0
0:00:00.00 156393 N 0 0 0
0:00:00.00 156649 N 0 0 0
0:00:00.00 156807 N 0 0 0
0:00:00.00 157167 N 0 0 0
0:00:00.00 157437 N 0 0 0
0:00:00.00 157700 N 0 0 0
0:00:00.00 157970 N 0 0 0
0:00:00.00 158229 N 0 0 0
0:00:00.00 158472 N 0 0 0
0:00:00.00 158720 N 0 0 0
0:00:00.00 158974 N 0 0 0
0:00:00.00 159235 N 0 0 0
0:00:00.00 159502 N 0 0 0
0:00:00.00 159768 N 0 0 0
0:00:00.00 160034 N 0 0 0
0:00:00.00 160288 N 0 0 0
0:00:00.00 160533 N 0 0 0
0:00:00.00 160785 N 0 0 0
0:00:00.00 161037 N 0 0 0
0:00:00.00 161294 N 0 0 0
0:00:00.00 161552 N 0 0 0
0:00:00.00 161822 N 0 0 0
0:00:00.00 162097 N 0 0 0
0:00:00.00 162356 N 0 0 0
0:00:00.00 162598 N 0 0 0
0:00:00.00 162844 N 0 0 0
0:00:00.00 163096 N 0 0 0
0:00:00.00 163354 N 0 0 0
0:00:00.00 163613 N 0 0 0
0:00:00.00 163762 N 0 0 0
0:00:00.00 164144 N 0 0 0
0:00:00.00 164410 N 0 0 0
0:00:00.00 164677 N 0 0 0
0:00:00.00 164925 N 0 0 0
0:00:00.00 165175 N 0 0 0
0:00:00.00 165425 N 0 0 0
0:00:00.00 165686 N 0 0 0
0:00:00.00 165850 N 0 0 0
0:00:00.00 166221 N 0 0 0
0:00:00.00 166500 N 0 0 0
0:00:00.00 166756 N 0 0 0
0:00:00.00 167002 N 0 0 0
0:00:00.00 167256 N 0 0 0
0:00:00.00 167513 N 0 0 0
0:00:00.00 167776 N 0 0 0
0:00:00.00 168034 N 0 0 0
0:00:00.00 168302 N 0 0 0
0:00:00.00 168568 N 0 0 0
0:00:00.00 168831 N 0 0 0
0:00:00.00 169092 N 0 0 0
0:00:00.00 169337 N 0 0 0
0:00:00.00 169589 N 0 0 0
0:00:00.00 169850 N 0 0 0
0:00:00.00 170122 N 0 0 0
0:00:00.00 170386 N 0 0 0
0:00:00.00 170654 N 0 0 0
0:00:00.00 170923 N 0 0 0
0:00:00.00 171180 N 0 0 0
0:00:00.00 171434 N 0 0 0
0:00:00.00 171686 N 0 0 0
0:00:00.00 171938 N 0 0 0
0:00:00.00 172201 N 0 0 0
0:00:00.00 172469 N 0 0 0
0:00:00.00 172737 N 0 0 0
0:00:00.00 173005 N 0 0 0
0:00:00.00 173264 N 0 0 0
0:00:00.00 173513 N 0 0 0
0:00:00.00 173759 N 0 0 0
0:00:00.00 173934 N 0 0 0
0:00:00.00 174274 N 0 0 0
0:00:00.00 174546 N 0 0 0
0:00:00.00 174812 N 0 0 0
0:00:00.00 175073 N 0 0 0
0:00:00.00 175334 N 0 0 0
0:00:00.00 175599 N 0 0 0
0:00:00.00 175842 N 0 0 0
0:00:00.00 176089 N 0 0 0
0:00:00.00 176337 N 0 0 0
0:00:00.00 176609 N 0 0 0
0:00:00.00 176877 N 0 0 0
0:00:00.00 177142 N 0 0 0
0:00:00.00 177404 N 0 0 0
0:00:00.00 177660 N 0 0 0
0:00:00.00 177903 N 0 0 0
0:00:00.00 178159 N 0 0 0
0:00:00.00 178414 N 0 0 0
0:00:00.00 178675 N 0 0 0
0:00:00.00 178931 N 0 0 0
0:00:00.00 179199 N 0 0 0
0:00:00.00 179458 N 0 0 0
0:00:00.00 179716 N 0 0 0
0:00:00.00 179975 N 0 0 0
0:00:00.00 180221 N 0 0 0
0:00:00.00 180464 N 0 0 0
0:00:00.00 180725 N 0 0 0
0:00:00.00 180999 N 0 0 0
0:00:00.00 181264 N 0 0 0
0:00:00.00 181526 N 0 0 0
0:00:00.00 181791 N 0 0 0
0:00:00.00 182041 N 0 0 0
0:00:00.00 182295 N 0 0 0
0:00:00.00 182547 N 0 0 0
0:00:00.00 182801 N 0 0 0
0:00:00.00 183064 N 0 0 0
0:00:00.00 183330 N 0 0 0
0:00:00.00 183604 N 0 0 0
0:00:00.00 183872 N 0 0 0
0:00:00.00 184126 N 0 0 0
0:00:00.00 184376 N 0 0 0
0:00:00.00 184624 N 0 0 0
0:00:00.00 184876 N 0 0 0
0:00:00.00 185141 N 0 0 0
0:00:00.00 185416 N 0 0 0
0:00:00.00 185679 N 0 0 0
0:00:00.00 185945 N 0 0 0
0:00:00.00 186210 N 0 0 0
0:00:00.00 186471 N 0 0 0
0:00:00.00 186721 N 0 0 0
0:00:00.00 186970 N 0 0 0
0:00:00.00 187227 N 0 0 0
0:00:00.00 187493 N 0 0 0
0:00:00.00 187767 N 0 0 0
0:00:00.00 188035 N 0 0 0
0:00:00.00 188291 N 0 0 0
0:00:00.00 188545 N 0 0 0
0:00:00.00 188791 N 0 0 0
0:00:00.00 189049 N 0 0 0
0:00:00.00 189301 N 0 0 0
0:00:00.00 189562 N 0 0 0
0:00:00.00 189824 N 0 0 0
0:00:00.00 190098 N 0 0 0
0:00:00.00 190364 N 0 0 0
0:00:00.00 190616 N 0 0 0
0:00:00.00 190868 N 0 0 0
0:00:00.00 191119 N 0 0 0
0:00:00.00 191367 N 0 0 0
0:00:00.00 191632 N 0 0 0
0:00:00.00 191907 N 0 0 0
0:00:00.00 192175 N 0 0 0
0:00:00.00 192436 N 0 0 0
0:00:00.00 192699 N 0 0 0
0:00:00.00 192946 N 0 0 0
0:00:00.00 193198 N 0 0 0
0:00:00.00 193460 N 0 0 0
0:00:00.00 193718 N 0 0 0
0:00:00.00 193979 N 0 0 0
0:00:00.00 194249 N 0 0 0
0:00:00.00 194528 N 0 0 0
0:00:00.00 194791 N 0 0 0
0:00:00.00 195039 N 0 0 0
0:00:00.00 195289 N 0 0 0
0:00:00.00 195543 N 0 0 0
0:00:00.00 195804 N 0 0 0
0:00:00.00 196072 N 0 0 0
0:00:00.00 196344 N 0 0 0
0:00:00.00 196610 N 0 0 0
0:00:00.00 196875 N 0 0 0
0:00:00.00 197141 N 0 0 0
0:00:00.00 197395 N 0 0 0
0:00:00.00 197647 N 0 0 0
0:00:00.00 197908 N 0 0 0
0:00:00.00 198169 N 0 0 0
0:00:00.00 198331 N 0 0 0
0:00:00.00 198711 N 0 0 0
0:00:00.00 198976 N 0 0 0
0:00:00.00 199233 N 0 0 0
0:00:00.00 199480 N 0 0 0
0:00:00.00 199733 N 0 0 0
0:00:00.00 199989 N 0 0 0
0:00:00.00 200250 N 0 0 0
0:00:00.00 200509 N 0 0 0
0:00:00.00 200770 N 0 0 0
0:00:00.00 201033 N 0 0 0
0:00:00.00 201298 N 0 0 0
0:00:00.00 201550 N 0 0 0
0:00:00.00 201793 N 0 0 0
0:00:00.00 202041 N 0 0 0
0:00:00.00 202298 N 0 0 0
0:00:00.00 202567 N 0 0 0
0:00:00.00 202837 N 0 0 0
0:00:00.00 203101 N 0 0 0
0:00:00.00 203357 N 0 0 0
0:00:00.00 203616 N 0 0 0
0:00:00.00 203864 N 0 0 0
0:00:00.00 204113 N 0 0 0
0:00:00.00 204368 N 0 0 0
0:00:00.00 204637 N 0 0 0
0:00:00.00 204896 N 0 0 0
0:00:00.00 205166 N 0 0 0
0:00:00.00 205434 N 0 0 0
0:00:00.00 205693 N 0 0 0
0:00:00.00 205938 N 0 0 0
0:00:00.00 206190 N 0 0 0
0:00:00.00 206438 N 0 0 0
0:00:00.00 206703 N 0 0 0
0:00:00.00 206971 N 0 0 0
0:00:00.00 207241 N 0 0 0
0:00:00.00 207508 N 0 0 0
0:00:00.00 207770 N 0 0 0
0:00:00.00 208033 N 0 0 0
0:00:00.00 208283 N 0 0 0
0:00:00.00 208532 N 0 0 0
0:00:00.00 208793 N 0 0 0
0:00:00.00 209063 N 0 0 0
0:00:00.00 209333 N 0 0 0
0:00:00.00 209606 N 0 0 0
0:00:00.00 209873 N 0 0 0
0:00:00.00 210128 N 0 0 0
0:00:00.00 210375 N 0 0 0
0:00:00.00 210634 N 0 0 0
0:00:00.00 210893 N 0 0 0
0:00:00.00 211162 N 0 0 0
0:00:00.00 211428 N 0 0 0
0:00:00.00 211694 N 0 0 0
0:00:00.00 211957 N 0 0 0
0:00:00.00 212216 N 0 0 0
0:00:00.00 212476 N 0 0 0
0:00:00.00 212724 N 0 0 0
0:00:00.00 212978 N 0 0 0
0:00:00.00 213241 N 0 0 0
0:00:00.00 213516 N 0 0 0
0:00:00.00 213788 N 0 0 0
0:00:00.00 214052 N 0 0 0
0:00:00.00 214312 N 0 0 0
0:00:00.00 214565 N 0 0 0
0:00:00.00 214826 N 0 0 0
0:00:00.00 215086 N 0 0 0
0:00:00.00 215345 N 0 0 0
0:00:00.00 215613 N 0 0 0
0:00:00.00 215883 N 0 0 0
0:00:00.00 216157 N 0 0 0
0:00:00.00 216421 N 0 0 0
0:00:00.00 216673 N 0 0 0
0:00:00.00 216923 N 0 0 0
0:00:00.00 217184 N 0 0 0
0:00:00.00 217440 N 0 0 0
0:00:00.00 217708 N 0 0 0
0:00:00.00 217980 N 0 0 0
0:00:00.00 218250 N 0 0 0
0:00:00.00 218513 N 0 0 0
0:00:00.00 218768 N 0 0 0
0:00:00.00 219024 N 0 0 0
0:00:00.00 219280 N 0 0 0
0:00:00.00 219535 N 0 0 0
0:00:00.00 219798 N 0 0 0
0:00:00.00 220066 N 0 0 0
0:00:00.00 220340 N 0 0 0
0:00:00.00 220612 N 0 0 0
0:00:00.00 220871 N 0 0 0
0:00:00.00 221117 N 0 0 0
0:00:00.00 221375 N 0 0 0
0:00:00.00 221638 N 0 0 0
0:00:00.00 221904 N 0 0 0
0:00:00.00 222165 N 0 0 0
0:00:00.00 222439 N 0 0 0
0:00:00.00 222701 N 0 0 0
0:00:00.00 222970 N 0 0 0
0:00:00.00 223229 N 0 0 0
0:00:00.00 223481 N 0 0 0
0:00:00.00 223733 N 0 0 0
0:00:00.00 223994 N 0 0 0
0:00:00.00 224273 N 0 0 0
0:00:00.00 224541 N 0 0 0
0:00:00.00 224809 N 0 0 0
0:00:00.00 225070 N 0 0 0
0:00:00.00 225326 N 0 0 0
0:00:00.00 225581 N 0 0 0
0:00:00.00 225841 N 0 0 0
0:00:00.00 226075 N 0 0 0
0:00:00.00 226364 N 0 0 0
0:00:00.00 226633 N 0 0 0
0:00:00.00 226910 N 0 0 0
0:00:00.00 227173 N 0 0 0
0:00:00.00 227326 N 0 0 0
0:00:00.00 227428 N 0 0 0
0:00:00.00 227682 N 0 0 0
0:00:00.00 227934 N 0 0 0
0:00:00.00 228190 N 0 0 0
0:00:00.00 228461 N 0 0 0
0:00:00.00 228733 N 0 0 0
0:00:00.00 229003 N 0 0 0
0:00:00.00 229266 N 0 0 0
0:00:00.00 229529 N 0 0 0
0:00:00.00 229786 N 0 0 0
0:00:00.00 230038 N 0 0 0
0:00:00.00 230296 N 0 0 0
0:00:00.00 230555 N 0 0 0
0:00:00.00 230823 N 0 0 0
0:00:00.00 231097 N 0 0 0
0:00:00.00 231266 N 0 0 0
0:00:00.00 231626 N 0 0 0
0:00:00.00 231880 N 0 0 0
0:00:00.00 232135 N 0 0 0
0:00:00.00 232394 N 0 0 0
0:00:00.00 232661 N 0 0 0
0:00:00.00 232924 N 0 0 0
0:00:00.00 233194 N 0 0 0
0:00:00.00 233465 N 0 0 0
0:00:00.00 233728 N 0 0 0
0:00:00.00 233989 N 0 0 0
0:00:00.00 234241 N 0 0 0
0:00:00.00 234493 N 0 0 0
0:00:00.00 234752 N 0 0 0
0:00:00.00 235030 N 0 0 0
0:00:00.00 235305 N 0 0 0
0:00:00.00 235571 N 0 0 0
0:00:00.00 235832 N 0 0 0
0:00:00.00 236095 N 0 0 0
0:00:00.00 236345 N 0 0 0
0:00:00.00 236603 N 0 0 0
0:00:00.00 236866 N 0 0 0
0:00:00.00 237139 N 0 0 0
0:00:00.00 237404 N 0 0 0
0:00:00.00 237681 N 0 0 0
0:00:00.00 237947 N 0 0 0
0:00:00.00 238088 N 0 0 0
0:00:00.00 238450 N 0 0 0
0:00:00.00 238702 N 0 0 0
0:00:00.00 238955 N 0 0 0
0:00:00.00 239222 N 0 0 0
0:00:00.00 239499 N 0 0 0
0:00:00.00 239767 N 0 0 0
0:00:00.00 240023 N 0 0 0
0:00:00.00 240282 N 0 0 0
0:00:00.00 240538 N 0 0 0
0:00:00.00 240795 N 0 0 0
0:00:00.00 241038 N 0 0 0
0:00:00.00 241294 N 0 0 0
0:00:00.00 241565 N 0 0 0
0:00:00.00 241834 N 0 0 0
0:00:00.00 241983 N 0 0 0
0:00:00.00 242356 N 0 0 0
0:00:00.00 242611 N 0 0 0
0:00:00.00 242860 N 0 0 0
0:00:00.00 243112 N 0 0 0
0:00:00.00 243369 N 0 0 0
0:00:00.00 243639 N 0 0 0
0:00:00.00 243900 N 0 0 0
0:00:00.00 244161 N 0 0 0
0:00:00.00 244424 N 0 0 0
0:00:00.00 244679 N 0 0 0
0:00:00.00 244926 N 0 0 0
0:00:00.00 245176 N 0 0 0
0:00:00.00 245425 N 0 0 0
0:00:00.00 245687 N 0 0 0
0:00:00.00 245965 N 0 0 0
0:00:00.00 246229 N 0 0 0
0:00:00.00 246488 N 0 0 0
0:00:00.00 246742 N 0 0 0
0:00:00.00 246996 N 0 0 0
0:00:00.00 247248 N 0 0 0
0:00:00.00 247500 N 0 0 0
0:00:00.00 247761 N 0 0 0
0:00:00.00 248024 N 0 0 0
0:00:00.00 248285 N 0 0 0
0:00:00.00 248558 N 0 0 0
0:00:00.00 248823 N 0 0 0
0:00:00.00 249068 N 0 0 0
0:00:00.00 249314 N 0 0 0
0:00:00.00 249568 N 0 0 0
0:00:00.00 249818 N 0 0 0
0:00:00.00 250088 N 0 0 0
0:00:00.00 250364 N 0 0 0
0:00:00.00 250630 N 0 0 0
0:00:00.00 250884 N 0 0 0
0:00:00.00 251147 N 0 0 0
0:00:00.00 251401 N 0 0 0
0:00:00.00 251654 N 0 0 0
0:00:00.00 251897 N 0 0 0
0:00:00.00 252166 N 0 0 0
0:00:00.00 252427 N 0 0 0
0:00:00.00 252702 N 0 0 0
0:00:00.00 252974 N 0 0 0
0:00:00.00 253228 N 0 0 0
0:00:00.00 253478 N 0 0 0
0:00:00.00 253735 N 0 0 0
0:00:00.00 253998 N 0 0 0
0:00:00.00 254257 N 0 0 0
0:00:00.00 254428 N 0 0 0
0:00:00.00 254799 N 0 0 0
0:00:00.00 255071 N 0 0 0
0:00:00.00 255334 N 0 0 0
0:00:00.00 255591 N 0 0 0
0:00:00.00 255841 N 0 0 0
0:00:00.00 256095 N 0 0 0
0:00:00.00 256361 N 0 0 0
0:00:00.00 256635 N 0 0 0
0:00:00.00 256912 N 0 0 0
0:00:00.00 257184 N 0 0 0
0:00:00.00 257450 N 0 0 0
0:00:00.00 257704 N 0 0 0
0:00:00.00 257958 N 0 0 0
0:00:00.00 258223 N 0 0 0
0:00:00.00 258487 N 0 0 0
0:00:00.00 258757 N 0 0 0
0:00:00.00 259029 N 0 0 0
0:00:00.00 259304 N 0 0 0
0:00:00.00 259576 N 0 0 0
0:00:00.00 259837 N 0 0 0
0:00:00.00 260087 N 0 0 0
0:00:00.00 260343 N 0 0 0
0:00:00.00 260602 N 0 0 0
0:00:00.00 260878 N 0 0 0
0:00:00.00 261160 N 0 0 0
0:00:00.00 261434 N 0 0 0
0:00:00.00 261704 N 0 0 0
0:00:00.00 261965 N 0 0 0
0:00:00.00 262229 N 0 0 0
0:00:00.00 262489 N 0 0 0
0:00:00.00 262742 N 0 0 0
0:00:00.00 263011 N 0 0 0
0:00:00.00 263286 N 0 0 0
0:00:00.00 263563 N 0 0 0
0:00:00.00 263837 N 0 0 0
0:00:00.00 264096 N 0 0 0
0:00:00.00 264346 N 0 0 0
0:00:00.00 264605 N 0 0 0
0:00:00.00 264874 N 0 0 0
0:00:00.00 265138 N 0 0 0
0:00:00.00 265405 N 0 0 0
0:00:00.00 265678 N 0 0 0
0:00:00.00 265946 N 0 0 0
0:00:00.00 266211 N 0 0 0
0:00:00.00 266477 N 0 0 0
0:00:00.00 266728 N 0 0 0
0:00:00.00 266981 N 0 0 0
0:00:00.00 267251 N 0 0 0
0:00:00.00 267529 N 0 0 0
0:00:00.00 267802 N 0 0 0
0:00:00.00 268072 N 0 0 0
0:00:00.00 268335 N 0 0 0
0:00:00.00 268585 N 0 0 0
0:00:00.00 268844 N 0 0 0
0:00:00.00 269105 N 0 0 0
0:00:00.00 269368 N 0 0 0
0:00:00.00 269527 N 0 0 0
0:00:00.00 269903 N 0 0 0
0:00:00.00 270180 N 0 0 0
0:00:00.00 270443 N 0 0 0
0:00:00.00 270700 N 0 0 0
0:00:00.00 270950 N 0 0 0
0:00:00.00 271202 N 0 0 0
0:00:00.00 271463 N 0 0 0
0:00:00.00 271733 N 0 0 0
0:00:00.00 272009 N 0 0 0
0:00:00.00 272273 N 0 0 0
0:00:00.00 272533 N 0 0 0
0:00:00.00 272795 N 0 0 0
0:00:00.00 273051 N 0 0 0
0:00:00.00 273310 N 0 0 0
0:00:00.00 273562 N 0 0 0
0:00:00.00 273825 N 0 0 0
0:00:00.00 274097 N 0 0 0
0:00:00.00 274372 N 0 0 0
0:00:00.00 274642 N 0 0 0
0:00:00.00 274898 N 0 0 0
0:00:00.00 275144 N 0 0 0
0:00:00.00 275400 N 0 0 0
0:00:00.00 275665 N 0 0 0
0:00:00.00 275927 N 0 0 0
0:00:00.00 276187 N 0 0 0
0:00:00.00 276458 N 0 0 0
0:00:00.00 276721 N 0 0 0
0:00:00.00 276980 N 0 0 0
0:00:00.00 277234 N 0 0 0
0:00:00.00 277486 N 0 0 0
0:00:00.00 277742 N 0 0 0
0:00:00.00 277997 N 0 0 0
0:00:00.00 278273 N 0 0 0
0:00:00.00 278545 N 0 0 0
0:00:00.00 278815 N 0 0 0
0:00:00.00 279074 N 0 0 0
0:00:00.00 279328 N 0 0 0
0:00:00.00 279578 N 0 0 0
0:00:00.00 279833 N 0 0 0
0:00:00.00 280100 N 0 0 0
0:00:00.00 280364 N 0 0 0
0:00:00.00 280625 N 0 0 0
0:00:00.00 280897 N 0 0 0
0:00:00.00 281167 N 0 0 0
0:00:00.00 281421 N 0 0 0
0:00:00.00 281664 N 0 0 0
0:00:00.00 281914 N 0 0 0
0:00:00.00 282166 N 0 0 0
0:00:00.00 282431 N 0 0 0
0:00:00.00 282706 N 0 0 0
0:00:00.00 282969 N 0 0 0
0:00:00.00 283230 N 0 0 0
0:00:00.00 283489 N 0 0 0
0:00:00.00 283747 N 0 0 0
0:00:00.00 283993 N 0 0 0
0:00:00.00 284245 N 0 0 0
0:00:00.00 284501 N 0 0 0
0:00:00.00 284767 N 0 0 0
0:00:00.00 285032 N 0 0 0
0:00:00.00 285298 N 0 0 0
0:00:00.00 285557 N 0 0 0
0:00:00.00 285809 N 0 0 0
0:00:00.00 286054 N 0 0 0
0:00:00.00 286306 N 0 0 0
0:00:00.00 286562 N 0 0 0
0:00:00.00 286828 N 0 0 0
0:00:00.00 287089 N 0 0 0
0:00:00.00 287352 N 0 0 0
0:00:00.00 287613 N 0 0 0
0:00:00.00 287870 N 0 0 0
0:00:00.00 288124 N 0 0 0
0:00:00.00 288369 N 0 0 0
0:00:00.00 288619 N 0 0 0
0:00:00.00 288875 N 0 0 0
0:00:00.00 289148 N 0 0 0
0:00:00.00 289415 N 0 0 0
0:00:00.00 289679 N 0 0 0
0:00:00.00 289930 N 0 0 0
0:00:00.00 290180 N 0 0 0
0:00:00.00 290430 N 0 0 0
0:00:00.00 290684 N 0 0 0
0:00:00.00 290943 N 0 0 0
0:00:00.00 291209 N 0 0 0
0:00:00.00 291470 N 0 0 0
0:00:00.00 291744 N 0 0 0
0:00:00.00 292009 N 0 0 0
0:00:00.00 292262 N 0 0 0
0:00:00.00 292505 N 0 0 0
0:00:00.00 292756 N 0 0 0
0:00:00.00 293011 N 0 0 0
0:00:00.00 293274 N 0 0 0
0:00:00.00 293549 N 0 0 0
0:00:00.00 293814 N 0 0 0
0:00:00.00 294070 N 0 0 0
0:00:00.00 294325 N 0 0 0
0:00:00.00 294584 N 0 0 0
0:00:00.00 294831 N 0 0 0
0:00:00.00 295079 N 0 0 0
0:00:00.00 295339 N 0 0 0
0:00:00.00 295607 N 0 0 0
0:00:00.00 295868 N 0 0 0
0:00:00.00 296134 N 0 0 0
0:00:00.00 296393 N 0 0 0
0:00:00.00 296543 N 0 0 0
0:00:00.00 296885 N 0 0 0
0:00:00.00 297142 N 0 0 0
0:00:00.00 297401 N 0 0 0
0:00:00.00 297664 N 0 0 0
0:00:00.00 297925 N 0 0 0
0:00:00.00 298186 N 0 0 0
0:00:00.00 298442 N 0 0 0
0:00:00.00 298699 N 0 0 0
0:00:00.00 298953 N 0 0 0
0:00:00.00 299198 N 0 0 0
0:00:00.00 299446 N 0 0 0
0:00:00.00 299707 N 0 0 0
0:00:00.00 299979 N 0 0 0
0:00:00.00 300244 N 0 0 0
0:00:00.00 300505 N 0 0 0
0:00:00.00 300757 N 0 0 0
0:00:00.00 301009 N 0 0 0
0:00:00.00 301257 N 0 0 0
0:00:00.00 301513 N 0 0 0
0:00:00.00 301768 N 0 0 0
0:00:00.00 302035 N 0 0 0
0:00:00.00 302296 N 0 0 0
0:00:00.00 302562 N 0 0 0
0:00:00.00 302823 N 0 0 0
0:00:00.00 303073 N 0 0 0
0:00:00.00 303316 N 0 0 0
0:00:00.00 303561 N 0 0 0
0:00:00.00 303813 N 0 0 0
0:00:00.00 304078 N 0 0 0
0:00:00.00 304346 N 0 0 0
0:00:00.00 304609 N 0 0 0
0:00:00.00 304864 N 0 0 0
0:00:00.00 305114 N 0 0 0
0:00:00.00 305366 N 0 0 0
0:00:00.00 305611 N 0 0 0
0:00:00.00 305856 N 0 0 0
0:00:00.00 306369 N 0 0 0
0:00:00.00 306628 N 0 0 0
0:00:00.00 306889 N 0 0 0
0:00:00.00 307145 N 0 0 0
0:00:00.00 307393 N 0 0 0
0:00:00.00 307629 N 0 0 0
0:00:00.00 307876 N 0 0 0
0:00:00.00 308133 N 0 0 0
0:00:00.00 308392 N 0 0 0
0:00:00.00 308648 N 0 0 0
0:00:00.00 308907 N 0 0 0
0:00:00.00 309166 N 0 0 0
0:00:00.00 309416 N 0 0 0
0:00:00.00 309665 N 0 0 0
0:00:00.00 309910 N 0 0 0
0:00:00.00 310153 N 0 0 0
0:00:00.00 310403 N 0 0 0
0:00:00.00 310669 N 0 0 0
0:00:00.00 310932 N 0 0 0
0:00:00.00 311193 N 0 0 0
0:00:00.00 311443 N 0 0 0
0:00:00.00 311585 N 0 0 0
0:00:00.00 311929 N 0 0 0
0:00:00.00 312178 N 0 0 0
0:00:00.00 312431 N 0 0 0
0:00:00.00 312682 N 0 0 0
0:00:00.00 312937 N 0 0 0
0:00:00.00 313196 N 0 0 0
0:00:00.00 313461 N 0 0 0
0:00:00.00 313704 N 0 0 0
0:00:00.00 313943 N 0 0 0
0:00:00.00 314181 N 0 0 0
0:00:00.00 314395 N 0 0 0
0:00:00.00 314658 N 0 0 0
0:00:00.00 314917 N 0 0 0
0:00:00.00 315175 N 0 0 0
0:00:00.00 315418 N 0 0 0
0:00:00.00 315666 N 0 0 0
0:00:00.00 315909 N 0 0 0
0:00:00.00 316148 N 0 0 0
0:00:00.00 316386 N 0 0 0
0:00:00.00 316625 N 0 0 0
0:00:00.00 316870 N 0 0 0
0:00:00.00 317122 N 0 0 0
0:00:00.00 317376 N 0 0 0
0:00:00.00 317635 N 0 0 0
0:00:00.00 317893 N 0 0 0
0:00:00.00 318136 N 0 0 0
0:00:00.00 318377 N 0 0 0
0:00:00.00 318616 N 0 0 0
0:00:00.00 318870 N 0 0 0
0:00:00.00 319124 N 0 0 0
0:00:00.00 319378 N 0 0 0
0:00:00.00 319631 N 0 0 0
0:00:00.00 319894 N 0 0 0
0:00:00.00 320146 N 0 0 0
0:00:00.00 320389 N 0 0 0
0:00:00.00 320634 N 0 0 0
0:00:00.00 320882 N 0 0 0
0:00:00.00 321127 N 0 0 0
0:00:00.00 321388 N 0 0 0
0:00:00.00 321655 N 0 0 0
0:00:00.00 321916 N 0 0 0
0:00:00.00 322164 N 0 0 0
0:00:00.00 322412 N 0 0 0
0:00:00.00 322661 N 0 0 0
0:00:00.00 322907 N 0 0 0
0:00:00.00 323158 N 0 0 0
0:00:00.00 323406 N 0 0 0
0:00:00.00 323671 N 0 0 0
0:00:00.00 323933 N 0 0 0
0:00:00.00 324196 N 0 0 0
0:00:00.00 324457 N 0 0 0
0:00:00.00 324704 N 0 0 0
0:00:00.00 324945 N 0 0 0
0:00:00.00 325201 N 0 0 0
0:00:00.00 325447 N 0 0 0
0:00:00.00 325710 N 0 0 0
0:00:00.00 325985 N 0 0 0
0:00:00.00 326246 N 0 0 0
0:00:00.00 326498 N 0 0 0
0:00:00.00 326756 N 0 0 0
0:00:00.00 327011 N 0 0 0
0:00:00.00 327258 N 0 0 0
0:00:00.00 327510 N 0 0 0
0:00:00.00 327773 N 0 0 0
0:00:00.00 328039 N 0 0 0
0:00:00.00 328307 N 0 0 0
0:00:00.00 328577 N 0 0 0
0:00:00.00 328831 N 0 0 0
0:00:00.00 329081 N 0 0 0
0:00:00.00 329333 N 0 0 0
0:00:00.00 329596 N 0 0 0
0:00:00.00 329857 N 0 0 0
0:00:00.00 330127 N 0 0 0
0:00:00.00 330392 N 0 0 0
0:00:00.00 330655 N 0 0 0
0:00:00.00 330917 N 0 0 0
0:00:00.00 331171 N 0 0 0
0:00:00.00 331423 N 0 0 0
0:00:00.00 331681 N 0 0 0
0:00:00.00 331934 N 0 0 0
0:00:00.00 332197 N 0 0 0
0:00:00.00 332474 N 0 0 0
0:00:00.00 332748 N 0 0 0
0:00:00.00 333000 N 0 0 0
0:00:00.00 333250 N 0 0 0
0:00:00.00 333502 N 0 0 0
0:00:00.00 333758 N 0 0 0
0:00:00.00 334017 N 0 0 0
0:00:00.00 334282 N 0 0 0
0:00:00.00 334546 N 0 0 0
0:00:00.00 334813 N 0 0 0
0:00:00.00 335083 N 0 0 0
0:00:00.00 335342 N 0 0 0
0:00:00.00 335588 N 0 0 0
0:00:00.00 335837 N 0 0 0
0:00:00.00 336096 N 0 0 0
0:00:00.00 336355 N 0 0 0
0:00:00.00 336629 N 0 0 0
0:00:00.00 336899 N 0 0 0
0:00:00.00 337165 N 0 0 0
0:00:00.00 337419 N 0 0 0
0:00:00.00 337678 N 0 0 0
0:00:00.00 337934 N 0 0 0
0:00:00.00 338186 N 0 0 0
0:00:00.00 338441 N 0 0 0
0:00:00.00 338708 N 0 0 0
0:00:00.00 338976 N 0 0 0
0:00:00.00 339244 N 0 0 0
0:00:00.00 339516 N 0 0 0
0:00:00.00 339764 N 0 0 0
0:00:00.00 340011 N 0 0 0
0:00:00.00 340268 N 0 0 0
0:00:00.00 340535 N 0 0 0
0:00:00.00 340798 N 0 0 0
0:00:00.00 341064 N 0 0 0
0:00:00.00 341334 N 0 0 0
0:00:00.00 341597 N 0 0 0
0:00:00.00 341861 N 0 0 0
0:00:00.00 342117 N 0 0 0
0:00:00.00 342365 N 0 0 0
0:00:00.00 342619 N 0 0 0
0:00:00.00 342882 N 0 0 0
0:00:00.00 343157 N 0 0 0
0:00:00.00 343422 N 0 0 0
0:00:00.00 343692 N 0 0 0
0:00:00.00 343948 N 0 0 0
0:00:00.00 344203 N 0 0 0
0:00:00.00 344457 N 0 0 0
0:00:00.00 344718 N 0 0 0
0:00:00.00 344983 N 0 0 0
0:00:00.00 345253 N 0 0 0
0:00:00.00 345523 N 0 0 0
0:00:00.00 345796 N 0 0 0
0:00:00.00 346063 N 0 0 0
0:00:00.00 346320 N 0 0 0
0:00:00.00 346572 N 0 0 0
0:00:00.00 346829 N 0 0 0
0:00:00.00 347090 N 0 0 0
0:00:00.00 347366 N 0 0 0
0:00:00.00 347641 N 0 0 0
0:00:00.00 347915 N 0 0 0
0:00:00.00 348176 N 0 0 0
0:00:00.00 348442 N 0 0 0
0:00:00.00 348700 N 0 0 0
0:00:00.00 348962 N 0 0 0
0:00:00.00 349214 N 0 0 0
0:00:00.00 349481 N 0 0 0
0:00:00.00 349753 N 0 0 0
0:00:00.00 350023 N 0 0 0
0:00:00.00 350291 N 0 0 0
0:00:00.00 350546 N 0 0 0
0:00:00.00 350793 N 0 0 0
0:00:00.00 351052 N 0 0 0
0:00:00.00 351319 N 0 0 0
0:00:00.00 351587 N 0 0 0
0:00:00.00 351851 N 0 0 0
0:00:00.00 352125 N 0 0 0
0:00:00.00 352391 N 0 0 0
0:00:00.00 352652 N 0 0 0
0:00:00.00 352915 N 0 0 0
0:00:00.00 353167 N 0 0 0
0:00:00.00 353425 N 0 0 0
0:00:00.00 353691 N 0 0 0
0:00:00.00 353972 N 0 0 0
0:00:00.00 354240 N 0 0 0
0:00:00.00 354503 N 0 0 0
0:00:00.00 354764 N 0 0 0
0:00:00.00 355021 N 0 0 0
0:00:00.00 355279 N 0 0 0
0:00:00.00 355545 N 0 0 0
0:00:00.00 355813 N 0 0 0
0:00:00.00 356087 N 0 0 0
0:00:00.00 356362 N 0 0 0
0:00:00.00 356647 N 0 0 0
0:00:00.00 356909 N 0 0 0
0:00:00.00 357167 N 0 0 0
0:00:00.00 357424 N 0 0 0
0:00:00.00 357685 N 0 0 0
0:00:00.00 357953 N 0 0 0
0:00:00.00 358229 N 0 0 0
0:00:00.00 358499 N 0 0 0
0:00:00.00 358763 N 0 0 0
0:00:00.00 359024 N 0 0 0
0:00:00.00 359285 N 0 0 0
0:00:00.00 359537 N 0 0 0
0:00:00.00 359795 N 0 0 0
0:00:00.00 360056 N 0 0 0
0:00:00.00 360328 N 0 0 0
0:00:00.00 360598 N 0 0 0
0:00:00.00 360869 N 0 0 0
0:00:00.00 361134 N 0 0 0
0:00:00.00 361388 N 0 0 0
0:00:00.00 361636 N 0 0 0
0:00:00.00 361894 N 0 0 0
0:00:00.00 362155 N 0 0 0
0:00:00.00 362426 N 0 0 0
0:00:00.00 362693 N 0 0 0
0:00:00.00 362957 N 0 0 0
0:00:00.00 363222 N 0 0 0
0:00:00.00 363481 N 0 0 0
0:00:00.00 363735 N 0 0 0
0:00:00.00 363985 N 0 0 0
0:00:00.00 364239 N 0 0 0
0:00:00.00 364498 N 0 0 0
0:00:00.00 364779 N 0 0 0
0:00:00.00 365049 N 0 0 0
0:00:00.00 365310 N 0 0 0
0:00:00.00 365564 N 0 0 0
0:00:00.00 365818 N 0 0 0
0:00:00.00 366068 N 0 0 0
0:00:00.00 366322 N 0 0 0
0:00:00.00 366581 N 0 0 0
0:00:00.00 366844 N 0 0 0
0:00:00.00 367108 N 0 0 0
0:00:00.00 367378 N 0 0 0
0:00:00.00 367639 N 0 0 0
0:00:00.00 367889 N 0 0 0
0:00:00.00 368134 N 0 0 0
0:00:00.00 368383 N 0 0 0
0:00:00.00 368633 N 0 0 0
0:00:00.00 368896 N 0 0 0
0:00:00.00 369167 N 0 0 0
0:00:00.00 369427 N 0 0 0
0:00:00.00 369682 N 0 0 0
0:00:00.00 369934 N 0 0 0
0:00:00.00 370188 N 0 0 0
0:00:00.00 370429 N 0 0 0
0:00:00.00 370676 N 0 0 0
0:00:00.00 370778 N 0 0 0
0:00:00.00 370928 N 0 0 0
0:00:00.00 371075 N 0 0 0
0:00:00.00 371191 N 0 0 0
0:00:00.00 371378 N 0 0 0
0:00:00.00 371714 N 0 0 0
0:00:00.00 371965 N 0 0 0
0:00:00.00 372208 N 0 0 0
0:00:00.00 372445 N 0 0 0
0:00:00.00 372690 N 0 0 0
0:00:00.00 372942 N 0 0 0
0:00:00.00 373198 N 0 0 0
0:00:00.00 373451 N 0 0 0
0:00:00.00 373707 N 0 0 0
0:00:00.00 373961 N 0 0 0
0:00:00.00 374211 N 0 0 0
0:00:00.00 374459 N 0 0 0
0:00:00.00 374701 N 0 0 0
0:00:00.00 374945 N 0 0 0
0:00:00.00 375194 N 0 0 0
0:00:00.00 375457 N 0 0 0
0:00:00.00 375719 N 0 0 0
0:00:00.00 375980 N 0 0 0
0:00:00.00 376227 N 0 0 0
0:00:00.00 376470 N 0 0 0
0:00:00.00 376711 N 0 0 0
0:00:00.00 376956 N 0 0 0
0:00:00.00 377204 N 0 0 0
0:00:00.00 377453 N 0 0 0
0:00:00.00 377710 N 0 0 0
0:00:00.00 377966 N 0 0 0
0:00:00.00 378230 N 0 0 0
0:00:00.00 378477 N 0 0 0
0:00:00.00 378720 N 0 0 0
0:00:00.00 378956 N 0 0 0
0:00:00.00 379199 N 0 0 0
0:00:00.00 379444 N 0 0 0
0:00:00.00 379701 N 0 0 0
0:00:00.00 379966 N 0 0 0
0:00:00.00 380221 N 0 0 0
0:00:00.00 380470 N 0 0 0
0:00:00.00 380716 N 0 0 0
0:00:00.00 380965 N 0 0 0
0:00:00.00 381204 N 0 0 0
0:00:00.00 381442 N 0 0 0
0:00:00.00 381690 N 0 0 0
0:00:00.00 381949 N 0 0 0
0:00:00.00 382205 N 0 0 0
0:00:00.00 382460 N 0 0 0
0:00:00.00 382712 N 0 0 0
0:00:00.00 382955 N 0 0 0
0:00:00.00 383188 N 0 0 0
0:00:00.00 383429 N 0 0 0
0:00:00.00 383679 N 0 0 0
0:00:00.00 383931 N 0 0 0
0:00:00.00 384178 N 0 0 0
0:00:00.00 384431 N 0 0 0
0:00:00.00 384685 N 0 0 0
0:00:00.00 384928 N 0 0 0
0:00:00.00 385171 N 0 0 0
0:00:00.00 385409 N 0 0 0
0:00:00.00 385645 N 0 0 0
0:00:00.00 385880 N 0 0 0
0:00:00.00 386134 N 0 0 0
0:00:00.00 386397 N 0 0 0
0:00:00.00 386649 N 0 0 0
0:00:00.00 386894 N 0 0 0
0:00:00.00 387139 N 0 0 0
0:00:00.00 387380 N 0 0 0
0:00:00.00 387616 N 0 0 0
0:00:00.00 387860 N 0 0 0
0:00:00.00 388103 N 0 0 0
0:00:00.00 388357 N 0 0 0
0:00:00.00 388609 N 0 0 0
0:00:00.00 388867 N 0 0 0
0:00:00.00 389122 N 0 0 0
0:00:00.00 389365 N 0 0 0
0:00:00.00 389601 N 0 0 0
0:00:00.00 389839 N 0 0 0
0:00:00.00 390082 N 0 0 0
0:00:00.00 390332 N 0 0 0
0:00:00.00 390591 N 0 0 0
0:00:00.00 390847 N 0 0 0
0:00:00.00 391104 N 0 0 0
0:00:00.00 391352 N 0 0 0
0:00:00.00 391595 N 0 0 0
0:00:00.00 391842 N 0 0 0
0:00:00.00 392085 N 0 0 0
0:00:00.00 392324 N 0 0 0
0:00:00.00 392573 N 0 0 0
0:00:00.00 392830 N 0 0 0
0:00:00.00 393093 N 0 0 0
0:00:00.00 393350 N 0 0 0
0:00:00.00 393595 N 0 0 0
0:00:00.00 393840 N 0 0 0
0:00:00.00 394078 N 0 0 0
0:00:00.00 394326 N 0 0 0
0:00:00.00 394576 N 0 0 0
0:00:00.00 394832 N 0 0 0
0:00:00.00 395084 N 0 0 0
0:00:00.00 395341 N 0 0 0
0:00:00.00 395591 N 0 0 0
0:00:00.00 395840 N 0 0 0
0:00:00.00 396086 N 0 0 0
0:00:00.00 396326 N 0 0 0
0:00:00.00 396569 N 0 0 0
0:00:00.00 396819 N 0 0 0
0:00:00.00 397085 N 0 0 0
0:00:00.00 397343 N 0 0 0
0:00:00.00 397598 N 0 0 0
0:00:00.00 397849 N 0 0 0
0:00:00.00 398095 N 0 0 0
0:00:00.00 398335 N 0 0 0
0:00:00.00 398583 N 0 0 0
0:00:00.00 398835 N 0 0 0
0:00:00.00 399089 N 0 0 0
0:00:00.00 399343 N 0 0 0
0:00:00.00 399605 N 0 0 0
0:00:00.00 399874 N 0 0 0
0:00:00.00 400120 N 0 0 0
0:00:00.00 400361 N 0 0 0
0:00:00.00 400608 N 0 0 0
0:00:00.00 400855 N 0 0 0
0:00:00.00 401108 N 0 0 0
0:00:00.00 401373 N 0 0 0
0:00:00.00 401636 N 0 0 0
0:00:00.00 401895 N 0 0 0
0:00:00.00 402147 N 0 0 0
0:00:00.00 402403 N 0 0 0
0:00:00.00 402649 N 0 0 0
0:00:00.00 402898 N 0 0 0
0:00:00.00 403144 N 0 0 0
0:00:00.00 403400 N 0 0 0
0:00:00.00 403664 N 0 0 0
0:00:00.00 403934 N 0 0 0
0:00:00.00 404201 N 0 0 0
0:00:00.00 404449 N 0 0 0
0:00:00.00 404694 N 0 0 0
0:00:00.00 404939 N 0 0 0
0:00:00.00 405196 N 0 0 0
0:00:00.00 405448 N 0 0 0
0:00:00.00 405709 N 0 0 0
0:00:00.00 405968 N 0 0 0
0:00:00.00 406231 N 0 0 0
0:00:00.00 406483 N 0 0 0
0:00:00.00 406733 N 0 0 0
0:00:00.00 406980 N 0 0 0
0:00:00.00 407227 N 0 0 0
0:00:00.00 407473 N 0 0 0
0:00:00.00 407732 N 0 0 0
0:00:00.00 408004 N 0 0 0
0:00:00.00 408269 N 0 0 0
0:00:00.00 408517 N 0 0 0
0:00:00.00 408764 N 0 0 0
0:00:00.00 409009 N 0 0 0
0:00:00.00 409250 N 0 0 0
0:00:00.00 409496 N 0 0 0
0:00:00.00 409747 N 0 0 0
0:00:00.00 410002 N 0 0 0
0:00:00.00 410258 N 0 0 0
0:00:00.00 410519 N 0 0 0
0:00:00.00 410782 N 0 0 0
0:00:00.00 411026 N 0 0 0
0:00:00.00 411264 N 0 0 0
0:00:00.00 411507 N 0 0 0
0:00:00.00 411752 N 0 0 0
0:00:00.00 412011 N 0 0 0
0:00:00.00 412277 N 0 0 0
0:00:00.00 412535 N 0 0 0
0:00:00.00 412787 N 0 0 0
0:00:00.00 413035 N 0 0 0
0:00:00.00 413107 N 0 0 0
0:00:00.00 413284 N 0 0 0
0:00:00.00 413525 N 0 0 0
0:00:00.00 413768 N 0 0 0
0:00:00.00 414016 N 0 0 0
0:00:00.00 414275 N 0 0 0
0:00:00.00 414535 N 0 0 0
0:00:00.00 414799 N 0 0 0
0:00:00.00 415060 N 0 0 0
0:00:00.00 415307 N 0 0 0
0:00:00.00 415548 N 0 0 0
0:00:00.00 415800 N 0 0 0
0:00:00.00 416057 N 0 0 0
0:00:00.00 416313 N 0 0 0
0:00:00.00 416570 N 0 0 0
0:00:00.00 416835 N 0 0 0
0:00:00.00 417098 N 0 0 0
0:00:00.00 417355 N 0 0 0
0:00:00.00 417605 N 0 0 0
0:00:00.00 417852 N 0 0 0
0:00:00.00 418099 N 0 0 0
0:00:00.00 418351 N 0 0 0
0:00:00.00 418619 N 0 0 0
0:00:00.00 418880 N 0 0 0
0:00:00.00 419144 N 0 0 0
0:00:00.00 419398 N 0 0 0
0:00:00.00 419643 N 0 0 0
0:00:00.00 419884 N 0 0 0
0:00:00.00 420133 N 0 0 0
0:00:00.00 420385 N 0 0 0
0:00:00.00 420635 N 0 0 0
0:00:00.00 420890 N 0 0 0
0:00:00.00 421155 N 0 0 0
0:00:00.00 421420 N 0 0 0
0:00:00.00 421672 N 0 0 0
0:00:00.00 421916 N 0 0 0
0:00:00.00 422158 N 0 0 0
0:00:00.00 422404 N 0 0 0
0:00:00.00 422654 N 0 0 0
0:00:00.00 422915 N 0 0 0
0:00:00.00 423178 N 0 0 0
0:00:00.00 423437 N 0 0 0
0:00:00.00 423689 N 0 0 0
0:00:00.00 423941 N 0 0 0
0:00:00.00 424193 N 0 0 0
0:00:00.00 424438 N 0 0 0
0:00:00.00 424674 N 0 0 0
0:00:00.00 424926 N 0 0 0
0:00:00.00 425183 N 0 0 0
0:00:00.00 425448 N 0 0 0
0:00:00.00 425705 N 0 0 0
0:00:00.00 425952 N 0 0 0
0:00:00.00 426197 N 0 0 0
0:00:00.00 426433 N 0 0 0
0:00:00.00 426681 N 0 0 0
0:00:00.00 426928 N 0 0 0
0:00:00.00 427077 N 0 0 0
0:00:00.00 427430 N 0 0 0
0:00:00.00 427691 N 0 0 0
0:00:00.00 427939 N 0 0 0
0:00:00.00 428184 N 0 0 0
0:00:00.00 428429 N 0 0 0
0:00:00.00 428668 N 0 0 0
0:00:00.00 428904 N 0 0 0
0:00:00.00 429145 N 0 0 0
0:00:00.00 429406 N 0 0 0
0:00:00.00 429658 N 0 0 0
0:00:00.00 429910 N 0 0 0
0:00:00.00 430159 N 0 0 0
0:00:00.00 430342 N 0 0 0
0:00:00.00 430418 N 0 0 0
0:00:00.00 430499 N 0 0 0
0:00:00.00 430609 N 0 0 0
0:00:00.00 430866 N 0 0 0
0:00:00.00 431111 N 0 0 0
0:00:00.00 431348 N 0 0 0
0:00:00.00 431599 N 0 0 0
0:00:00.00 431845 N 0 0 0
0:00:00.00 432101 N 0 0 0
0:00:00.00 432342 N 0 0 0
0:00:00.00 432576 N 0 0 0
0:00:00.00 432805 N 0 0 0
0:00:00.00 432900 N 0 0 0
0:00:00.00 433026 N 0 0 0
0:00:00.00 433262 N 0 0 0
0:00:00.00 433508 N 0 0 0
0:00:00.00 433642 N 0 0 0
0:00:00.00 434002 N 0 0 0
0:00:00.00 434248 N 0 0 0
0:00:00.00 434390 N 0 0 0
0:00:00.00 434714 N 0 0 0
0:00:00.00 434842 N 0 0 0
0:00:00.00 434916 N 0 0 0
0:00:00.00 434988 N 0 0 0
0:00:00.00 435190 N 0 0 0
0:00:00.00 435415 N 0 0 0
0:00:00.00 435659 N 0 0 0
0:00:00.00 435895 N 0 0 0
0:00:00.00 436145 N 0 0 0
0:00:00.00 436388 N 0 0 0
0:00:00.00 436637 N 0 0 0
0:00:00.00 436862 N 0 0 0
0:00:00.00 436946 N 0 0 0
0:00:00.00 437094 N 0 0 0
0:00:00.00 437281 N 0 0 0
0:00:00.00 437355 N 0 0 0
0:00:00.00 437427 N 0 0 0
0:00:00.00 437560 N 0 0 0
0:00:00.00 437809 N 0 0 0
0:00:00.00 437895 N 0 0 0
0:00:00.00 438046 N 0 0 0
0:00:00.00 438289 N 0 0 0
0:00:00.00 438539 N 0 0 0
0:00:00.00 438782 N 0 0 0
0:00:00.00 439013 N 0 0 0
0:00:00.00 439223 N 0 0 0
0:00:00.00 439387 N 0 0 0
0:00:00.00 439475 N 0 0 0
0:00:00.00 439655 N 0 0 0
0:00:00.00 439747 N 0 0 0
0:00:00.00 439853 N 0 0 0
0:00:00.00 439929 N 0 0 0
0:00:00.00 440176 N 0 0 0
0:00:00.00 440420 N 0 0 0
0:00:00.00 440665 N 0 0 0
0:00:00.00 440894 N 0 0 0
0:00:00.00 441124 N 0 0 0
0:00:00.00 441333 N 0 0 0
0:00:00.00 441441 N 0 0 0
0:00:00.00 441583 N 0 0 0
0:00:00.00 441814 N 0 0 0
0:00:00.00 441950 N 0 0 0
0:00:00.00 442024 N 0 0 0
0:00:00.00 442282 N 0 0 0
0:00:00.00 442521 N 0 0 0
0:00:00.00 442768 N 0 0 0
0:00:00.00 443018 N 0 0 0
0:00:00.00 443255 N 0 0 0
0:00:00.00 443482 N 0 0 0
0:00:00.00 443718 N 0 0 0
0:00:00.00 443941 N 0 0 0
0:00:00.00 444073 N 0 0 0
0:00:00.00 444172 N 0 0 0
0:00:00.00 444415 N 0 0 0
0:00:00.00 444665 N 0 0 0
0:00:00.00 444908 N 0 0 0
0:00:00.00 445147 N 0 0 0
0:00:00.00 445358 N 0 0 0
0:00:00.00 445626 N 0 0 0
0:00:00.00 445855 N 0 0 0
0:00:00.00 446085 N 0 0 0
0:00:00.00 446315 N 0 0 0
0:00:00.00 446555 N 0 0 0
0:00:00.00 446794 N 0 0 0
0:00:00.00 447044 N 0 0 0
0:00:00.00 447295 N 0 0 0
0:00:00.00 447469 N 0 0 0
0:00:00.00 447545 N 0 0 0
0:00:00.00 447759 N 0 0 0
0:00:00.00 447932 N 0 0 0
0:00:00.00 448220 N 0 0 0
0:00:00.00 448457 N 0 0 0
0:00:00.00 448695 N 0 0 0
0:00:00.00 448776 N 0 0 0
0:00:00.00 448933 N 0 0 0
0:00:00.00 449176 N 0 0 0
0:00:00.00 449415 N 0 0 0
0:00:00.00 449653 N 0 0 0
0:00:00.00 449888 N 0 0 0
0:00:00.00 450115 N 0 0 0
0:00:00.00 450340 N 0 0 0
0:00:00.00 450565 N 0 0 0
0:00:00.00 450803 N 0 0 0
0:00:00.00 451048 N 0 0 0
0:00:00.00 451292 N 0 0 0
0:00:00.00 451534 N 0 0 0
0:00:00.00 451769 N 0 0 0
0:00:00.00 452000 N 0 0 0
0:00:00.00 452225 N 0 0 0
0:00:00.00 452457 N 0 0 0
0:00:00.00 452689 N 0 0 0
0:00:00.00 452920 N 0 0 0
0:00:00.00 453163 N 0 0 0
0:00:00.00 453406 N 0 0 0
0:00:00.00 453656 N 0 0 0
0:00:00.00 453899 N 0 0 0
0:00:00.00 454135 N 0 0 0
0:00:00.00 454360 N 0 0 0
0:00:00.00 454586 N 0 0 0
0:00:00.00 454817 N 0 0 0
0:00:00.00 455056 N 0 0 0
0:00:00.00 455301 N 0 0 0
0:00:00.00 455546 N 0 0 0
0:00:00.00 455792 N 0 0 0
0:00:00.00 456026 N 0 0 0
0:00:00.00 456264 N 0 0 0
0:00:00.00 456500 N 0 0 0
0:00:00.00 456674 N 0 0 0
0:00:00.00 456952 N 0 0 0
0:00:00.00 457094 N 0 0 0
0:00:00.00 457186 N 0 0 0
0:00:00.00 457429 N 0 0 0
0:00:00.00 457502 N 0 0 0
0:00:00.00 457670 N 0 0 0
0:00:00.00 457915 N 0 0 0
0:00:00.00 458161 N 0 0 0
0:00:00.00 458393 N 0 0 0
0:00:00.00 458617 N 0 0 0
0:00:00.00 458842 N 0 0 0
0:00:00.00 459077 N 0 0 0
0:00:00.00 459308 N 0 0 0
0:00:00.00 459544 N 0 0 0
0:00:00.00 459781 N 0 0 0
0:00:00.00 460022 N 0 0 0
0:00:00.00 460256 N 0 0 0
0:00:00.00 460492 N 0 0 0
0:00:00.00 460724 N 0 0 0
0:00:00.00 460948 N 0 0 0
0:00:00.00 461167 N 0 0 0
0:00:00.00 461389 N 0 0 0
0:00:00.00 461628 N 0 0 0
0:00:00.00 461873 N 0 0 0
0:00:00.00 462110 N 0 0 0
0:00:00.00 462344 N 0 0 0
0:00:00.00 462578 N 0 0 0
0:00:00.00 462809 N 0 0 0
0:00:00.00 463030 N 0 0 0
0:00:00.00 463255 N 0 0 0
0:00:00.00 463387 N 0 0 0
0:00:00.00 463487 N 0 0 0
0:00:00.00 463639 N 0 0 0
0:00:00.00 463952 N 0 0 0
0:00:00.00 464195 N 0 0 0
0:00:00.00 464441 N 0 0 0
0:00:00.00 464675 N 0 0 0
0:00:00.00 464908 N 0 0 0
0:00:00.00 465131 N 0 0 0
0:00:00.00 465350 N 0 0 0
0:00:00.00 465575 N 0 0 0
0:00:00.00 465808 N 0 0 0
0:00:00.00 466047 N 0 0 0
0:00:00.00 466286 N 0 0 0
0:00:00.00 466529 N 0 0 0
0:00:00.00 466763 N 0 0 0
0:00:00.00 466999 N 0 0 0
0:00:00.00 467233 N 0 0 0
0:00:00.00 467456 N 0 0 0
0:00:00.00 467680 N 0 0 0
0:00:00.00 467906 N 0 0 0
0:00:00.00 468140 N 0 0 0
0:00:00.00 468380 N 0 0 0
0:00:00.00 468623 N 0 0 0
0:00:00.00 468866 N 0 0 0
0:00:00.00 469102 N 0 0 0
0:00:00.00 469328 N 0 0 0
0:00:00.00 469555 N 0 0 0
0:00:00.00 469782 N 0 0 0
0:00:00.00 470014 N 0 0 0
0:00:00.00 470248 N 0 0 0
0:00:00.00 470470 N 0 0 0
0:00:00.00 470722 N 0 0 0
0:00:00.00 470965 N 0 0 0
0:00:00.00 471206 N 0 0 0
0:00:00.00 471438 N 0 0 0
0:00:00.00 471663 N 0 0 0
0:00:00.00 471760 N 0 0 0
0:00:00.00 472095 N 0 0 0
0:00:00.00 472352 N 0 0 0
0:00:00.00 472579 N 0 0 0
0:00:00.00 472669 N 0 0 0
0:00:00.00 472844 N 0 0 0
0:00:00.00 473081 N 0 0 0
0:00:00.00 473323 N 0 0 0
0:00:00.00 473557 N 0 0 0
0:00:00.00 473782 N 0 0 0
0:00:00.00 473949 N 0 0 0
0:00:00.00 474021 N 0 0 0
0:00:00.00 474241 N 0 0 0
0:00:00.00 474478 N 0 0 0
0:00:00.00 474721 N 0 0 0
0:00:00.00 474959 N 0 0 0
0:00:00.00 475207 N 0 0 0
0:00:00.00 475448 N 0 0 0
0:00:00.00 475688 N 0 0 0
0:00:00.00 475837 N 0 0 0
0:00:00.00 475909 N 0 0 0
0:00:00.00 476113 N 0 0 0
0:00:00.00 476363 N 0 0 0
0:00:00.00 476595 N 0 0 0
0:00:00.00 476669 N 0 0 0
0:00:00.00 476784 N 0 0 0
0:00:00.00 476858 N 0 0 0
0:00:00.00 476932 N 0 0 0
0:00:00.00 477077 N 0 0 0
0:00:00.00 477317 N 0 0 0
0:00:00.00 477398 N 0 0 0
0:00:00.00 477473 N 0 0 0
0:00:00.00 477553 N 0 0 0
0:00:00.00 477790 N 0 0 0
0:00:00.00 477895 N 0 0 0
0:00:00.00 477995 N 0 0 0
0:00:00.00 478253 N 0 0 0
0:00:00.00 478444 N 0 0 0
0:00:00.00 478600 N 0 0 0
0:00:00.00 478708 N 0 0 0
0:00:00.00 478784 N 0 0 0
0:00:00.00 478949 N 0 0 0
0:00:00.00 479189 N 0 0 0
0:00:00.00 479261 N 0 0 0
0:00:00.00 479439 N 0 0 0
0:00:00.00 479687 N 0 0 0
0:00:00.00 479920 N 0 0 0
0:00:00.00 480148 N 0 0 0
0:00:00.00 480380 N 0 0 0
0:00:00.00 480618 N 0 0 0
0:00:00.00 480850 N 0 0 0
0:00:00.00 481093 N 0 0 0
0:00:00.00 481334 N 0 0 0
0:00:00.00 481581 N 0 0 0
0:00:00.00 481822 N 0 0 0
0:00:00.00 482067 N 0 0 0
0:00:00.00 482303 N 0 0 0
0:00:00.00 482531 N 0 0 0
0:00:00.00 482764 N 0 0 0
0:00:00.00 482994 N 0 0 0
0:00:00.00 483239 N 0 0 0
0:00:00.00 483487 N 0 0 0
0:00:00.00 483739 N 0 0 0
0:00:00.00 483980 N 0 0 0
0:00:00.00 484218 N 0 0 0
0:00:00.00 484452 N 0 0 0
0:00:00.00 484686 N 0 0 0
0:00:00.00 484918 N 0 0 0
0:00:00.00 485150 N 0 0 0
0:00:00.00 485343 N 0 0 0
0:00:00.00 485627 N 0 0 0
0:00:00.00 485874 N 0 0 0
0:00:00.00 486124 N 0 0 0
0:00:00.00 486365 N 0 0 0
0:00:00.00 486590 N 0 0 0
0:00:00.00 486817 N 0 0 0
0:00:00.00 487048 N 0 0 0
0:00:00.00 487274 N 0 0 0
0:00:00.00 487512 N 0 0 0
0:00:00.00 487757 N 0 0 0
0:00:00.00 488000 N 0 0 0
0:00:00.00 488144 N 0 0 0
0:00:00.00 488471 N 0 0 0
0:00:00.00 488714 N 0 0 0
0:00:00.00 488941 N 0 0 0
0:00:00.00 489168 N 0 0 0
0:00:00.00 489389 N 0 0 0
0:00:00.00 489623 N 0 0 0
0:00:00.00 489861 N 0 0 0
0:00:00.00 490106 N 0 0 0
0:00:00.00 490257 N 0 0 0
0:00:00.00 490594 N 0 0 0
0:00:00.00 490829 N 0 0 0
0:00:00.00 491053 N 0 0 0
0:00:00.00 491285 N 0 0 0
0:00:00.00 491515 N 0 0 0
0:00:00.00 491744 N 0 0 0
0:00:00.00 491980 N 0 0 0
0:00:00.00 492226 N 0 0 0
0:00:00.00 492462 N 0 0 0
0:00:00.00 492703 N 0 0 0
0:00:00.00 492939 N 0 0 0
0:00:00.00 493169 N 0 0 0
0:00:00.00 493394 N 0 0 0
0:00:00.00 493618 N 0 0 0
0:00:00.00 493852 N 0 0 0
0:00:00.00 494095 N 0 0 0
0:00:00.00 494338 N 0 0 0
0:00:00.00 494577 N 0 0 0
0:00:00.00 494818 N 0 0 0
0:00:00.00 495054 N 0 0 0
0:00:00.00 495279 N 0 0 0
0:00:00.00 495511 N 0 0 0
0:00:00.00 495745 N 0 0 0
0:00:00.00 495974 N 0 0 0
0:00:00.00 496210 N 0 0 0
0:00:00.00 496453 N 0 0 0
0:00:00.00 496703 N 0 0 0
0:00:00.00 496948 N 0 0 0
0:00:00.00 497187 N 0 0 0
0:00:00.00 497414 N 0 0 0
0:00:00.00 497639 N 0 0 0
0:00:00.00 497866 N 0 0 0
0:00:00.00 498101 N 0 0 0
0:00:00.00 498341 N 0 0 0
0:00:00.00 498580 N 0 0 0
0:00:00.00 498823 N 0 0 0
0:00:00.00 499063 N 0 0 0
0:00:00.00 499306 N 0 0 0
0:00:00.00 499543 N 0 0 0
0:00:00.00 499772 N 0 0 0
0:00:00.00 499995 N 0 0 0
0:00:00.00 500222 N 0 0 0
0:00:00.00 500459 N 0 0 0
0:00:00.00 500699 N 0 0 0
0:00:00.00 500945 N 0 0 0
0:00:00.00 501188 N 0 0 0
0:00:00.00 501426 N 0 0 0
0:00:00.00 501655 N 0 0 0
0:00:00.00 501881 N 0 0 0
0:00:00.00 502115 N 0 0 0
0:00:00.00 502346 N 0 0 0
0:00:00.00 502580 N 0 0 0
0:00:00.00 502816 N 0 0 0
0:00:00.00 503060 N 0 0 0
0:00:00.00 503300 N 0 0 0
0:00:00.00 503539 N 0 0 0
0:00:00.00 503779 N 0 0 0
0:00:00.00 504005 N 0 0 0
0:00:00.00 504232 N 0 0 0
0:00:00.00 504455 N 0 0 0
0:00:00.00 504689 N 0 0 0
0:00:00.00 504934 N 0 0 0
0:00:00.00 505177 N 0 0 0
0:00:00.00 505413 N 0 0 0
0:00:00.00 505651 N 0 0 0
0:00:00.00 505888 N 0 0 0
0:00:00.00 506113 N 0 0 0
0:00:00.00 506342 N 0 0 0
0:00:00.00 506574 N 0 0 0
0:00:00.00 506803 N 0 0 0
0:00:00.00 507033 N 0 0 0
0:00:00.00 507276 N 0 0 0
0:00:00.00 507532 N 0 0 0
0:00:00.00 507762 N 0 0 0
0:00:00.00 507998 N 0 0 0
0:00:00.00 508223 N 0 0 0
0:00:00.00 508450 N 0 0 0
0:00:00.00 508673 N 0 0 0
0:00:00.00 508903 N 0 0 0
0:00:00.00 509143 N 0 0 0
0:00:00.00 509380 N 0 0 0
0:00:00.00 509618 N 0 0 0
0:00:00.00 509857 N 0 0 0
0:00:00.00 510098 N 0 0 0
0:00:00.00 510331 N 0 0 0
0:00:00.00 510557 N 0 0 0
0:00:00.00 510777 N 0 0 0
0:00:00.00 511006 N 0 0 0
0:00:00.00 511238 N 0 0 0
0:00:00.00 511475 N 0 0 0
0:00:00.00 511720 N 0 0 0
0:00:00.00 511963 N 0 0 0
0:00:00.00 512197 N 0 0 0
0:00:00.00 512424 N 0 0 0
0:00:00.00 512653 N 0 0 0
0:00:00.00 512883 N 0 0 0
0:00:00.00 513108 N 0 0 0
0:00:00.00 513340 N 0 0 0
0:00:00.00 513572 N 0 0 0
0:00:00.00 513814 N 0 0 0
0:00:00.00 514051 N 0 0 0
0:00:00.00 514296 N 0 0 0
0:00:00.00 514534 N 0 0 0
0:00:00.00 514757 N 0 0 0
0:00:00.00 514984 N 0 0 0
0:00:00.00 515205 N 0 0 0
0:00:00.00 515437 N 0 0 0
0:00:00.00 515677 N 0 0 0
0:00:00.00 515918 N 0 0 0
0:00:00.00 516150 N 0 0 0
0:00:00.00 516386 N 0 0 0
0:00:00.00 516623 N 0 0 0
0:00:00.00 516848 N 0 0 0
0:00:00.00 517079 N 0 0 0
0:00:00.00 517309 N 0 0 0
0:00:00.00 517536 N 0 0 0
0:00:00.00 517768 N 0 0 0
0:00:00.00 518011 N 0 0 0
0:00:00.00 518263 N 0 0 0
0:00:00.00 518506 N 0 0 0
0:00:00.00 518746 N 0 0 0
0:00:00.00 518972 N 0 0 0
0:00:00.00 519199 N 0 0 0
0:00:00.00 519428 N 0 0 0
0:00:00.00 519660 N 0 0 0
0:00:00.00 519899 N 0 0 0
0:00:00.00 520139 N 0 0 0
0:00:00.00 520380 N 0 0 0
0:00:00.00 520618 N 0 0 0
0:00:00.00 520861 N 0 0 0
0:00:00.00 521098 N 0 0 0
0:00:00.00 521325 N 0 0 0
0:00:00.00 521545 N 0 0 0
0:00:00.00 521773 N 0 0 0
0:00:00.00 522011 N 0 0 0
0:00:00.00 522248 N 0 0 0
0:00:00.00 522493 N 0 0 0
0:00:00.00 522742 N 0 0 0
0:00:00.00 522981 N 0 0 0
0:00:00.00 523211 N 0 0 0
0:00:00.00 523442 N 0 0 0
0:00:00.00 523679 N 0 0 0
0:00:00.00 523908 N 0 0 0
0:00:00.00 524142 N 0 0 0
0:00:00.00 524387 N 0 0 0
0:00:00.00 524635 N 0 0 0
0:00:00.00 524876 N 0 0 0
0:00:00.00 525125 N 0 0 0
0:00:00.00 525368 N 0 0 0
0:00:00.00 525598 N 0 0 0
0:00:00.00 525827 N 0 0 0
0:00:00.00 525967 N 0 0 0
0:00:00.00 526306 N 0 0 0
0:00:00.00 526554 N 0 0 0
0:00:00.00 526802 N 0 0 0
0:00:00.00 527051 N 0 0 0
0:00:00.00 527294 N 0 0 0
0:00:00.00 527531 N 0 0 0
0:00:00.00 527769 N 0 0 0
0:00:00.00 528010 N 0 0 0
0:00:00.00 528244 N 0 0 0
0:00:00.00 528482 N 0 0 0
0:00:00.00 528732 N 0 0 0
0:00:00.00 528989 N 0 0 0
0:00:00.00 529240 N 0 0 0
0:00:00.00 529486 N 0 0 0
0:00:00.00 529724 N 0 0 0
0:00:00.00 529960 N 0 0 0
0:00:00.00 530194 N 0 0 0
0:00:00.00 530435 N 0 0 0
0:00:00.00 530683 N 0 0 0
0:00:00.00 530930 N 0 0 0
0:00:00.00 531182 N 0 0 0
0:00:00.00 531434 N 0 0 0
0:00:00.00 531684 N 0 0 0
0:00:00.00 531923 N 0 0 0
0:00:00.00 532163 N 0 0 0
0:00:00.00 532395 N 0 0 0
0:00:00.00 532634 N 0 0 0
0:00:00.00 532876 N 0 0 0
0:00:00.00 533129 N 0 0 0
0:00:00.00 533389 N 0 0 0
0:00:00.00 533641 N 0 0 0
0:00:00.00 533882 N 0 0 0
0:00:00.00 534119 N 0 0 0
0:00:00.00 534362 N 0 0 0
0:00:00.00 534600 N 0 0 0
0:00:00.00 534841 N 0 0 0
0:00:00.00 535082 N 0 0 0
0:00:00.00 535334 N 0 0 0
0:00:00.00 535586 N 0 0 0
0:00:00.00 535837 N 0 0 0
0:00:00.00 536087 N 0 0 0
0:00:00.00 536324 N 0 0 0
0:00:00.00 536557 N 0 0 0
0:00:00.00 536792 N 0 0 0
0:00:00.00 537043 N 0 0 0
0:00:00.00 537289 N 0 0 0
0:00:00.00 537541 N 0 0 0
0:00:00.00 537791 N 0 0 0
0:00:00.00 538043 N 0 0 0
0:00:00.00 538281 N 0 0 0
0:00:00.00 538520 N 0 0 0
0:00:00.00 538763 N 0 0 0
0:00:00.00 538997 N 0 0 0
0:00:00.00 539231 N 0 0 0
0:00:00.00 539482 N 0 0 0
0:00:00.00 539741 N 0 0 0
0:00:00.00 539989 N 0 0 0
0:00:00.00 540236 N 0 0 0
0:00:00.00 540475 N 0 0 0
0:00:00.00 540711 N 0 0 0
0:00:00.00 540940 N 0 0 0
0:00:00.00 541177 N 0 0 0
0:00:00.00 541424 N 0 0 0
0:00:00.00 541667 N 0 0 0
0:00:00.00 541913 N 0 0 0
0:00:00.00 542164 N 0 0 0
0:00:00.00 542417 N 0 0 0
0:00:00.00 542655 N 0 0 0
0:00:00.00 542894 N 0 0 0
0:00:00.00 543127 N 0 0 0
0:00:00.00 543357 N 0 0 0
0:00:00.00 543595 N 0 0 0
0:00:00.00 543847 N 0 0 0
0:00:00.00 544104 N 0 0 0
0:00:00.00 544351 N 0 0 0
0:00:00.00 544595 N 0 0 0
0:00:00.00 544835 N 0 0 0
0:00:00.00 545074 N 0 0 0
0:00:00.00 545312 N 0 0 0
0:00:00.00 545551 N 0 0 0
0:00:00.00 545789 N 0 0 0
0:00:00.00 546035 N 0 0 0
0:00:00.00 546287 N 0 0 0
0:00:00.00 546543 N 0 0 0
0:00:00.00 546793 N 0 0 0
0:00:00.00 547027 N 0 0 0
0:00:00.00 547263 N 0 0 0
0:00:00.00 547497 N 0 0 0
0:00:00.00 547736 N 0 0 0
0:00:00.00 547979 N 0 0 0
0:00:00.00 548231 N 0 0 0
0:00:00.00 548478 N 0 0 0
0:00:00.00 548726 N 0 0 0
0:00:00.00 548968 N 0 0 0
0:00:00.00 549211 N 0 0 0
0:00:00.00 549448 N 0 0 0
0:00:00.00 549680 N 0 0 0
0:00:00.00 549918 N 0 0 0
0:00:00.00 550163 N 0 0 0
0:00:00.00 550415 N 0 0 0
0:00:00.00 550674 N 0 0 0
0:00:00.00 550924 N 0 0 0
0:00:00.00 551164 N 0 0 0
0:00:00.00 551403 N 0 0 0
0:00:00.00 551639 N 0 0 0
0:00:00.00 551878 N 0 0 0
0:00:00.00 552121 N 0 0 0
0:00:00.00 552368 N 0 0 0
0:00:00.00 552616 N 0 0 0
0:00:00.00 552866 N 0 0 0
0:00:00.00 553122 N 0 0 0
0:00:00.00 553370 N 0 0 0
0:00:00.00 553610 N 0 0 0
0:00:00.00 553838 N 0 0 0
0:00:00.00 554078 N 0 0 0
0:00:00.00 554315 N 0 0 0
0:00:00.00 554566 N 0 0 0
0:00:00.00 554825 N 0 0 0
0:00:00.00 555079 N 0 0 0
0:00:00.00 555322 N 0 0 0
0:00:00.00 555563 N 0 0 0
0:00:00.00 555808 N 0 0 0
0:00:00.00 556045 N 0 0 0
0:00:00.00 556283 N 0 0 0
0:00:00.00 556520 N 0 0 0
0:00:00.00 556763 N 0 0 0
0:00:00.00 557014 N 0 0 0
0:00:00.00 557271 N 0 0 0
0:00:00.00 557521 N 0 0 0
0:00:00.00 557759 N 0 0 0
0:00:00.00 557993 N 0 0 0
0:00:00.00 558225 N 0 0 0
0:00:00.00 558470 N 0 0 0
0:00:00.00 558711 N 0 0 0
0:00:00.00 558959 N 0 0 0
0:00:00.00 559208 N 0 0 0
0:00:00.00 559458 N 0 0 0
0:00:00.00 559701 N 0 0 0
0:00:00.00 559944 N 0 0 0
0:00:00.00 560183 N 0 0 0
0:00:00.00 560414 N 0 0 0
0:00:00.00 560650 N 0 0 0
0:00:00.00 560887 N 0 0 0
0:00:00.00 561141 N 0 0 0
0:00:00.00 561395 N 0 0 0
0:00:00.00 561647 N 0 0 0
0:00:00.00 561888 N 0 0 0
0:00:00.00 562126 N 0 0 0
0:00:00.00 562361 N 0 0 0
0:00:00.00 562597 N 0 0 0
0:00:00.00 562838 N 0 0 0
0:00:00.00 563078 N 0 0 0
0:00:00.00 563326 N 0 0 0
0:00:00.00 563573 N 0 0 0
0:00:00.00 563823 N 0 0 0
0:00:00.00 564073 N 0 0 0
0:00:00.00 564314 N 0 0 0
0:00:00.00 564541 N 0 0 0
0:00:00.00 564772 N 0 0 0
0:00:00.00 565011 N 0 0 0
0:00:00.00 565259 N 0 0 0
0:00:00.00 565511 N 0 0 0
0:00:00.00 565763 N 0 0 0
0:00:00.00 566019 N 0 0 0
0:00:00.00 566262 N 0 0 0
0:00:00.00 566509 N 0 0 0
0:00:00.00 566752 N 0 0 0
0:00:00.00 566991 N 0 0 0
0:00:00.00 567227 N 0 0 0
0:00:00.00 567475 N 0 0 0
0:00:00.00 567729 N 0 0 0
0:00:00.00 567988 N 0 0 0
0:00:00.00 568246 N 0 0 0
0:00:00.00 568492 N 0 0 0
0:00:00.00 568649 N 0 0 0
0:00:00.00 568966 N 0 0 0
0:00:00.00 569216 N 0 0 0
0:00:00.00 569464 N 0 0 0
0:00:00.00 569716 N 0 0 0
0:00:00.00 569970 N 0 0 0
0:00:00.00 570229 N 0 0 0
0:00:00.00 570479 N 0 0 0
0:00:00.00 570730 N 0 0 0
0:00:00.00 570976 N 0 0 0
0:00:00.00 571214 N 0 0 0
0:00:00.00 571450 N 0 0 0
0:00:00.00 571691 N 0 0 0
0:00:00.00 571955 N 0 0 0
0:00:00.00 572207 N 0 0 0
0:00:00.00 572461 N 0 0 0
0:00:00.00 572710 N 0 0 0
0:00:00.00 572953 N 0 0 0
0:00:00.00 573187 N 0 0 0
0:00:00.00 573428 N 0 0 0
0:00:00.00 573676 N 0 0 0
0:00:00.00 573921 N 0 0 0
0:00:00.00 574169 N 0 0 0
0:00:00.00 574430 N 0 0 0
0:00:00.00 574695 N 0 0 0
0:00:00.00 574942 N 0 0 0
0:00:00.00 575181 N 0 0 0
0:00:00.00 575422 N 0 0 0
0:00:00.00 575663 N 0 0 0
0:00:00.00 575906 N 0 0 0
0:00:00.00 576164 N 0 0 0
0:00:00.00 576423 N 0 0 0
0:00:00.00 576680 N 0 0 0
0:00:00.00 576931 N 0 0 0
0:00:00.00 577184 N 0 0 0
0:00:00.00 577431 N 0 0 0
0:00:00.00 577672 N 0 0 0
0:00:00.00 577908 N 0 0 0
0:00:00.00 578153 N 0 0 0
0:00:00.00 578407 N 0 0 0
0:00:00.00 578668 N 0 0 0
0:00:00.00 578927 N 0 0 0
0:00:00.00 579177 N 0 0 0
0:00:00.00 579425 N 0 0 0
0:00:00.00 579663 N 0 0 0
0:00:00.00 579802 N 0 0 0
0:00:00.00 580151 N 0 0 0
0:00:00.00 580405 N 0 0 0
0:00:00.00 580657 N 0 0 0
0:00:00.00 580912 N 0 0 0
0:00:00.00 581168 N 0 0 0
0:00:00.00 581422 N 0 0 0
0:00:00.00 581672 N 0 0 0
0:00:00.00 581909 N 0 0 0
0:00:00.00 582151 N 0 0 0
0:00:00.00 582392 N 0 0 0
0:00:00.00 582647 N 0 0 0
0:00:00.00 582908 N 0 0 0
0:00:00.00 583142 N 0 0 0
0:00:00.00 583412 N 0 0 0
0:00:00.00 583661 N 0 0 0
0:00:00.00 583900 N 0 0 0
0:00:00.00 584141 N 0 0 0
0:00:00.00 584384 N 0 0 0
0:00:00.00 584627 N 0 0 0
0:00:00.00 584876 N 0 0 0
0:00:00.00 585130 N 0 0 0
0:00:00.00 585394 N 0 0 0
0:00:00.00 585643 N 0 0 0
0:00:00.00 585884 N 0 0 0
0:00:00.00 586120 N 0 0 0
0:00:00.00 586359 N 0 0 0
0:00:00.00 586595 N 0 0 0
0:00:00.00 586843 N 0 0 0
0:00:00.00 587102 N 0 0 0
0:00:00.00 587356 N 0 0 0
0:00:00.00 587605 N 0 0 0
0:00:00.00 587855 N 0 0 0
0:00:00.00 588105 N 0 0 0
0:00:00.00 588341 N 0 0 0
0:00:00.00 588578 N 0 0 0
0:00:00.00 588818 N 0 0 0
0:00:00.00 589070 N 0 0 0
0:00:00.00 589318 N 0 0 0
0:00:00.00 589579 N 0 0 0
0:00:00.00 589837 N 0 0 0
0:00:00.00 590083 N 0 0 0
0:00:00.00 590321 N 0 0 0
0:00:00.00 590562 N 0 0 0
0:00:00.00 590810 N 0 0 0
0:00:00.00 591055 N 0 0 0
0:00:00.00 591304 N 0 0 0
0:00:00.00 591563 N 0 0 0
0:00:00.00 591817 N 0 0 0
0:00:00.00 592067 N 0 0 0
0:00:00.00 592317 N 0 0 0
0:00:00.00 592558 N 0 0 0
0:00:00.00 592792 N 0 0 0
0:00:00.00 593030 N 0 0 0
0:00:00.00 593278 N 0 0 0
0:00:00.00 593534 N 0 0 0
0:00:00.00 593786 N 0 0 0
0:00:00.00 594032 N 0 0 0
0:00:00.00 594218 N 0 0 0
0:00:00.00 594293 N 0 0 0
0:00:00.00 594412 N 0 0 0
0:00:00.00 594484 N 0 0 0
0:00:00.00 594560 N 0 0 0
0:00:00.00 594644 N 0 0 0
0:00:00.00 594760 N 0 0 0
0:00:00.00 595003 N 0 0 0
0:00:00.00 595120 N 0 0 0
0:00:00.00 595251 N 0 0 0
0:00:00.00 595483 N 0 0 0
0:00:00.00 595732 N 0 0 0
0:00:00.00 595991 N 0 0 0
0:00:00.00 596248 N 0 0 0
0:00:00.00 596497 N 0 0 0
0:00:00.00 596731 N 0 0 0
0:00:00.00 596965 N 0 0 0
0:00:00.00 597206 N 0 0 0
0:00:00.00 597447 N 0 0 0
0:00:00.00 597695 N 0 0 0
0:00:00.00 597947 N 0 0 0
0:00:00.00 598205 N 0 0 0
0:00:00.00 598451 N 0 0 0
0:00:00.00 598702 N 0 0 0
0:00:00.00 598946 N 0 0 0
0:00:00.00 599186 N 0 0 0
0:00:00.00 599416 N 0 0 0
0:00:00.00 599656 N 0 0 0
0:00:00.00 599902 N 0 0 0
0:00:00.00 600160 N 0 0 0
0:00:00.00 600413 N 0 0 0
0:00:00.00 600664 N 0 0 0
0:00:00.00 600910 N 0 0 0
0:00:00.00 601142 N 0 0 0
0:00:00.00 601384 N 0 0 0
0:00:00.00 601628 N 0 0 0
0:00:00.00 601870 N 0 0 0
0:00:00.00 602113 N 0 0 0
0:00:00.00 602365 N 0 0 0
0:00:00.00 602593 N 0 0 0
0:00:00.00 602869 N 0 0 0
0:00:00.00 603115 N 0 0 0
0:00:00.00 603351 N 0 0 0
0:00:00.00 603585 N 0 0 0
0:00:00.00 603817 N 0 0 0
0:00:00.00 604066 N 0 0 0
0:00:00.00 604319 N 0 0 0
0:00:00.00 604573 N 0 0 0
0:00:00.00 604820 N 0 0 0
0:00:00.00 605070 N 0 0 0
0:00:00.00 605309 N 0 0 0
0:00:00.00 605549 N 0 0 0
0:00:00.00 605792 N 0 0 0
0:00:00.00 606026 N 0 0 0
0:00:00.00 606267 N 0 0 0
0:00:00.00 606515 N 0 0 0
0:00:00.00 606773 N 0 0 0
0:00:00.00 607023 N 0 0 0
0:00:00.00 607279 N 0 0 0
0:00:00.00 607505 N 0 0 0
0:00:00.00 607739 N 0 0 0
0:00:00.00 607968 N 0 0 0
0:00:00.00 608207 N 0 0 0
0:00:00.00 608450 N 0 0 0
0:00:00.00 608647 N 0 0 0
0:00:00.00 608722 N 0 0 0
0:00:00.00 608859 N 0 0 0
0:00:00.00 609188 N 0 0 0
0:00:00.00 609440 N 0 0 0
0:00:00.00 609566 N 0 0 0
0:00:00.00 609640 N 0 0 0
0:00:00.00 609712 N 0 0 0
0:00:00.00 609917 N 0 0 0
0:00:00.00 610144 N 0 0 0
0:00:00.00 610378 N 0 0 0
0:00:00.00 610618 N 0 0 0
0:00:00.00 610792 N 0 0 0
0:00:00.00 610866 N 0 0 0
0:00:00.00 611120 N 0 0 0
0:00:00.00 611361 N 0 0 0
0:00:00.00 611604 N 0 0 0
0:00:00.00 611834 N 0 0 0
0:00:00.00 612068 N 0 0 0
0:00:00.00 612306 N 0 0 0
0:00:00.00 612542 N 0 0 0
0:00:00.00 612774 N 0 0 0
0:00:00.00 613017 N 0 0 0
0:00:00.00 613271 N 0 0 0
0:00:00.00 613514 N 0 0 0
0:00:00.00 613759 N 0 0 0
0:00:00.00 613994 N 0 0 0
0:00:00.00 614227 N 0 0 0
0:00:00.00 614455 N 0 0 0
0:00:00.00 614693 N 0 0 0
0:00:00.00 614941 N 0 0 0
0:00:00.00 615186 N 0 0 0
0:00:00.00 615431 N 0 0 0
0:00:00.00 615674 N 0 0 0
0:00:00.00 615919 N 0 0 0
0:00:00.00 616149 N 0 0 0
0:00:00.00 616381 N 0 0 0
0:00:00.00 616613 N 0 0 0
0:00:00.00 616846 N 0 0 0
0:00:00.00 617080 N 0 0 0
0:00:00.00 617321 N 0 0 0
0:00:00.00 617524 N 0 0 0
0:00:00.00 617821 N 0 0 0
0:00:00.00 618062 N 0 0 0
0:00:00.00 618291 N 0 0 0
0:00:00.00 618521 N 0 0 0
0:00:00.00 618644 N 0 0 0
0:00:00.00 618743 N 0 0 0
0:00:00.00 618979 N 0 0 0
0:00:00.00 619139 N 0 0 0
0:00:00.00 619465 N 0 0 0
0:00:00.00 619713 N 0 0 0
0:00:00.00 619958 N 0 0 0
0:00:00.00 620210 N 0 0 0
0:00:00.00 620451 N 0 0 0
0:00:00.00 620685 N 0 0 0
0:00:00.00 620917 N 0 0 0
0:00:00.00 621155 N 0 0 0
0:00:00.00 621396 N 0 0 0
0:00:00.00 621650 N 0 0 0
0:00:00.00 621913 N 0 0 0
0:00:00.00 622161 N 0 0 0
0:00:00.00 622406 N 0 0 0
0:00:00.00 622647 N 0 0 0
0:00:00.00 622892 N 0 0 0
0:00:00.00 623128 N 0 0 0
0:00:00.00 623369 N 0 0 0
0:00:00.00 623615 N 0 0 0
0:00:00.00 623871 N 0 0 0
0:00:00.00 624121 N 0 0 0
0:00:00.00 624380 N 0 0 0
0:00:00.00 624636 N 0 0 0
0:00:00.00 624872 N 0 0 0
0:00:00.00 625108 N 0 0 0
0:00:00.00 625349 N 0 0 0
0:00:00.00 625599 N 0 0 0
0:00:00.00 625849 N 0 0 0
0:00:00.00 626105 N 0 0 0
0:00:00.00 626360 N 0 0 0
0:00:00.00 626612 N 0 0 0
0:00:00.00 626855 N 0 0 0
0:00:00.00 627100 N 0 0 0
0:00:00.00 627343 N 0 0 0
0:00:00.00 627583 N 0 0 0
0:00:00.00 627826 N 0 0 0
0:00:00.00 628083 N 0 0 0
0:00:00.00 628349 N 0 0 0
0:00:00.00 628605 N 0 0 0
0:00:00.00 628855 N 0 0 0
0:00:00.00 629098 N 0 0 0
0:00:00.00 629341 N 0 0 0
0:00:00.00 629582 N 0 0 0
0:00:00.00 629825 N 0 0 0
0:00:00.00 630076 N 0 0 0
0:00:00.00 630333 N 0 0 0
0:00:00.00 630581 N 0 0 0
0:00:00.00 630841 N 0 0 0
0:00:00.00 631098 N 0 0 0
0:00:00.00 631341 N 0 0 0
0:00:00.00 631573 N 0 0 0
0:00:00.00 631814 N 0 0 0
0:00:00.00 632061 N 0 0 0
0:00:00.00 632318 N 0 0 0
0:00:00.00 632578 N 0 0 0
0:00:00.00 632840 N 0 0 0
0:00:00.00 633091 N 0 0 0
0:00:00.00 633335 N 0 0 0
0:00:00.00 633589 N 0 0 0
0:00:00.00 633832 N 0 0 0
0:00:00.00 634075 N 0 0 0
0:00:00.00 634322 N 0 0 0
0:00:00.00 634574 N 0 0 0
0:00:00.00 634833 N 0 0 0
0:00:00.00 635092 N 0 0 0
0:00:00.00 635355 N 0 0 0
0:00:00.00 635598 N 0 0 0
0:00:00.00 635839 N 0 0 0
0:00:00.00 636080 N 0 0 0
0:00:00.00 636336 N 0 0 0
0:00:00.00 636588 N 0 0 0
0:00:00.00 636847 N 0 0 0
0:00:00.00 637108 N 0 0 0
0:00:00.00 637367 N 0 0 0
0:00:00.00 637612 N 0 0 0
0:00:00.00 637861 N 0 0 0
0:00:00.00 638109 N 0 0 0
0:00:00.00 638352 N 0 0 0
0:00:00.00 638593 N 0 0 0
0:00:00.00 638854 N 0 0 0
0:00:00.00 639122 N 0 0 0
0:00:00.00 639380 N 0 0 0
0:00:00.00 639626 N 0 0 0
0:00:00.00 639875 N 0 0 0
0:00:00.00 640118 N 0 0 0
0:00:00.00 640363 N 0 0 0
0:00:00.00 640609 N 0 0 0
0:00:00.00 640858 N 0 0 0
0:00:00.00 641113 N 0 0 0
0:00:00.00 641372 N 0 0 0
0:00:00.00 641637 N 0 0 0
0:00:00.00 641891 N 0 0 0
0:00:00.00 642137 N 0 0 0
0:00:00.00 642377 N 0 0 0
0:00:00.00 642620 N 0 0 0
0:00:00.00 642865 N 0 0 0
0:00:00.00 643126 N 0 0 0
0:00:00.00 643394 N 0 0 0
0:00:00.00 643648 N 0 0 0
0:00:00.00 643901 N 0 0 0
0:00:00.00 644153 N 0 0 0
0:00:00.00 644405 N 0 0 0
0:00:00.00 644650 N 0 0 0
0:00:00.00 644895 N 0 0 0
0:00:00.00 645145 N 0 0 0
0:00:00.00 645410 N 0 0 0
0:00:00.00 645671 N 0 0 0
0:00:00.00 645937 N 0 0 0
0:00:00.00 646195 N 0 0 0
0:00:00.00 646447 N 0 0 0
0:00:00.00 646688 N 0 0 0
0:00:00.00 646938 N 0 0 0
0:00:00.00 647194 N 0 0 0
0:00:00.00 647455 N 0 0 0
0:00:00.00 647710 N 0 0 0
0:00:00.00 647973 N 0 0 0
0:00:00.00 648227 N 0 0 0
0:00:00.00 648484 N 0 0 0
0:00:00.00 648734 N 0 0 0
0:00:00.00 648979 N 0 0 0
0:00:00.00 649222 N 0 0 0
0:00:00.00 649476 N 0 0 0
0:00:00.00 649744 N 0 0 0
