0:00:00.00 9 N 0 0 0
0:00:00.00 85 N 0 0 0
0:00:00.00 158 N 0 0 0
0:00:00.00 230 N 0 0 0
0:00:00.00 313 N 0 0 0
0:00:00.00 385 N 0 0 0
0:00:00.00 724 N 0 0 0
0:00:00.00 1085 N 0 0 0
0:00:00.00 1447 N 0 0 0
0:00:00.00 1829 N 0 0 0
0:00:00.00 2198 N 0 0 0
0:00:00.00 2570 N 0 0 0
0:00:00.00 2918 N 0 0 0
0:00:00.00 3233 N 0 0 0
0:00:00.00 3571 N 0 0 0
0:00:00.00 3931 N 0 0 0
0:00:00.00 4280 N 0 0 0
0:00:00.00 4612 N 0 0 0
0:00:00.00 4946 N 0 0 0
0:00:00.00 5254 N 0 0 0
0:00:00.00 5558 N 0 0 0
0:00:00.00 5863 N 0 0 0
0:00:00.00 6174 N 0 0 0
0:00:00.00 6471 N 0 0 0
0:00:00.00 6757 N 0 0 0
0:00:00.00 7045 N 0 0 0
0:00:00.00 7335 N 0 0 0
0:00:00.00 7614 N 0 0 0
0:00:00.00 7897 N 0 0 0
0:00:00.00 8183 N 0 0 0
0:00:00.00 8474 N 0 0 0
0:00:00.00 8757 N 0 0 0
0:00:00.00 9025 N 0 0 0
0:00:00.00 9272 N 0 0 0
0:00:00.00 9517 N 0 0 0
0:00:00.00 9769 N 0 0 0
0:00:00.00 10039 N 0 0 0
0:00:00.00 10314 N 0 0 0
0:00:00.00 10582 N 0 0 0
0:00:00.00 10885 N 0 0 0
0:00:00.00 11234 N 0 0 0
0:00:00.00 11588 N 0 0 0
0:00:00.00 11938 N 0 0 0
0:00:00.00 12276 N 0 0 0
0:00:00.00 12652 N 0 0 0
0:00:00.00 13001 N 0 0 0
0:00:00.00 13320 N 0 0 0
0:00:00.00 13617 N 0 0 0
0:00:00.00 13918 N 0 0 0
0:00:00.00 14227 N 0 0 0
0:00:00.00 14564 N 0 0 0
0:00:00.00 14902 N 0 0 0
0:00:00.00 15232 N 0 0 0
0:00:00.00 15561 N 0 0 0
0:00:00.00 15901 N 0 0 0
0:00:00.00 16245 N 0 0 0
0:00:00.00 16609 N 0 0 0
0:00:00.00 17001 N 0 0 0
0:00:00.00 17357 N 0 0 0
0:00:00.00 17701 N 0 0 0
0:00:00.00 18027 N 0 0 0
0:00:00.00 18333 N 0 0 0
0:00:00.00 18644 N 0 0 0
0:00:00.00 18965 N 0 0 0
0:00:00.00 19276 N 0 0 0
0:00:00.00 19579 N 0 0 0
0:00:00.00 19868 N 0 0 0
0:00:00.00 20137 N 0 0 0
0:00:00.00 20407 N 0 0 0
0:00:00.00 20691 N 0 0 0
0:00:00.00 20992 N 0 0 0
0:00:00.00 21299 N 0 0 0
0:00:00.00 21638 N 0 0 0
0:00:00.00 22009 N 0 0 0
0:00:00.00 22365 N 0 0 0
0:00:00.00 22689 N 0 0 0
0:00:00.00 23017 N 0 0 0
0:00:00.00 23364 N 0 0 0
0:00:00.00 23722 N 0 0 0
0:00:00.00 24037 N 0 0 0
0:00:00.00 24365 N 0 0 0
0:00:00.00 24683 N 0 0 0
0:00:00.00 25013 N 0 0 0
0:00:00.00 25339 N 0 0 0
0:00:00.00 25697 N 0 0 0
0:00:00.00 26069 N 0 0 0
0:00:00.00 26435 N 0 0 0
0:00:00.00 26788 N 0 0 0
0:00:00.00 27137 N 0 0 0
0:00:00.00 27470 N 0 0 0
0:00:00.00 27799 N 0 0 0
0:00:00.00 28161 N 0 0 0
0:00:00.00 28499 N 0 0 0
0:00:00.00 28800 N 0 0 0
0:00:00.00 29104 N 0 0 0
0:00:00.00 29407 N 0 0 0
0:00:00.00 29711 N 0 0 0
0:00:00.00 30024 N 0 0 0
0:00:00.00 30334 N 0 0 0
0:00:00.00 30631 N 0 0 0
0:00:00.00 30920 N 0 0 0
0:00:00.00 31189 N 0 0 0
0:00:00.00 31462 N 0 0 0
0:00:00.00 31725 N 0 0 0
0:00:00.00 32013 N 0 0 0
0:00:00.00 32335 N 0 0 0
0:00:00.00 32666 N 0 0 0
0:00:00.00 32870 N 0 0 0
0:00:00.00 33070 N 0 0 0
0:00:00.00 33475 N 0 0 0
0:00:00.00 33655 N 0 0 0
0:00:00.00 34304 N 0 0 0
0:00:00.00 34664 N 0 0 0
0:00:00.00 34859 N 0 0 0
0:00:00.00 35262 N 0 0 0
0:00:00.00 35471 N 0 0 0
0:00:00.00 35654 N 0 0 0
0:00:00.00 36083 N 0 0 0
0:00:00.00 36292 N 0 0 0
0:00:00.00 36760 N 0 0 0
0:00:00.00 36954 N 0 0 0
0:00:00.00 37582 N 0 0 0
0:00:00.00 37913 N 0 0 0
0:00:00.00 38095 N 0 0 0
0:00:00.00 38286 N 0 0 0
0:00:00.00 38736 N 0 0 0
0:00:00.00 38941 N 0 0 0
0:00:00.00 39141 N 0 0 0
0:00:00.00 39571 N 0 0 0
0:00:00.00 39902 N 0 0 0
0:00:00.00 40088 N 0 0 0
0:00:00.00 40270 N 0 0 0
0:00:00.00 40714 N 0 0 0
0:00:00.00 41033 N 0 0 0
0:00:00.00 41225 N 0 0 0
0:00:00.00 41413 N 0 0 0
0:00:00.00 41818 N 0 0 0
0:00:00.00 42007 N 0 0 0
0:00:00.00 42421 N 0 0 0
0:00:00.00 42628 N 0 0 0
0:00:00.00 42817 N 0 0 0
0:00:00.00 43276 N 0 0 0
0:00:00.00 43463 N 0 0 0
0:00:00.00 43906 N 0 0 0
0:00:00.00 44087 N 0 0 0
0:00:00.00 44507 N 0 0 0
0:00:00.00 44694 N 0 0 0
0:00:00.00 44885 N 0 0 0
0:00:00.00 45331 N 0 0 0
0:00:00.00 45560 N 0 0 0
0:00:00.00 45976 N 0 0 0
0:00:00.00 46159 N 0 0 0
0:00:00.00 46339 N 0 0 0
0:00:00.00 46777 N 0 0 0
0:00:00.00 46960 N 0 0 0
0:00:00.00 47414 N 0 0 0
0:00:00.00 47610 N 0 0 0
0:00:00.00 47799 N 0 0 0
0:00:00.00 48226 N 0 0 0
0:00:00.00 48402 N 0 0 0
0:00:00.00 48584 N 0 0 0
0:00:00.00 49009 N 0 0 0
0:00:00.00 49196 N 0 0 0
0:00:00.00 49835 N 0 0 0
0:00:00.00 50026 N 0 0 0
0:00:00.00 50427 N 0 0 0
0:00:00.00 50609 N 0 0 0
0:00:00.00 50782 N 0 0 0
0:00:00.00 51192 N 0 0 0
0:00:00.00 51403 N 0 0 0
0:00:00.00 51849 N 0 0 0
0:00:00.00 52040 N 0 0 0
0:00:00.00 52227 N 0 0 0
0:00:00.00 52664 N 0 0 0
0:00:00.00 52839 N 0 0 0
0:00:00.00 53276 N 0 0 0
0:00:00.00 53581 N 0 0 0
0:00:00.00 53874 N 0 0 0
0:00:00.00 54077 N 0 0 0
0:00:00.00 54257 N 0 0 0
0:00:00.00 54716 N 0 0 0
0:00:00.00 54889 N 0 0 0
0:00:00.00 55078 N 0 0 0
0:00:00.00 55548 N 0 0 0
0:00:00.00 55750 N 0 0 0
0:00:00.00 56227 N 0 0 0
0:00:00.00 56547 N 0 0 0
0:00:00.00 56842 N 0 0 0
0:00:00.00 57173 N 0 0 0
0:00:00.00 57496 N 0 0 0
0:00:00.00 57688 N 0 0 0
0:00:00.00 57865 N 0 0 0
0:00:00.00 57937 N 0 0 0
0:00:00.00 58345 N 0 0 0
0:00:00.00 58538 N 0 0 0
0:00:00.00 58995 N 0 0 0
0:00:00.00 59173 N 0 0 0
0:00:00.00 59339 N 0 0 0
0:00:00.00 59749 N 0 0 0
0:00:00.00 59958 N 0 0 0
0:00:00.00 60435 N 0 0 0
0:00:00.00 60642 N 0 0 0
0:00:00.00 61083 N 0 0 0
0:00:00.00 61283 N 0 0 0
0:00:00.00 61729 N 0 0 0
0:00:00.00 62102 N 0 0 0
0:00:00.00 62489 N 0 0 0
0:00:00.00 62824 N 0 0 0
0:00:00.00 63130 N 0 0 0
0:00:00.00 63500 N 0 0 0
0:00:00.00 63680 N 0 0 0
0:00:00.00 63853 N 0 0 0
0:00:00.00 64039 N 0 0 0
0:00:00.00 64571 N 0 0 0
0:00:00.00 64769 N 0 0 0
0:00:00.00 65288 N 0 0 0
0:00:00.00 65705 N 0 0 0
0:00:00.00 66105 N 0 0 0
0:00:00.00 66488 N 0 0 0
0:00:00.00 66890 N 0 0 0
0:00:00.00 67302 N 0 0 0
0:00:00.00 67702 N 0 0 0
0:00:00.00 68094 N 0 0 0
0:00:00.00 68467 N 0 0 0
0:00:00.00 68870 N 0 0 0
0:00:00.00 69269 N 0 0 0
0:00:00.00 69635 N 0 0 0
0:00:00.00 69964 N 0 0 0
0:00:00.00 70281 N 0 0 0
0:00:00.00 70618 N 0 0 0
0:00:00.00 70997 N 0 0 0
0:00:00.00 71406 N 0 0 0
0:00:00.00 71815 N 0 0 0
0:00:00.00 72193 N 0 0 0
0:00:00.00 72558 N 0 0 0
0:00:00.00 72945 N 0 0 0
0:00:00.00 73336 N 0 0 0
0:00:00.00 73730 N 0 0 0
0:00:00.00 74086 N 0 0 0
0:00:00.00 74410 N 0 0 0
0:00:00.00 74741 N 0 0 0
0:00:00.00 75137 N 0 0 0
0:00:00.00 75514 N 0 0 0
0:00:00.00 75906 N 0 0 0
0:00:00.00 76286 N 0 0 0
0:00:00.00 76669 N 0 0 0
0:00:00.00 77024 N 0 0 0
0:00:00.00 77400 N 0 0 0
0:00:00.00 77771 N 0 0 0
0:00:00.00 78156 N 0 0 0
0:00:00.00 78500 N 0 0 0
0:00:00.00 78856 N 0 0 0
0:00:00.00 79259 N 0 0 0
0:00:00.00 79650 N 0 0 0
0:00:00.00 80032 N 0 0 0
0:00:00.00 80374 N 0 0 0
0:00:00.00 80685 N 0 0 0
0:00:00.00 81018 N 0 0 0
0:00:00.00 81389 N 0 0 0
0:00:00.00 81805 N 0 0 0
0:00:00.00 82213 N 0 0 0
0:00:00.00 82584 N 0 0 0
0:00:00.00 82944 N 0 0 0
0:00:00.00 83306 N 0 0 0
0:00:00.00 83662 N 0 0 0
0:00:00.00 84035 N 0 0 0
0:00:00.00 84434 N 0 0 0
0:00:00.00 84836 N 0 0 0
0:00:00.00 85212 N 0 0 0
0:00:00.00 85599 N 0 0 0
0:00:00.00 86011 N 0 0 0
0:00:00.00 86380 N 0 0 0
0:00:00.00 86755 N 0 0 0
0:00:00.00 87131 N 0 0 0
0:00:00.00 87507 N 0 0 0
0:00:00.00 87889 N 0 0 0
0:00:00.00 88297 N 0 0 0
0:00:00.00 88709 N 0 0 0
0:00:00.00 89096 N 0 0 0
0:00:00.00 89429 N 0 0 0
0:00:00.00 89741 N 0 0 0
0:00:00.00 90056 N 0 0 0
0:00:00.00 90398 N 0 0 0
0:00:00.00 90778 N 0 0 0
0:00:00.00 91132 N 0 0 0
0:00:00.00 91454 N 0 0 0
0:00:00.00 91753 N 0 0 0
0:00:00.00 92045 N 0 0 0
0:00:00.00 92344 N 0 0 0
0:00:00.00 92659 N 0 0 0
0:00:00.00 93015 N 0 0 0
0:00:00.00 93393 N 0 0 0
0:00:00.00 93712 N 0 0 0
0:00:00.00 94034 N 0 0 0
0:00:00.00 94374 N 0 0 0
0:00:00.00 94716 N 0 0 0
0:00:00.00 95040 N 0 0 0
0:00:00.00 95380 N 0 0 0
0:00:00.00 95715 N 0 0 0
0:00:00.00 95908 N 0 0 0
0:00:00.00 96338 N 0 0 0
0:00:00.00 96662 N 0 0 0
0:00:00.00 97009 N 0 0 0
0:00:00.00 97331 N 0 0 0
0:00:00.00 97619 N 0 0 0
0:00:00.00 97909 N 0 0 0
0:00:00.00 98217 N 0 0 0
0:00:00.00 98514 N 0 0 0
0:00:00.00 98820 N 0 0 0
0:00:00.00 99135 N 0 0 0
0:00:00.00 99473 N 0 0 0
0:00:00.00 99808 N 0 0 0
0:00:00.00 100121 N 0 0 0
0:00:00.00 100442 N 0 0 0
0:00:00.00 100789 N 0 0 0
0:00:00.00 101149 N 0 0 0
0:00:00.00 101518 N 0 0 0
0:00:00.00 101884 N 0 0 0
0:00:00.00 102229 N 0 0 0
0:00:00.00 102562 N 0 0 0
0:00:00.00 102910 N 0 0 0
0:00:00.00 103304 N 0 0 0
0:00:00.00 103671 N 0 0 0
0:00:00.00 104042 N 0 0 0
0:00:00.00 104409 N 0 0 0
0:00:00.00 104778 N 0 0 0
0:00:00.00 105124 N 0 0 0
0:00:00.00 105507 N 0 0 0
0:00:00.00 105901 N 0 0 0
0:00:00.00 106288 N 0 0 0
0:00:00.00 106634 N 0 0 0
0:00:00.00 106978 N 0 0 0
0:00:00.00 107366 N 0 0 0
0:00:00.00 107779 N 0 0 0
0:00:00.00 108153 N 0 0 0
0:00:00.00 108540 N 0 0 0
0:00:00.00 108922 N 0 0 0
0:00:00.00 109289 N 0 0 0
0:00:00.00 109672 N 0 0 0
0:00:00.00 110065 N 0 0 0
0:00:00.00 110435 N 0 0 0
0:00:00.00 110788 N 0 0 0
0:00:00.00 111136 N 0 0 0
0:00:00.00 111472 N 0 0 0
0:00:00.00 111836 N 0 0 0
0:00:00.00 112230 N 0 0 0
0:00:00.00 112619 N 0 0 0
0:00:00.00 112955 N 0 0 0
0:00:00.00 113305 N 0 0 0
0:00:00.00 113672 N 0 0 0
0:00:00.00 114059 N 0 0 0
0:00:00.00 114406 N 0 0 0
0:00:00.00 114737 N 0 0 0
0:00:00.00 115081 N 0 0 0
0:00:00.00 115429 N 0 0 0
0:00:00.00 115763 N 0 0 0
0:00:00.00 116122 N 0 0 0
0:00:00.00 116532 N 0 0 0
0:00:00.00 116908 N 0 0 0
0:00:00.00 117279 N 0 0 0
0:00:00.00 117652 N 0 0 0
0:00:00.00 117990 N 0 0 0
0:00:00.00 118363 N 0 0 0
0:00:00.00 118759 N 0 0 0
0:00:00.00 119140 N 0 0 0
0:00:00.00 119484 N 0 0 0
0:00:00.00 119849 N 0 0 0
0:00:00.00 120222 N 0 0 0
0:00:00.00 120602 N 0 0 0
0:00:00.00 121005 N 0 0 0
0:00:00.00 121401 N 0 0 0
0:00:00.00 121770 N 0 0 0
0:00:00.00 122117 N 0 0 0
0:00:00.00 122470 N 0 0 0
0:00:00.00 122810 N 0 0 0
0:00:00.00 123138 N 0 0 0
0:00:00.00 123484 N 0 0 0
0:00:00.00 123883 N 0 0 0
0:00:00.00 124247 N 0 0 0
0:00:00.00 124645 N 0 0 0
0:00:00.00 125032 N 0 0 0
0:00:00.00 125415 N 0 0 0
0:00:00.00 125788 N 0 0 0
0:00:00.00 126115 N 0 0 0
0:00:00.00 126452 N 0 0 0
0:00:00.00 126812 N 0 0 0
0:00:00.00 127168 N 0 0 0
0:00:00.00 127564 N 0 0 0
0:00:00.00 127955 N 0 0 0
0:00:00.00 128309 N 0 0 0
0:00:00.00 128677 N 0 0 0
0:00:00.00 129049 N 0 0 0
0:00:00.00 129447 N 0 0 0
0:00:00.00 129820 N 0 0 0
0:00:00.00 130183 N 0 0 0
0:00:00.00 130540 N 0 0 0
0:00:00.00 130871 N 0 0 0
0:00:00.00 131233 N 0 0 0
0:00:00.00 131630 N 0 0 0
0:00:00.00 132012 N 0 0 0
0:00:00.00 132383 N 0 0 0
0:00:00.00 132721 N 0 0 0
0:00:00.00 133078 N 0 0 0
0:00:00.00 133465 N 0 0 0
0:00:00.00 133835 N 0 0 0
0:00:00.00 134206 N 0 0 0
0:00:00.00 134568 N 0 0 0
0:00:00.00 134903 N 0 0 0
0:00:00.00 135250 N 0 0 0
0:00:00.00 135616 N 0 0 0
0:00:00.00 135977 N 0 0 0
0:00:00.00 136354 N 0 0 0
0:00:00.00 136723 N 0 0 0
0:00:00.00 137057 N 0 0 0
0:00:00.00 137405 N 0 0 0
0:00:00.00 137758 N 0 0 0
0:00:00.00 138100 N 0 0 0
0:00:00.00 138463 N 0 0 0
0:00:00.00 138821 N 0 0 0
0:00:00.00 139176 N 0 0 0
0:00:00.00 139531 N 0 0 0
0:00:00.00 139878 N 0 0 0
0:00:00.00 140238 N 0 0 0
0:00:00.00 140576 N 0 0 0
0:00:00.00 140924 N 0 0 0
0:00:00.00 141278 N 0 0 0
0:00:00.00 141640 N 0 0 0
0:00:00.00 141977 N 0 0 0
0:00:00.00 142339 N 0 0 0
0:00:00.00 142702 N 0 0 0
0:00:00.00 143073 N 0 0 0
0:00:00.00 143399 N 0 0 0
0:00:00.00 143698 N 0 0 0
0:00:00.00 144036 N 0 0 0
0:00:00.00 144358 N 0 0 0
0:00:00.00 144684 N 0 0 0
0:00:00.00 144992 N 0 0 0
0:00:00.00 145316 N 0 0 0
0:00:00.00 145690 N 0 0 0
0:00:00.00 146066 N 0 0 0
0:00:00.00 146443 N 0 0 0
0:00:00.00 146813 N 0 0 0
0:00:00.00 147193 N 0 0 0
0:00:00.00 147542 N 0 0 0
0:00:00.00 147874 N 0 0 0
0:00:00.00 148192 N 0 0 0
0:00:00.00 148523 N 0 0 0
0:00:00.00 148889 N 0 0 0
0:00:00.00 149305 N 0 0 0
0:00:00.00 149688 N 0 0 0
0:00:00.00 150035 N 0 0 0
0:00:00.00 150386 N 0 0 0
0:00:00.00 150781 N 0 0 0
0:00:00.00 151178 N 0 0 0
0:00:00.00 151576 N 0 0 0
0:00:00.00 151933 N 0 0 0
0:00:00.00 152289 N 0 0 0
0:00:00.00 152665 N 0 0 0
0:00:00.00 153056 N 0 0 0
0:00:00.00 153434 N 0 0 0
0:00:00.00 153787 N 0 0 0
0:00:00.00 154087 N 0 0 0
0:00:00.00 154381 N 0 0 0
0:00:00.00 154683 N 0 0 0
0:00:00.00 155005 N 0 0 0
0:00:00.00 155320 N 0 0 0
0:00:00.00 155633 N 0 0 0
0:00:00.00 155941 N 0 0 0
0:00:00.00 156227 N 0 0 0
0:00:00.00 156499 N 0 0 0
0:00:00.00 156773 N 0 0 0
0:00:00.00 157052 N 0 0 0
0:00:00.00 157340 N 0 0 0
0:00:00.00 157615 N 0 0 0
0:00:00.00 157896 N 0 0 0
0:00:00.00 158170 N 0 0 0
0:00:00.00 158432 N 0 0 0
0:00:00.00 158693 N 0 0 0
0:00:00.00 158938 N 0 0 0
0:00:00.00 159201 N 0 0 0
0:00:00.00 159484 N 0 0 0
0:00:00.00 159784 N 0 0 0
0:00:00.00 160121 N 0 0 0
0:00:00.00 160481 N 0 0 0
0:00:00.00 160657 N 0 0 0
0:00:00.00 161075 N 0 0 0
0:00:00.00 161415 N 0 0 0
0:00:00.00 161750 N 0 0 0
0:00:00.00 162076 N 0 0 0
0:00:00.00 162425 N 0 0 0
0:00:00.00 162779 N 0 0 0
0:00:00.00 162958 N 0 0 0
0:00:00.00 163368 N 0 0 0
0:00:00.00 163708 N 0 0 0
0:00:00.00 164068 N 0 0 0
0:00:00.00 164414 N 0 0 0
0:00:00.00 164736 N 0 0 0
0:00:00.00 165060 N 0 0 0
0:00:00.00 165402 N 0 0 0
0:00:00.00 165753 N 0 0 0
0:00:00.00 166100 N 0 0 0
0:00:00.00 166419 N 0 0 0
0:00:00.00 166725 N 0 0 0
0:00:00.00 167029 N 0 0 0
0:00:00.00 167360 N 0 0 0
0:00:00.00 167695 N 0 0 0
0:00:00.00 168039 N 0 0 0
0:00:00.00 168401 N 0 0 0
0:00:00.00 168770 N 0 0 0
0:00:00.00 169112 N 0 0 0
0:00:00.00 169438 N 0 0 0
0:00:00.00 169756 N 0 0 0
0:00:00.00 170091 N 0 0 0
0:00:00.00 170465 N 0 0 0
0:00:00.00 170824 N 0 0 0
0:00:00.00 171157 N 0 0 0
0:00:00.00 171482 N 0 0 0
0:00:00.00 171830 N 0 0 0
0:00:00.00 172201 N 0 0 0
0:00:00.00 172562 N 0 0 0
0:00:00.00 172908 N 0 0 0
0:00:00.00 173257 N 0 0 0
0:00:00.00 173599 N 0 0 0
0:00:00.00 173918 N 0 0 0
0:00:00.00 174233 N 0 0 0
0:00:00.00 174557 N 0 0 0
0:00:00.00 174888 N 0 0 0
0:00:00.00 175187 N 0 0 0
0:00:00.00 175489 N 0 0 0
0:00:00.00 175783 N 0 0 0
0:00:00.00 176071 N 0 0 0
0:00:00.00 176382 N 0 0 0
0:00:00.00 176699 N 0 0 0
0:00:00.00 177016 N 0 0 0
0:00:00.00 177329 N 0 0 0
0:00:00.00 177617 N 0 0 0
0:00:00.00 177887 N 0 0 0
0:00:00.00 178186 N 0 0 0
0:00:00.00 178495 N 0 0 0
0:00:00.00 178832 N 0 0 0
0:00:00.00 179177 N 0 0 0
0:00:00.00 179501 N 0 0 0
0:00:00.00 179809 N 0 0 0
0:00:00.00 180122 N 0 0 0
0:00:00.00 180441 N 0 0 0
0:00:00.00 180781 N 0 0 0
0:00:00.00 181141 N 0 0 0
0:00:00.00 181501 N 0 0 0
0:00:00.00 181831 N 0 0 0
0:00:00.00 182146 N 0 0 0
0:00:00.00 182464 N 0 0 0
0:00:00.00 182785 N 0 0 0
0:00:00.00 183105 N 0 0 0
0:00:00.00 183438 N 0 0 0
0:00:00.00 183778 N 0 0 0
0:00:00.00 184117 N 0 0 0
0:00:00.00 184432 N 0 0 0
0:00:00.00 184752 N 0 0 0
0:00:00.00 185092 N 0 0 0
0:00:00.00 185454 N 0 0 0
0:00:00.00 185807 N 0 0 0
0:00:00.00 186149 N 0 0 0
0:00:00.00 186496 N 0 0 0
0:00:00.00 186822 N 0 0 0
0:00:00.00 187148 N 0 0 0
0:00:00.00 187511 N 0 0 0
0:00:00.00 187852 N 0 0 0
0:00:00.00 188210 N 0 0 0
0:00:00.00 188550 N 0 0 0
0:00:00.00 188870 N 0 0 0
0:00:00.00 189198 N 0 0 0
0:00:00.00 189515 N 0 0 0
0:00:00.00 189835 N 0 0 0
0:00:00.00 190152 N 0 0 0
0:00:00.00 190481 N 0 0 0
0:00:00.00 190787 N 0 0 0
0:00:00.00 191106 N 0 0 0
0:00:00.00 191452 N 0 0 0
0:00:00.00 191817 N 0 0 0
0:00:00.00 192181 N 0 0 0
0:00:00.00 192550 N 0 0 0
0:00:00.00 192904 N 0 0 0
0:00:00.00 193221 N 0 0 0
0:00:00.00 193567 N 0 0 0
0:00:00.00 193912 N 0 0 0
0:00:00.00 194256 N 0 0 0
0:00:00.00 194607 N 0 0 0
0:00:00.00 194956 N 0 0 0
0:00:00.00 195284 N 0 0 0
0:00:00.00 195604 N 0 0 0
0:00:00.00 195962 N 0 0 0
0:00:00.00 196322 N 0 0 0
0:00:00.00 196688 N 0 0 0
0:00:00.00 197050 N 0 0 0
0:00:00.00 197399 N 0 0 0
0:00:00.00 197735 N 0 0 0
0:00:00.00 198068 N 0 0 0
0:00:00.00 198412 N 0 0 0
0:00:00.00 198763 N 0 0 0
0:00:00.00 199134 N 0 0 0
0:00:00.00 199487 N 0 0 0
0:00:00.00 199805 N 0 0 0
0:00:00.00 200137 N 0 0 0
0:00:00.00 200495 N 0 0 0
0:00:00.00 200857 N 0 0 0
0:00:00.00 201215 N 0 0 0
0:00:00.00 201548 N 0 0 0
0:00:00.00 201857 N 0 0 0
0:00:00.00 202167 N 0 0 0
0:00:00.00 202478 N 0 0 0
0:00:00.00 202777 N 0 0 0
0:00:00.00 203083 N 0 0 0
0:00:00.00 203387 N 0 0 0
0:00:00.00 203681 N 0 0 0
0:00:00.00 203971 N 0 0 0
0:00:00.00 204264 N 0 0 0
0:00:00.00 204577 N 0 0 0
0:00:00.00 204916 N 0 0 0
0:00:00.00 205294 N 0 0 0
0:00:00.00 205666 N 0 0 0
0:00:00.00 206010 N 0 0 0
0:00:00.00 206359 N 0 0 0
0:00:00.00 206703 N 0 0 0
0:00:00.00 207067 N 0 0 0
0:00:00.00 207461 N 0 0 0
0:00:00.00 207832 N 0 0 0
0:00:00.00 208181 N 0 0 0
0:00:00.00 208530 N 0 0 0
0:00:00.00 208888 N 0 0 0
0:00:00.00 209250 N 0 0 0
0:00:00.00 209614 N 0 0 0
0:00:00.00 209970 N 0 0 0
0:00:00.00 210305 N 0 0 0
0:00:00.00 210641 N 0 0 0
0:00:00.00 210989 N 0 0 0
0:00:00.00 211352 N 0 0 0
0:00:00.00 211714 N 0 0 0
0:00:00.00 212080 N 0 0 0
0:00:00.00 212420 N 0 0 0
0:00:00.00 212755 N 0 0 0
0:00:00.00 213115 N 0 0 0
0:00:00.00 213473 N 0 0 0
0:00:00.00 213827 N 0 0 0
0:00:00.00 214184 N 0 0 0
0:00:00.00 214524 N 0 0 0
0:00:00.00 214817 N 0 0 0
0:00:00.00 215131 N 0 0 0
0:00:00.00 215478 N 0 0 0
0:00:00.00 215842 N 0 0 0
0:00:00.00 216203 N 0 0 0
0:00:00.00 216535 N 0 0 0
0:00:00.00 216851 N 0 0 0
0:00:00.00 217159 N 0 0 0
0:00:00.00 217487 N 0 0 0
0:00:00.00 217813 N 0 0 0
0:00:00.00 218137 N 0 0 0
0:00:00.00 218462 N 0 0 0
0:00:00.00 218792 N 0 0 0
0:00:00.00 219123 N 0 0 0
0:00:00.00 219451 N 0 0 0
0:00:00.00 219789 N 0 0 0
0:00:00.00 220142 N 0 0 0
0:00:00.00 220518 N 0 0 0
0:00:00.00 220876 N 0 0 0
0:00:00.00 221225 N 0 0 0
0:00:00.00 221596 N 0 0 0
0:00:00.00 221990 N 0 0 0
0:00:00.00 222392 N 0 0 0
0:00:00.00 222773 N 0 0 0
0:00:00.00 223139 N 0 0 0
0:00:00.00 223497 N 0 0 0
0:00:00.00 223843 N 0 0 0
0:00:00.00 224203 N 0 0 0
0:00:00.00 224563 N 0 0 0
0:00:00.00 224897 N 0 0 0
0:00:00.00 225230 N 0 0 0
0:00:00.00 225549 N 0 0 0
0:00:00.00 225857 N 0 0 0
0:00:00.00 226179 N 0 0 0
0:00:00.00 226499 N 0 0 0
0:00:00.00 226823 N 0 0 0
0:00:00.00 227133 N 0 0 0
0:00:00.00 227421 N 0 0 0
0:00:00.00 227720 N 0 0 0
0:00:00.00 228015 N 0 0 0
0:00:00.00 228339 N 0 0 0
0:00:00.00 228677 N 0 0 0
0:00:00.00 229009 N 0 0 0
0:00:00.00 229333 N 0 0 0
0:00:00.00 229669 N 0 0 0
0:00:00.00 229988 N 0 0 0
0:00:00.00 230288 N 0 0 0
0:00:00.00 230584 N 0 0 0
0:00:00.00 230915 N 0 0 0
0:00:00.00 231266 N 0 0 0
0:00:00.00 231611 N 0 0 0
0:00:00.00 231944 N 0 0 0
0:00:00.00 232247 N 0 0 0
0:00:00.00 232565 N 0 0 0
0:00:00.00 232911 N 0 0 0
0:00:00.00 233260 N 0 0 0
0:00:00.00 233597 N 0 0 0
0:00:00.00 233923 N 0 0 0
0:00:00.00 234243 N 0 0 0
0:00:00.00 234569 N 0 0 0
0:00:00.00 234891 N 0 0 0
0:00:00.00 235231 N 0 0 0
0:00:00.00 235577 N 0 0 0
0:00:00.00 235933 N 0 0 0
0:00:00.00 236268 N 0 0 0
0:00:00.00 236583 N 0 0 0
0:00:00.00 236909 N 0 0 0
0:00:00.00 237236 N 0 0 0
0:00:00.00 237582 N 0 0 0
0:00:00.00 237933 N 0 0 0
0:00:00.00 238248 N 0 0 0
0:00:00.00 238567 N 0 0 0
0:00:00.00 238896 N 0 0 0
0:00:00.00 239256 N 0 0 0
0:00:00.00 239618 N 0 0 0
0:00:00.00 239960 N 0 0 0
0:00:00.00 240278 N 0 0 0
0:00:00.00 240574 N 0 0 0
0:00:00.00 240862 N 0 0 0
0:00:00.00 241171 N 0 0 0
0:00:00.00 241513 N 0 0 0
0:00:00.00 241866 N 0 0 0
0:00:00.00 242231 N 0 0 0
0:00:00.00 242597 N 0 0 0
0:00:00.00 242960 N 0 0 0
0:00:00.00 243304 N 0 0 0
0:00:00.00 243661 N 0 0 0
0:00:00.00 244021 N 0 0 0
0:00:00.00 244355 N 0 0 0
0:00:00.00 244697 N 0 0 0
0:00:00.00 245029 N 0 0 0
0:00:00.00 245367 N 0 0 0
0:00:00.00 245722 N 0 0 0
0:00:00.00 246073 N 0 0 0
0:00:00.00 246415 N 0 0 0
0:00:00.00 246748 N 0 0 0
0:00:00.00 247045 N 0 0 0
0:00:00.00 247340 N 0 0 0
0:00:00.00 247637 N 0 0 0
0:00:00.00 247952 N 0 0 0
0:00:00.00 248256 N 0 0 0
0:00:00.00 248564 N 0 0 0
0:00:00.00 248861 N 0 0 0
0:00:00.00 249161 N 0 0 0
0:00:00.00 249457 N 0 0 0
0:00:00.00 249743 N 0 0 0
0:00:00.00 250043 N 0 0 0
0:00:00.00 250353 N 0 0 0
0:00:00.00 250654 N 0 0 0
0:00:00.00 250958 N 0 0 0
0:00:00.00 251235 N 0 0 0
0:00:00.00 251519 N 0 0 0
0:00:00.00 251813 N 0 0 0
0:00:00.00 252117 N 0 0 0
0:00:00.00 252477 N 0 0 0
0:00:00.00 252828 N 0 0 0
0:00:00.00 253161 N 0 0 0
0:00:00.00 253471 N 0 0 0
0:00:00.00 253762 N 0 0 0
0:00:00.00 254063 N 0 0 0
0:00:00.00 254358 N 0 0 0
0:00:00.00 254669 N 0 0 0
0:00:00.00 254995 N 0 0 0
0:00:00.00 255307 N 0 0 0
0:00:00.00 255614 N 0 0 0
0:00:00.00 255919 N 0 0 0
0:00:00.00 256106 N 0 0 0
0:00:00.00 256507 N 0 0 0
0:00:00.00 256810 N 0 0 0
0:00:00.00 257112 N 0 0 0
0:00:00.00 257404 N 0 0 0
0:00:00.00 257585 N 0 0 0
0:00:00.00 257958 N 0 0 0
0:00:00.00 258142 N 0 0 0
0:00:00.00 258532 N 0 0 0
0:00:00.00 258719 N 0 0 0
0:00:00.00 259126 N 0 0 0
0:00:00.00 259418 N 0 0 0
0:00:00.00 259990 N 0 0 0
0:00:00.00 260168 N 0 0 0
0:00:00.00 260595 N 0 0 0
0:00:00.00 260888 N 0 0 0
0:00:00.00 261180 N 0 0 0
0:00:00.00 261479 N 0 0 0
0:00:00.00 261670 N 0 0 0
0:00:00.00 262044 N 0 0 0
0:00:00.00 262314 N 0 0 0
0:00:00.00 262577 N 0 0 0
0:00:00.00 262751 N 0 0 0
0:00:00.00 262933 N 0 0 0
0:00:00.00 263354 N 0 0 0
0:00:00.00 263646 N 0 0 0
0:00:00.00 263828 N 0 0 0
0:00:00.00 264211 N 0 0 0
0:00:00.00 264388 N 0 0 0
0:00:00.00 264758 N 0 0 0
0:00:00.00 265041 N 0 0 0
0:00:00.00 265336 N 0 0 0
0:00:00.00 265527 N 0 0 0
0:00:00.00 265932 N 0 0 0
0:00:00.00 266211 N 0 0 0
0:00:00.00 266391 N 0 0 0
0:00:00.00 266940 N 0 0 0
0:00:00.00 267111 N 0 0 0
0:00:00.00 267482 N 0 0 0
0:00:00.00 267761 N 0 0 0
0:00:00.00 267948 N 0 0 0
0:00:00.00 268508 N 0 0 0
0:00:00.00 268668 N 0 0 0
0:00:00.00 269006 N 0 0 0
0:00:00.00 269181 N 0 0 0
0:00:00.00 269530 N 0 0 0
0:00:00.00 269708 N 0 0 0
0:00:00.00 270043 N 0 0 0
0:00:00.00 270214 N 0 0 0
0:00:00.00 270547 N 0 0 0
0:00:00.00 270709 N 0 0 0
0:00:00.00 271028 N 0 0 0
0:00:00.00 271199 N 0 0 0
0:00:00.00 271516 N 0 0 0
0:00:00.00 271692 N 0 0 0
0:00:00.00 272047 N 0 0 0
0:00:00.00 272225 N 0 0 0
0:00:00.00 272579 N 0 0 0
0:00:00.00 272752 N 0 0 0
0:00:00.00 273083 N 0 0 0
0:00:00.00 273247 N 0 0 0
0:00:00.00 273593 N 0 0 0
0:00:00.00 273773 N 0 0 0
0:00:00.00 274135 N 0 0 0
0:00:00.00 274316 N 0 0 0
0:00:00.00 274684 N 0 0 0
0:00:00.00 274853 N 0 0 0
0:00:00.00 275191 N 0 0 0
0:00:00.00 275364 N 0 0 0
0:00:00.00 275688 N 0 0 0
0:00:00.00 275866 N 0 0 0
0:00:00.00 276205 N 0 0 0
0:00:00.00 276385 N 0 0 0
0:00:00.00 276719 N 0 0 0
0:00:00.00 276899 N 0 0 0
0:00:00.00 277225 N 0 0 0
0:00:00.00 277393 N 0 0 0
0:00:00.00 277720 N 0 0 0
0:00:00.00 277888 N 0 0 0
0:00:00.00 278233 N 0 0 0
0:00:00.00 278420 N 0 0 0
0:00:00.00 278770 N 0 0 0
0:00:00.00 278946 N 0 0 0
0:00:00.00 279270 N 0 0 0
0:00:00.00 279436 N 0 0 0
0:00:00.00 279740 N 0 0 0
0:00:00.00 279904 N 0 0 0
0:00:00.00 280228 N 0 0 0
0:00:00.00 280406 N 0 0 0
0:00:00.00 280728 N 0 0 0
0:00:00.00 280904 N 0 0 0
0:00:00.00 281225 N 0 0 0
0:00:00.00 281394 N 0 0 0
0:00:00.00 281707 N 0 0 0
0:00:00.00 281867 N 0 0 0
0:00:00.00 282202 N 0 0 0
0:00:00.00 282364 N 0 0 0
0:00:00.00 282717 N 0 0 0
0:00:00.00 282888 N 0 0 0
0:00:00.00 283228 N 0 0 0
0:00:00.00 283403 N 0 0 0
0:00:00.00 283703 N 0 0 0
0:00:00.00 283874 N 0 0 0
0:00:00.00 284184 N 0 0 0
0:00:00.00 284357 N 0 0 0
0:00:00.00 284690 N 0 0 0
0:00:00.00 284866 N 0 0 0
0:00:00.00 285199 N 0 0 0
0:00:00.00 285367 N 0 0 0
0:00:00.00 285694 N 0 0 0
0:00:00.00 285851 N 0 0 0
0:00:00.00 286168 N 0 0 0
0:00:00.00 286335 N 0 0 0
0:00:00.00 286663 N 0 0 0
0:00:00.00 286832 N 0 0 0
0:00:00.00 287183 N 0 0 0
0:00:00.00 287357 N 0 0 0
0:00:00.00 287719 N 0 0 0
0:00:00.00 287885 N 0 0 0
0:00:00.00 288230 N 0 0 0
0:00:00.00 288391 N 0 0 0
0:00:00.00 288743 N 0 0 0
0:00:00.00 288920 N 0 0 0
0:00:00.00 289296 N 0 0 0
0:00:00.00 289481 N 0 0 0
0:00:00.00 289829 N 0 0 0
0:00:00.00 290000 N 0 0 0
0:00:00.00 290318 N 0 0 0
0:00:00.00 290489 N 0 0 0
0:00:00.00 290817 N 0 0 0
0:00:00.00 290995 N 0 0 0
0:00:00.00 291330 N 0 0 0
0:00:00.00 291512 N 0 0 0
0:00:00.00 291843 N 0 0 0
0:00:00.00 292016 N 0 0 0
0:00:00.00 292336 N 0 0 0
0:00:00.00 292505 N 0 0 0
0:00:00.00 292835 N 0 0 0
0:00:00.00 293004 N 0 0 0
0:00:00.00 293364 N 0 0 0
0:00:00.00 293540 N 0 0 0
0:00:00.00 293920 N 0 0 0
0:00:00.00 294098 N 0 0 0
0:00:00.00 294442 N 0 0 0
0:00:00.00 294613 N 0 0 0
0:00:00.00 294948 N 0 0 0
0:00:00.00 295465 N 0 0 0
0:00:00.00 295672 N 0 0 0
0:00:00.00 296005 N 0 0 0
0:00:00.00 296186 N 0 0 0
0:00:00.00 296534 N 0 0 0
0:00:00.00 296705 N 0 0 0
0:00:00.00 297054 N 0 0 0
0:00:00.00 297227 N 0 0 0
0:00:00.00 297612 N 0 0 0
0:00:00.00 297792 N 0 0 0
0:00:00.00 298206 N 0 0 0
0:00:00.00 298388 N 0 0 0
0:00:00.00 298793 N 0 0 0
0:00:00.00 298962 N 0 0 0
0:00:00.00 299365 N 0 0 0
0:00:00.00 299542 N 0 0 0
0:00:00.00 299995 N 0 0 0
0:00:00.00 300182 N 0 0 0
0:00:00.00 300609 N 0 0 0
0:00:00.00 300789 N 0 0 0
0:00:00.00 301214 N 0 0 0
0:00:00.00 301388 N 0 0 0
0:00:00.00 301826 N 0 0 0
0:00:00.00 302011 N 0 0 0
0:00:00.00 302441 N 0 0 0
0:00:00.00 302636 N 0 0 0
0:00:00.00 303032 N 0 0 0
0:00:00.00 303212 N 0 0 0
0:00:00.00 303575 N 0 0 0
0:00:00.00 303755 N 0 0 0
0:00:00.00 304159 N 0 0 0
0:00:00.00 304346 N 0 0 0
0:00:00.00 304781 N 0 0 0
0:00:00.00 304969 N 0 0 0
0:00:00.00 305377 N 0 0 0
0:00:00.00 305552 N 0 0 0
0:00:00.00 305973 N 0 0 0
0:00:00.00 306164 N 0 0 0
0:00:00.00 306598 N 0 0 0
0:00:00.00 306796 N 0 0 0
0:00:00.00 307186 N 0 0 0
0:00:00.00 307393 N 0 0 0
0:00:00.00 307750 N 0 0 0
0:00:00.00 307933 N 0 0 0
0:00:00.00 308344 N 0 0 0
0:00:00.00 308533 N 0 0 0
0:00:00.00 308961 N 0 0 0
0:00:00.00 309161 N 0 0 0
0:00:00.00 309559 N 0 0 0
0:00:00.00 309744 N 0 0 0
0:00:00.00 310135 N 0 0 0
0:00:00.00 310338 N 0 0 0
0:00:00.00 310721 N 0 0 0
0:00:00.00 310923 N 0 0 0
0:00:00.00 311314 N 0 0 0
0:00:00.00 311499 N 0 0 0
0:00:00.00 311872 N 0 0 0
0:00:00.00 312052 N 0 0 0
0:00:00.00 312221 N 0 0 0
0:00:00.00 312638 N 0 0 0
0:00:00.00 312818 N 0 0 0
0:00:00.00 313216 N 0 0 0
0:00:00.00 313400 N 0 0 0
0:00:00.00 313591 N 0 0 0
0:00:00.00 313996 N 0 0 0
0:00:00.00 314156 N 0 0 0
0:00:00.00 314546 N 0 0 0
0:00:00.00 314726 N 0 0 0
0:00:00.00 315115 N 0 0 0
0:00:00.00 315308 N 0 0 0
0:00:00.00 315693 N 0 0 0
0:00:00.00 315893 N 0 0 0
0:00:00.00 316220 N 0 0 0
0:00:00.00 316395 N 0 0 0
0:00:00.00 316739 N 0 0 0
0:00:00.00 316939 N 0 0 0
0:00:00.00 317318 N 0 0 0
0:00:00.00 317497 N 0 0 0
0:00:00.00 317876 N 0 0 0
0:00:00.00 318053 N 0 0 0
0:00:00.00 318425 N 0 0 0
0:00:00.00 318611 N 0 0 0
0:00:00.00 318998 N 0 0 0
0:00:00.00 319181 N 0 0 0
0:00:00.00 319586 N 0 0 0
0:00:00.00 319772 N 0 0 0
0:00:00.00 320166 N 0 0 0
0:00:00.00 320348 N 0 0 0
0:00:00.00 320690 N 0 0 0
0:00:00.00 320949 N 0 0 0
0:00:00.00 321145 N 0 0 0
0:00:00.00 321759 N 0 0 0
0:00:00.00 321935 N 0 0 0
0:00:00.00 322333 N 0 0 0
0:00:00.00 322526 N 0 0 0
0:00:00.00 322888 N 0 0 0
0:00:00.00 323066 N 0 0 0
0:00:00.00 323473 N 0 0 0
0:00:00.00 324067 N 0 0 0
0:00:00.00 324349 N 0 0 0
0:00:00.00 324616 N 0 0 0
0:00:00.00 324877 N 0 0 0
0:00:00.00 325062 N 0 0 0
0:00:00.00 325233 N 0 0 0
0:00:00.00 325622 N 0 0 0
0:00:00.00 325910 N 0 0 0
0:00:00.00 326191 N 0 0 0
0:00:00.00 326462 N 0 0 0
0:00:00.00 326646 N 0 0 0
0:00:00.00 327028 N 0 0 0
0:00:00.00 327204 N 0 0 0
0:00:00.00 327578 N 0 0 0
0:00:00.00 328156 N 0 0 0
0:00:00.00 328437 N 0 0 0
0:00:00.00 328622 N 0 0 0
0:00:00.00 329207 N 0 0 0
0:00:00.00 329769 N 0 0 0
0:00:00.00 330368 N 0 0 0
0:00:00.00 330649 N 0 0 0
0:00:00.00 330946 N 0 0 0
0:00:00.00 331240 N 0 0 0
0:00:00.00 331549 N 0 0 0
0:00:00.00 331731 N 0 0 0
0:00:00.00 332174 N 0 0 0
0:00:00.00 332514 N 0 0 0
0:00:00.00 332840 N 0 0 0
0:00:00.00 333164 N 0 0 0
0:00:00.00 333515 N 0 0 0
0:00:00.00 333835 N 0 0 0
0:00:00.00 334166 N 0 0 0
0:00:00.00 334516 N 0 0 0
0:00:00.00 334854 N 0 0 0
0:00:00.00 335176 N 0 0 0
0:00:00.00 335497 N 0 0 0
0:00:00.00 335795 N 0 0 0
0:00:00.00 336107 N 0 0 0
0:00:00.00 336422 N 0 0 0
0:00:00.00 336749 N 0 0 0
0:00:00.00 337068 N 0 0 0
0:00:00.00 337361 N 0 0 0
0:00:00.00 337655 N 0 0 0
0:00:00.00 337946 N 0 0 0
0:00:00.00 338234 N 0 0 0
0:00:00.00 338551 N 0 0 0
0:00:00.00 338873 N 0 0 0
0:00:00.00 339187 N 0 0 0
0:00:00.00 339505 N 0 0 0
0:00:00.00 339818 N 0 0 0
0:00:00.00 340121 N 0 0 0
0:00:00.00 340439 N 0 0 0
0:00:00.00 340780 N 0 0 0
0:00:00.00 341114 N 0 0 0
0:00:00.00 341456 N 0 0 0
0:00:00.00 341798 N 0 0 0
0:00:00.00 342110 N 0 0 0
0:00:00.00 342430 N 0 0 0
0:00:00.00 342772 N 0 0 0
0:00:00.00 343109 N 0 0 0
0:00:00.00 343449 N 0 0 0
0:00:00.00 343771 N 0 0 0
0:00:00.00 344088 N 0 0 0
0:00:00.00 344405 N 0 0 0
0:00:00.00 344704 N 0 0 0
0:00:00.00 345022 N 0 0 0
0:00:00.00 345357 N 0 0 0
0:00:00.00 345683 N 0 0 0
0:00:00.00 346010 N 0 0 0
0:00:00.00 346322 N 0 0 0
0:00:00.00 346615 N 0 0 0
0:00:00.00 346900 N 0 0 0
0:00:00.00 347170 N 0 0 0
0:00:00.00 347458 N 0 0 0
0:00:00.00 347753 N 0 0 0
0:00:00.00 347956 N 0 0 0
0:00:00.00 348514 N 0 0 0
0:00:00.00 348696 N 0 0 0
0:00:00.00 349047 N 0 0 0
0:00:00.00 349589 N 0 0 0
0:00:00.00 349776 N 0 0 0
0:00:00.00 350123 N 0 0 0
0:00:00.00 350312 N 0 0 0
0:00:00.00 350656 N 0 0 0
0:00:00.00 350905 N 0 0 0
0:00:00.00 351086 N 0 0 0
0:00:00.00 351252 N 0 0 0
0:00:00.00 351653 N 0 0 0
0:00:00.00 351841 N 0 0 0
0:00:00.00 352242 N 0 0 0
0:00:00.00 352514 N 0 0 0
0:00:00.00 352780 N 0 0 0
0:00:00.00 352958 N 0 0 0
0:00:00.00 353547 N 0 0 0
0:00:00.00 354157 N 0 0 0
0:00:00.00 354748 N 0 0 0
0:00:00.00 355014 N 0 0 0
0:00:00.00 355273 N 0 0 0
0:00:00.00 355538 N 0 0 0
0:00:00.00 355810 N 0 0 0
0:00:00.00 356117 N 0 0 0
0:00:00.00 356427 N 0 0 0
0:00:00.00 356614 N 0 0 0
0:00:00.00 357014 N 0 0 0
0:00:00.00 357304 N 0 0 0
0:00:00.00 357575 N 0 0 0
0:00:00.00 357876 N 0 0 0
0:00:00.00 358216 N 0 0 0
0:00:00.00 358412 N 0 0 0
0:00:00.00 358830 N 0 0 0
0:00:00.00 359136 N 0 0 0
0:00:00.00 359417 N 0 0 0
0:00:00.00 359608 N 0 0 0
0:00:00.00 360202 N 0 0 0
0:00:00.00 360400 N 0 0 0
0:00:00.00 360817 N 0 0 0
0:00:00.00 361114 N 0 0 0
0:00:00.00 361375 N 0 0 0
0:00:00.00 361568 N 0 0 0
0:00:00.00 361726 N 0 0 0
0:00:00.00 362147 N 0 0 0
0:00:00.00 362351 N 0 0 0
0:00:00.00 362777 N 0 0 0
0:00:00.00 363065 N 0 0 0
0:00:00.00 363364 N 0 0 0
0:00:00.00 363647 N 0 0 0
0:00:00.00 363922 N 0 0 0
0:00:00.00 364201 N 0 0 0
0:00:00.00 364486 N 0 0 0
0:00:00.00 364788 N 0 0 0
0:00:00.00 365087 N 0 0 0
0:00:00.00 365377 N 0 0 0
0:00:00.00 365675 N 0 0 0
0:00:00.00 365969 N 0 0 0
0:00:00.00 366246 N 0 0 0
0:00:00.00 366521 N 0 0 0
0:00:00.00 366817 N 0 0 0
0:00:00.00 367133 N 0 0 0
0:00:00.00 367443 N 0 0 0
0:00:00.00 367733 N 0 0 0
0:00:00.00 368005 N 0 0 0
0:00:00.00 368303 N 0 0 0
0:00:00.00 368597 N 0 0 0
0:00:00.00 368896 N 0 0 0
0:00:00.00 369203 N 0 0 0
0:00:00.00 369504 N 0 0 0
0:00:00.00 369794 N 0 0 0
0:00:00.00 370093 N 0 0 0
0:00:00.00 370399 N 0 0 0
0:00:00.00 370705 N 0 0 0
0:00:00.00 371021 N 0 0 0
0:00:00.00 371347 N 0 0 0
0:00:00.00 371664 N 0 0 0
0:00:00.00 371990 N 0 0 0
0:00:00.00 372305 N 0 0 0
0:00:00.00 372595 N 0 0 0
0:00:00.00 372922 N 0 0 0
0:00:00.00 373279 N 0 0 0
0:00:00.00 373628 N 0 0 0
0:00:00.00 373941 N 0 0 0
0:00:00.00 374245 N 0 0 0
0:00:00.00 374526 N 0 0 0
0:00:00.00 374816 N 0 0 0
0:00:00.00 375131 N 0 0 0
0:00:00.00 375473 N 0 0 0
0:00:00.00 375802 N 0 0 0
0:00:00.00 376162 N 0 0 0
0:00:00.00 376517 N 0 0 0
0:00:00.00 376843 N 0 0 0
0:00:00.00 377188 N 0 0 0
0:00:00.00 377550 N 0 0 0
0:00:00.00 378245 N 0 0 0
0:00:00.00 378855 N 0 0 0
0:00:00.00 379154 N 0 0 0
0:00:00.00 379453 N 0 0 0
0:00:00.00 379791 N 0 0 0
0:00:00.00 379991 N 0 0 0
0:00:00.00 380624 N 0 0 0
0:00:00.00 380804 N 0 0 0
0:00:00.00 381244 N 0 0 0
0:00:00.00 381424 N 0 0 0
0:00:00.00 382055 N 0 0 0
0:00:00.00 382270 N 0 0 0
0:00:00.00 382721 N 0 0 0
0:00:00.00 382901 N 0 0 0
0:00:00.00 383324 N 0 0 0
0:00:00.00 383510 N 0 0 0
0:00:00.00 383962 N 0 0 0
0:00:00.00 384156 N 0 0 0
0:00:00.00 384651 N 0 0 0
0:00:00.00 384836 N 0 0 0
0:00:00.00 385283 N 0 0 0
0:00:00.00 385468 N 0 0 0
0:00:00.00 385927 N 0 0 0
0:00:00.00 386111 N 0 0 0
0:00:00.00 386609 N 0 0 0
0:00:00.00 386800 N 0 0 0
0:00:00.00 387279 N 0 0 0
0:00:00.00 387461 N 0 0 0
0:00:00.00 387907 N 0 0 0
0:00:00.00 388120 N 0 0 0
0:00:00.00 388591 N 0 0 0
0:00:00.00 388795 N 0 0 0
0:00:00.00 389252 N 0 0 0
0:00:00.00 389597 N 0 0 0
0:00:00.00 389920 N 0 0 0
0:00:00.00 390110 N 0 0 0
0:00:00.00 390780 N 0 0 0
0:00:00.00 390992 N 0 0 0
0:00:00.00 391457 N 0 0 0
0:00:00.00 391655 N 0 0 0
0:00:00.00 391828 N 0 0 0
0:00:00.00 392256 N 0 0 0
0:00:00.00 392463 N 0 0 0
0:00:00.00 392911 N 0 0 0
0:00:00.00 393115 N 0 0 0
0:00:00.00 393575 N 0 0 0
0:00:00.00 393901 N 0 0 0
0:00:00.00 394085 N 0 0 0
0:00:00.00 394524 N 0 0 0
0:00:00.00 394868 N 0 0 0
0:00:00.00 395078 N 0 0 0
0:00:00.00 395266 N 0 0 0
0:00:00.00 395716 N 0 0 0
0:00:00.00 395923 N 0 0 0
0:00:00.00 396344 N 0 0 0
0:00:00.00 396531 N 0 0 0
0:00:00.00 396977 N 0 0 0
0:00:00.00 397175 N 0 0 0
0:00:00.00 397649 N 0 0 0
0:00:00.00 397996 N 0 0 0
0:00:00.00 398182 N 0 0 0
0:00:00.00 398815 N 0 0 0
0:00:00.00 399004 N 0 0 0
0:00:00.00 399494 N 0 0 0
0:00:00.00 399870 N 0 0 0
0:00:00.00 400210 N 0 0 0
0:00:00.00 400567 N 0 0 0
0:00:00.00 400763 N 0 0 0
0:00:00.00 401224 N 0 0 0
0:00:00.00 401611 N 0 0 0
0:00:00.00 401981 N 0 0 0
0:00:00.00 402358 N 0 0 0
0:00:00.00 402556 N 0 0 0
0:00:00.00 403004 N 0 0 0
0:00:00.00 403355 N 0 0 0
0:00:00.00 403567 N 0 0 0
0:00:00.00 404239 N 0 0 0
0:00:00.00 404453 N 0 0 0
0:00:00.00 404874 N 0 0 0
0:00:00.00 405063 N 0 0 0
0:00:00.00 405508 N 0 0 0
0:00:00.00 405733 N 0 0 0
0:00:00.00 406199 N 0 0 0
0:00:00.00 406537 N 0 0 0
0:00:00.00 406735 N 0 0 0
0:00:00.00 407349 N 0 0 0
0:00:00.00 407533 N 0 0 0
0:00:00.00 407993 N 0 0 0
0:00:00.00 408326 N 0 0 0
0:00:00.00 408528 N 0 0 0
0:00:00.00 409140 N 0 0 0
0:00:00.00 409313 N 0 0 0
0:00:00.00 409759 N 0 0 0
0:00:00.00 409955 N 0 0 0
0:00:00.00 410411 N 0 0 0
0:00:00.00 410605 N 0 0 0
0:00:00.00 411048 N 0 0 0
0:00:00.00 411230 N 0 0 0
0:00:00.00 411647 N 0 0 0
0:00:00.00 411833 N 0 0 0
0:00:00.00 412276 N 0 0 0
0:00:00.00 412470 N 0 0 0
0:00:00.00 412936 N 0 0 0
0:00:00.00 413120 N 0 0 0
0:00:00.00 413545 N 0 0 0
0:00:00.00 413726 N 0 0 0
0:00:00.00 414180 N 0 0 0
0:00:00.00 414376 N 0 0 0
0:00:00.00 414853 N 0 0 0
0:00:00.00 415048 N 0 0 0
0:00:00.00 415490 N 0 0 0
0:00:00.00 415670 N 0 0 0
0:00:00.00 416124 N 0 0 0
0:00:00.00 416324 N 0 0 0
0:00:00.00 416783 N 0 0 0
0:00:00.00 416981 N 0 0 0
0:00:00.00 417433 N 0 0 0
0:00:00.00 417618 N 0 0 0
0:00:00.00 418055 N 0 0 0
0:00:00.00 418237 N 0 0 0
0:00:00.00 418700 N 0 0 0
0:00:00.00 418903 N 0 0 0
0:00:00.00 419368 N 0 0 0
0:00:00.00 419553 N 0 0 0
0:00:00.00 419996 N 0 0 0
0:00:00.00 420174 N 0 0 0
0:00:00.00 420622 N 0 0 0
0:00:00.00 420824 N 0 0 0
0:00:00.00 421290 N 0 0 0
0:00:00.00 421477 N 0 0 0
0:00:00.00 421925 N 0 0 0
0:00:00.00 422113 N 0 0 0
0:00:00.00 422539 N 0 0 0
0:00:00.00 422723 N 0 0 0
0:00:00.00 423196 N 0 0 0
0:00:00.00 423387 N 0 0 0
0:00:00.00 423846 N 0 0 0
0:00:00.00 424033 N 0 0 0
0:00:00.00 424472 N 0 0 0
0:00:00.00 424656 N 0 0 0
0:00:00.00 425135 N 0 0 0
0:00:00.00 425333 N 0 0 0
0:00:00.00 425801 N 0 0 0
0:00:00.00 425988 N 0 0 0
0:00:00.00 426415 N 0 0 0
0:00:00.00 426600 N 0 0 0
0:00:00.00 427039 N 0 0 0
0:00:00.00 427237 N 0 0 0
0:00:00.00 427682 N 0 0 0
0:00:00.00 428029 N 0 0 0
0:00:00.00 428377 N 0 0 0
0:00:00.00 428569 N 0 0 0
0:00:00.00 428996 N 0 0 0
0:00:00.00 429334 N 0 0 0
0:00:00.00 429691 N 0 0 0
0:00:00.00 430034 N 0 0 0
0:00:00.00 430236 N 0 0 0
0:00:00.00 430675 N 0 0 0
0:00:00.00 431023 N 0 0 0
0:00:00.00 431370 N 0 0 0
0:00:00.00 431728 N 0 0 0
0:00:00.00 432092 N 0 0 0
0:00:00.00 432450 N 0 0 0
0:00:00.00 432794 N 0 0 0
0:00:00.00 433157 N 0 0 0
0:00:00.00 433355 N 0 0 0
0:00:00.00 433827 N 0 0 0
0:00:00.00 434228 N 0 0 0
0:00:00.00 434601 N 0 0 0
0:00:00.00 434966 N 0 0 0
0:00:00.00 435335 N 0 0 0
0:00:00.00 435528 N 0 0 0
0:00:00.00 436007 N 0 0 0
0:00:00.00 436394 N 0 0 0
0:00:00.00 436601 N 0 0 0
0:00:00.00 437044 N 0 0 0
0:00:00.00 437425 N 0 0 0
0:00:00.00 437620 N 0 0 0
0:00:00.00 438080 N 0 0 0
0:00:00.00 438300 N 0 0 0
0:00:00.00 438755 N 0 0 0
0:00:00.00 438986 N 0 0 0
0:00:00.00 439411 N 0 0 0
0:00:00.00 439600 N 0 0 0
0:00:00.00 440251 N 0 0 0
0:00:00.00 440449 N 0 0 0
0:00:00.00 440928 N 0 0 0
0:00:00.00 441119 N 0 0 0
0:00:00.00 441569 N 0 0 0
0:00:00.00 441754 N 0 0 0
0:00:00.00 442204 N 0 0 0
0:00:00.00 442408 N 0 0 0
0:00:00.00 442885 N 0 0 0
0:00:00.00 443075 N 0 0 0
0:00:00.00 443536 N 0 0 0
0:00:00.00 443722 N 0 0 0
0:00:00.00 444164 N 0 0 0
0:00:00.00 444359 N 0 0 0
0:00:00.00 444823 N 0 0 0
0:00:00.00 445187 N 0 0 0
0:00:00.00 445388 N 0 0 0
0:00:00.00 445820 N 0 0 0
0:00:00.00 446006 N 0 0 0
0:00:00.00 446447 N 0 0 0
0:00:00.00 446654 N 0 0 0
0:00:00.00 447086 N 0 0 0
0:00:00.00 447289 N 0 0 0
0:00:00.00 447680 N 0 0 0
0:00:00.00 447869 N 0 0 0
0:00:00.00 448297 N 0 0 0
0:00:00.00 448627 N 0 0 0
0:00:00.00 448830 N 0 0 0
0:00:00.00 449289 N 0 0 0
0:00:00.00 449500 N 0 0 0
0:00:00.00 449964 N 0 0 0
0:00:00.00 450144 N 0 0 0
0:00:00.00 450571 N 0 0 0
0:00:00.00 450767 N 0 0 0
0:00:00.00 451233 N 0 0 0
0:00:00.00 451593 N 0 0 0
0:00:00.00 451798 N 0 0 0
0:00:00.00 452237 N 0 0 0
0:00:00.00 452585 N 0 0 0
0:00:00.00 452783 N 0 0 0
0:00:00.00 453263 N 0 0 0
0:00:00.00 453465 N 0 0 0
0:00:00.00 453955 N 0 0 0
0:00:00.00 454154 N 0 0 0
0:00:00.00 454604 N 0 0 0
0:00:00.00 454799 N 0 0 0
0:00:00.00 455269 N 0 0 0
0:00:00.00 455476 N 0 0 0
0:00:00.00 455958 N 0 0 0
0:00:00.00 456161 N 0 0 0
0:00:00.00 456608 N 0 0 0
0:00:00.00 456791 N 0 0 0
0:00:00.00 457256 N 0 0 0
0:00:00.00 457463 N 0 0 0
0:00:00.00 457940 N 0 0 0
0:00:00.00 458141 N 0 0 0
0:00:00.00 458600 N 0 0 0
0:00:00.00 458786 N 0 0 0
0:00:00.00 459218 N 0 0 0
0:00:00.00 459544 N 0 0 0
0:00:00.00 459895 N 0 0 0
0:00:00.00 460100 N 0 0 0
0:00:00.00 460582 N 0 0 0
0:00:00.00 460935 N 0 0 0
0:00:00.00 461270 N 0 0 0
0:00:00.00 461646 N 0 0 0
0:00:00.00 462055 N 0 0 0
0:00:00.00 462436 N 0 0 0
0:00:00.00 462825 N 0 0 0
0:00:00.00 463210 N 0 0 0
0:00:00.00 463594 N 0 0 0
0:00:00.00 463964 N 0 0 0
0:00:00.00 464357 N 0 0 0
0:00:00.00 464753 N 0 0 0
0:00:00.00 465134 N 0 0 0
0:00:00.00 465503 N 0 0 0
0:00:00.00 465880 N 0 0 0
0:00:00.00 466295 N 0 0 0
0:00:00.00 466700 N 0 0 0
0:00:00.00 467086 N 0 0 0
0:00:00.00 467451 N 0 0 0
0:00:00.00 467843 N 0 0 0
0:00:00.00 468248 N 0 0 0
0:00:00.00 468625 N 0 0 0
0:00:00.00 469010 N 0 0 0
0:00:00.00 469379 N 0 0 0
0:00:00.00 469760 N 0 0 0
0:00:00.00 470138 N 0 0 0
0:00:00.00 470524 N 0 0 0
0:00:00.00 470923 N 0 0 0
0:00:00.00 471280 N 0 0 0
0:00:00.00 471631 N 0 0 0
0:00:00.00 472016 N 0 0 0
0:00:00.00 472405 N 0 0 0
0:00:00.00 472777 N 0 0 0
0:00:00.00 473161 N 0 0 0
0:00:00.00 473528 N 0 0 0
0:00:00.00 473893 N 0 0 0
0:00:00.00 474239 N 0 0 0
0:00:00.00 474595 N 0 0 0
0:00:00.00 474988 N 0 0 0
0:00:00.00 475403 N 0 0 0
0:00:00.00 475810 N 0 0 0
0:00:00.00 476210 N 0 0 0
0:00:00.00 476608 N 0 0 0
0:00:00.00 477011 N 0 0 0
0:00:00.00 477416 N 0 0 0
0:00:00.00 477810 N 0 0 0
0:00:00.00 478186 N 0 0 0
0:00:00.00 478548 N 0 0 0
0:00:00.00 478946 N 0 0 0
0:00:00.00 479349 N 0 0 0
0:00:00.00 479741 N 0 0 0
0:00:00.00 480157 N 0 0 0
0:00:00.00 480526 N 0 0 0
0:00:00.00 480892 N 0 0 0
0:00:00.00 481279 N 0 0 0
0:00:00.00 481685 N 0 0 0
0:00:00.00 482103 N 0 0 0
0:00:00.00 482468 N 0 0 0
0:00:00.00 482859 N 0 0 0
0:00:00.00 483250 N 0 0 0
0:00:00.00 483660 N 0 0 0
0:00:00.00 484025 N 0 0 0
0:00:00.00 484387 N 0 0 0
0:00:00.00 484754 N 0 0 0
0:00:00.00 485114 N 0 0 0
0:00:00.00 485455 N 0 0 0
0:00:00.00 485815 N 0 0 0
0:00:00.00 486203 N 0 0 0
0:00:00.00 486576 N 0 0 0
0:00:00.00 486922 N 0 0 0
0:00:00.00 487282 N 0 0 0
0:00:00.00 487634 N 0 0 0
0:00:00.00 488039 N 0 0 0
0:00:00.00 488407 N 0 0 0
0:00:00.00 488777 N 0 0 0
0:00:00.00 489159 N 0 0 0
0:00:00.00 489515 N 0 0 0
0:00:00.00 489906 N 0 0 0
0:00:00.00 490300 N 0 0 0
0:00:00.00 490658 N 0 0 0
0:00:00.00 491008 N 0 0 0
0:00:00.00 491366 N 0 0 0
0:00:00.00 491726 N 0 0 0
0:00:00.00 492106 N 0 0 0
0:00:00.00 492498 N 0 0 0
0:00:00.00 492881 N 0 0 0
0:00:00.00 493245 N 0 0 0
0:00:00.00 493582 N 0 0 0
0:00:00.00 493929 N 0 0 0
0:00:00.00 494289 N 0 0 0
0:00:00.00 494663 N 0 0 0
0:00:00.00 495054 N 0 0 0
0:00:00.00 495412 N 0 0 0
0:00:00.00 495772 N 0 0 0
0:00:00.00 496150 N 0 0 0
0:00:00.00 496537 N 0 0 0
0:00:00.00 496928 N 0 0 0
0:00:00.00 497311 N 0 0 0
0:00:00.00 497671 N 0 0 0
0:00:00.00 498015 N 0 0 0
0:00:00.00 498353 N 0 0 0
0:00:00.00 498710 N 0 0 0
0:00:00.00 499063 N 0 0 0
0:00:00.00 499430 N 0 0 0
0:00:00.00 499792 N 0 0 0
0:00:00.00 500132 N 0 0 0
0:00:00.00 500497 N 0 0 0
0:00:00.00 500893 N 0 0 0
0:00:00.00 501268 N 0 0 0
0:00:00.00 501646 N 0 0 0
0:00:00.00 502006 N 0 0 0
0:00:00.00 502351 N 0 0 0
0:00:00.00 502720 N 0 0 0
0:00:00.00 503122 N 0 0 0
0:00:00.00 503523 N 0 0 0
0:00:00.00 503919 N 0 0 0
0:00:00.00 504293 N 0 0 0
0:00:00.00 504700 N 0 0 0
0:00:00.00 505109 N 0 0 0
0:00:00.00 505517 N 0 0 0
0:00:00.00 505915 N 0 0 0
0:00:00.00 506282 N 0 0 0
0:00:00.00 506657 N 0 0 0
0:00:00.00 507038 N 0 0 0
0:00:00.00 507438 N 0 0 0
0:00:00.00 507859 N 0 0 0
0:00:00.00 508241 N 0 0 0
0:00:00.00 508633 N 0 0 0
0:00:00.00 509017 N 0 0 0
0:00:00.00 509414 N 0 0 0
0:00:00.00 509828 N 0 0 0
0:00:00.00 510217 N 0 0 0
0:00:00.00 510602 N 0 0 0
0:00:00.00 510953 N 0 0 0
0:00:00.00 511348 N 0 0 0
0:00:00.00 511749 N 0 0 0
0:00:00.00 512125 N 0 0 0
0:00:00.00 512473 N 0 0 0
0:00:00.00 512788 N 0 0 0
0:00:00.00 513097 N 0 0 0
0:00:00.00 513401 N 0 0 0
0:00:00.00 513720 N 0 0 0
0:00:00.00 514035 N 0 0 0
0:00:00.00 514336 N 0 0 0
0:00:00.00 514638 N 0 0 0
0:00:00.00 514928 N 0 0 0
0:00:00.00 515228 N 0 0 0
0:00:00.00 515533 N 0 0 0
0:00:00.00 515842 N 0 0 0
0:00:00.00 516145 N 0 0 0
0:00:00.00 516452 N 0 0 0
0:00:00.00 516778 N 0 0 0
0:00:00.00 517392 N 0 0 0
0:00:00.00 517707 N 0 0 0
0:00:00.00 518362 N 0 0 0
0:00:00.00 518711 N 0 0 0
0:00:00.00 518902 N 0 0 0
0:00:00.00 519327 N 0 0 0
0:00:00.00 519516 N 0 0 0
0:00:00.00 519948 N 0 0 0
0:00:00.00 520175 N 0 0 0
0:00:00.00 520592 N 0 0 0
0:00:00.00 520787 N 0 0 0
0:00:00.00 521410 N 0 0 0
0:00:00.00 521584 N 0 0 0
0:00:00.00 522027 N 0 0 0
0:00:00.00 522225 N 0 0 0
0:00:00.00 522691 N 0 0 0
0:00:00.00 522889 N 0 0 0
0:00:00.00 523339 N 0 0 0
0:00:00.00 523514 N 0 0 0
0:00:00.00 523933 N 0 0 0
0:00:00.00 524115 N 0 0 0
0:00:00.00 524597 N 0 0 0
0:00:00.00 524797 N 0 0 0
0:00:00.00 525254 N 0 0 0
0:00:00.00 525442 N 0 0 0
0:00:00.00 525886 N 0 0 0
0:00:00.00 526064 N 0 0 0
0:00:00.00 526518 N 0 0 0
0:00:00.00 526714 N 0 0 0
0:00:00.00 527180 N 0 0 0
0:00:00.00 527375 N 0 0 0
0:00:00.00 527787 N 0 0 0
0:00:00.00 527980 N 0 0 0
0:00:00.00 528383 N 0 0 0
0:00:00.00 528568 N 0 0 0
0:00:00.00 529020 N 0 0 0
0:00:00.00 529216 N 0 0 0
0:00:00.00 529672 N 0 0 0
0:00:00.00 529852 N 0 0 0
0:00:00.00 530285 N 0 0 0
0:00:00.00 530465 N 0 0 0
0:00:00.00 530912 N 0 0 0
0:00:00.00 531122 N 0 0 0
0:00:00.00 531590 N 0 0 0
0:00:00.00 531783 N 0 0 0
0:00:00.00 532224 N 0 0 0
0:00:00.00 532402 N 0 0 0
0:00:00.00 532811 N 0 0 0
0:00:00.00 533002 N 0 0 0
0:00:00.00 533448 N 0 0 0
0:00:00.00 533641 N 0 0 0
0:00:00.00 534071 N 0 0 0
0:00:00.00 534249 N 0 0 0
0:00:00.00 534634 N 0 0 0
0:00:00.00 534820 N 0 0 0
0:00:00.00 535261 N 0 0 0
0:00:00.00 535448 N 0 0 0
0:00:00.00 535903 N 0 0 0
0:00:00.00 536090 N 0 0 0
0:00:00.00 536519 N 0 0 0
0:00:00.00 536702 N 0 0 0
0:00:00.00 537160 N 0 0 0
0:00:00.00 537345 N 0 0 0
0:00:00.00 537826 N 0 0 0
0:00:00.00 538020 N 0 0 0
0:00:00.00 538457 N 0 0 0
0:00:00.00 538645 N 0 0 0
0:00:00.00 539066 N 0 0 0
0:00:00.00 539248 N 0 0 0
0:00:00.00 539703 N 0 0 0
0:00:00.00 540036 N 0 0 0
0:00:00.00 540234 N 0 0 0
0:00:00.00 540869 N 0 0 0
0:00:00.00 541046 N 0 0 0
0:00:00.00 541489 N 0 0 0
0:00:00.00 541809 N 0 0 0
0:00:00.00 542011 N 0 0 0
0:00:00.00 542660 N 0 0 0
0:00:00.00 542840 N 0 0 0
0:00:00.00 543274 N 0 0 0
0:00:00.00 543452 N 0 0 0
0:00:00.00 543906 N 0 0 0
0:00:00.00 544115 N 0 0 0
0:00:00.00 544570 N 0 0 0
0:00:00.00 544759 N 0 0 0
0:00:00.00 545195 N 0 0 0
0:00:00.00 545375 N 0 0 0
0:00:00.00 545787 N 0 0 0
0:00:00.00 545989 N 0 0 0
0:00:00.00 546631 N 0 0 0
0:00:00.00 546817 N 0 0 0
0:00:00.00 547268 N 0 0 0
0:00:00.00 547448 N 0 0 0
0:00:00.00 547862 N 0 0 0
0:00:00.00 548048 N 0 0 0
0:00:00.00 548507 N 0 0 0
0:00:00.00 548701 N 0 0 0
0:00:00.00 549133 N 0 0 0
0:00:00.00 549315 N 0 0 0
0:00:00.00 549736 N 0 0 0
0:00:00.00 549920 N 0 0 0
0:00:00.00 550357 N 0 0 0
0:00:00.00 550553 N 0 0 0
0:00:00.00 550993 N 0 0 0
0:00:00.00 551185 N 0 0 0
0:00:00.00 551597 N 0 0 0
0:00:00.00 551779 N 0 0 0
0:00:00.00 552197 N 0 0 0
0:00:00.00 552384 N 0 0 0
0:00:00.00 552839 N 0 0 0
0:00:00.00 553039 N 0 0 0
0:00:00.00 553493 N 0 0 0
0:00:00.00 553678 N 0 0 0
0:00:00.00 554117 N 0 0 0
0:00:00.00 554301 N 0 0 0
0:00:00.00 554758 N 0 0 0
0:00:00.00 554958 N 0 0 0
0:00:00.00 555426 N 0 0 0
0:00:00.00 555615 N 0 0 0
0:00:00.00 556034 N 0 0 0
0:00:00.00 556220 N 0 0 0
0:00:00.00 556677 N 0 0 0
0:00:00.00 556868 N 0 0 0
0:00:00.00 557336 N 0 0 0
0:00:00.00 557532 N 0 0 0
0:00:00.00 557973 N 0 0 0
0:00:00.00 558592 N 0 0 0
0:00:00.00 558778 N 0 0 0
0:00:00.00 559249 N 0 0 0
0:00:00.00 559453 N 0 0 0
0:00:00.00 559922 N 0 0 0
0:00:00.00 560108 N 0 0 0
0:00:00.00 560729 N 0 0 0
0:00:00.00 560920 N 0 0 0
0:00:00.00 561382 N 0 0 0
0:00:00.00 561584 N 0 0 0
0:00:00.00 562230 N 0 0 0
0:00:00.00 562410 N 0 0 0
0:00:00.00 562880 N 0 0 0
0:00:00.00 563067 N 0 0 0
0:00:00.00 563758 N 0 0 0
0:00:00.00 564145 N 0 0 0
0:00:00.00 564496 N 0 0 0
0:00:00.00 564689 N 0 0 0
0:00:00.00 565339 N 0 0 0
0:00:00.00 565756 N 0 0 0
0:00:00.00 565960 N 0 0 0
0:00:00.00 566620 N 0 0 0
0:00:00.00 566800 N 0 0 0
0:00:00.00 567457 N 0 0 0
0:00:00.00 567851 N 0 0 0
0:00:00.00 568199 N 0 0 0
0:00:00.00 568552 N 0 0 0
0:00:00.00 568760 N 0 0 0
0:00:00.00 569381 N 0 0 0
0:00:00.00 569790 N 0 0 0
0:00:00.00 570200 N 0 0 0
0:00:00.00 570595 N 0 0 0
0:00:00.00 570978 N 0 0 0
0:00:00.00 571390 N 0 0 0
0:00:00.00 571770 N 0 0 0
0:00:00.00 572130 N 0 0 0
0:00:00.00 572497 N 0 0 0
0:00:00.00 572899 N 0 0 0
0:00:00.00 573260 N 0 0 0
0:00:00.00 573653 N 0 0 0
0:00:00.00 574070 N 0 0 0
0:00:00.00 574468 N 0 0 0
0:00:00.00 574895 N 0 0 0
0:00:00.00 575311 N 0 0 0
0:00:00.00 575737 N 0 0 0
0:00:00.00 576185 N 0 0 0
0:00:00.00 576621 N 0 0 0
0:00:00.00 577062 N 0 0 0
0:00:00.00 577458 N 0 0 0
0:00:00.00 577861 N 0 0 0
0:00:00.00 578241 N 0 0 0
0:00:00.00 578657 N 0 0 0
0:00:00.00 579103 N 0 0 0
0:00:00.00 579532 N 0 0 0
0:00:00.00 579874 N 0 0 0
0:00:00.00 580226 N 0 0 0
0:00:00.00 580604 N 0 0 0
0:00:00.00 580954 N 0 0 0
0:00:00.00 581292 N 0 0 0
0:00:00.00 581506 N 0 0 0
0:00:00.00 582134 N 0 0 0
0:00:00.00 582480 N 0 0 0
0:00:00.00 582836 N 0 0 0
0:00:00.00 583182 N 0 0 0
0:00:00.00 583393 N 0 0 0
0:00:00.00 584064 N 0 0 0
0:00:00.00 584460 N 0 0 0
0:00:00.00 584865 N 0 0 0
0:00:00.00 585077 N 0 0 0
0:00:00.00 585778 N 0 0 0
0:00:00.00 586184 N 0 0 0
0:00:00.00 586379 N 0 0 0
0:00:00.00 587072 N 0 0 0
0:00:00.00 587509 N 0 0 0
0:00:00.00 587716 N 0 0 0
0:00:00.00 588393 N 0 0 0
0:00:00.00 588830 N 0 0 0
0:00:00.00 589025 N 0 0 0
0:00:00.00 589234 N 0 0 0
0:00:00.00 589757 N 0 0 0
0:00:00.00 589950 N 0 0 0
0:00:00.00 590618 N 0 0 0
0:00:00.00 591021 N 0 0 0
0:00:00.00 591217 N 0 0 0
0:00:00.00 591926 N 0 0 0
0:00:00.00 592351 N 0 0 0
0:00:00.00 592542 N 0 0 0
0:00:00.00 593213 N 0 0 0
0:00:00.00 593647 N 0 0 0
0:00:00.00 593851 N 0 0 0
0:00:00.00 594549 N 0 0 0
0:00:00.00 594965 N 0 0 0
0:00:00.00 595157 N 0 0 0
0:00:00.00 595845 N 0 0 0
0:00:00.00 596304 N 0 0 0
0:00:00.00 596502 N 0 0 0
0:00:00.00 597173 N 0 0 0
0:00:00.00 597366 N 0 0 0
0:00:00.00 598061 N 0 0 0
0:00:00.00 598522 N 0 0 0
0:00:00.00 598720 N 0 0 0
0:00:00.00 599387 N 0 0 0
0:00:00.00 599566 N 0 0 0
0:00:00.00 600277 N 0 0 0
0:00:00.00 600707 N 0 0 0
0:00:00.00 600908 N 0 0 0
0:00:00.00 601571 N 0 0 0
0:00:00.00 601985 N 0 0 0
0:00:00.00 602188 N 0 0 0
0:00:00.00 602901 N 0 0 0
0:00:00.00 603297 N 0 0 0
0:00:00.00 603490 N 0 0 0
0:00:00.00 604147 N 0 0 0
0:00:00.00 604570 N 0 0 0
0:00:00.00 604775 N 0 0 0
0:00:00.00 605452 N 0 0 0
0:00:00.00 605833 N 0 0 0
0:00:00.00 606026 N 0 0 0
0:00:00.00 606699 N 0 0 0
0:00:00.00 607133 N 0 0 0
0:00:00.00 607333 N 0 0 0
0:00:00.00 607993 N 0 0 0
0:00:00.00 608182 N 0 0 0
0:00:00.00 608854 N 0 0 0
0:00:00.00 609046 N 0 0 0
0:00:00.00 609709 N 0 0 0
0:00:00.00 609910 N 0 0 0
0:00:00.00 610308 N 0 0 0
0:00:00.00 610511 N 0 0 0
0:00:00.00 610688 N 0 0 0
0:00:00.00 611165 N 0 0 0
0:00:00.00 611357 N 0 0 0
0:00:00.00 611991 N 0 0 0
0:00:00.00 612175 N 0 0 0
0:00:00.00 612630 N 0 0 0
0:00:00.00 612824 N 0 0 0
0:00:00.00 613033 N 0 0 0
0:00:00.00 613517 N 0 0 0
0:00:00.00 613708 N 0 0 0
0:00:00.00 614171 N 0 0 0
0:00:00.00 614511 N 0 0 0
0:00:00.00 614698 N 0 0 0
0:00:00.00 615161 N 0 0 0
0:00:00.00 615528 N 0 0 0
0:00:00.00 615735 N 0 0 0
0:00:00.00 616212 N 0 0 0
0:00:00.00 616565 N 0 0 0
0:00:00.00 616754 N 0 0 0
0:00:00.00 617449 N 0 0 0
0:00:00.00 617879 N 0 0 0
0:00:00.00 618077 N 0 0 0
0:00:00.00 618561 N 0 0 0
0:00:00.00 618759 N 0 0 0
0:00:00.00 619450 N 0 0 0
0:00:00.00 619880 N 0 0 0
0:00:00.00 620084 N 0 0 0
0:00:00.00 620775 N 0 0 0
0:00:00.00 621146 N 0 0 0
0:00:00.00 621344 N 0 0 0
0:00:00.00 622062 N 0 0 0
0:00:00.00 622476 N 0 0 0
0:00:00.00 622845 N 0 0 0
0:00:00.00 623043 N 0 0 0
0:00:00.00 623723 N 0 0 0
0:00:00.00 624121 N 0 0 0
0:00:00.00 624343 N 0 0 0
0:00:00.00 625018 N 0 0 0
0:00:00.00 625370 N 0 0 0
0:00:00.00 625561 N 0 0 0
0:00:00.00 626017 N 0 0 0
0:00:00.00 626229 N 0 0 0
0:00:00.00 626675 N 0 0 0
0:00:00.00 626983 N 0 0 0
0:00:00.00 627318 N 0 0 0
0:00:00.00 627628 N 0 0 0
0:00:00.00 627836 N 0 0 0
0:00:00.00 628493 N 0 0 0
0:00:00.00 628688 N 0 0 0
0:00:00.00 629116 N 0 0 0
0:00:00.00 629404 N 0 0 0
0:00:00.00 629680 N 0 0 0
0:00:00.00 629971 N 0 0 0
0:00:00.00 630259 N 0 0 0
0:00:00.00 630569 N 0 0 0
0:00:00.00 630776 N 0 0 0
0:00:00.00 631400 N 0 0 0
0:00:00.00 631600 N 0 0 0
0:00:00.00 631982 N 0 0 0
0:00:00.00 632306 N 0 0 0
0:00:00.00 632513 N 0 0 0
0:00:00.00 633130 N 0 0 0
0:00:00.00 633317 N 0 0 0
0:00:00.00 633703 N 0 0 0
0:00:00.00 633886 N 0 0 0
0:00:00.00 634469 N 0 0 0
0:00:00.00 634660 N 0 0 0
0:00:00.00 635076 N 0 0 0
0:00:00.00 635270 N 0 0 0
0:00:00.00 635656 N 0 0 0
0:00:00.00 635839 N 0 0 0
0:00:00.00 636228 N 0 0 0
0:00:00.00 636408 N 0 0 0
0:00:00.00 636840 N 0 0 0
0:00:00.00 637040 N 0 0 0
0:00:00.00 637472 N 0 0 0
0:00:00.00 637664 N 0 0 0
0:00:00.00 638078 N 0 0 0
0:00:00.00 638258 N 0 0 0
0:00:00.00 638662 N 0 0 0
0:00:00.00 638861 N 0 0 0
0:00:00.00 639301 N 0 0 0
0:00:00.00 639493 N 0 0 0
0:00:00.00 639898 N 0 0 0
0:00:00.00 640089 N 0 0 0
0:00:00.00 640692 N 0 0 0
0:00:00.00 640879 N 0 0 0
0:00:00.00 641308 N 0 0 0
0:00:00.00 641617 N 0 0 0
0:00:00.00 641812 N 0 0 0
0:00:00.00 641992 N 0 0 0
0:00:00.00 642402 N 0 0 0
0:00:00.00 642575 N 0 0 0
0:00:00.00 642969 N 0 0 0
0:00:00.00 643160 N 0 0 0
0:00:00.00 643559 N 0 0 0
0:00:00.00 644139 N 0 0 0
0:00:00.00 644413 N 0 0 0
0:00:00.00 644602 N 0 0 0
0:00:00.00 644771 N 0 0 0
0:00:00.00 645187 N 0 0 0
0:00:00.00 645800 N 0 0 0
0:00:00.00 645998 N 0 0 0
0:00:00.00 646616 N 0 0 0
0:00:00.00 646915 N 0 0 0
0:00:00.00 647222 N 0 0 0
0:00:00.00 647570 N 0 0 0
0:00:00.00 648265 N 0 0 0
0:00:00.00 648621 N 0 0 0
0:00:00.00 648968 N 0 0 0
0:00:00.00 649165 N 0 0 0
0:00:00.00 649791 N 0 0 0
