0:00:00.00 10 N 0 0 0
0:00:00.00 272 N 0 0 0
0:00:00.00 288 N 0 0 0
0:00:00.00 569 N 0 0 0
0:00:00.00 885 N 0 0 0
0:00:00.00 902 N 0 0 0
0:00:00.00 1206 N 0 0 0
0:00:00.00 1221 N 0 0 0
0:00:00.00 1520 N 0 0 0
0:00:00.00 1533 N 0 0 0
0:00:00.00 1820 N 0 0 0
0:00:00.00 1834 N 0 0 0
0:00:00.00 2119 N 0 0 0
0:00:00.00 2131 N 0 0 0
0:00:00.00 2415 N 0 0 0
0:00:00.00 2430 N 0 0 0
0:00:00.00 2721 N 0 0 0
0:00:00.00 2737 N 0 0 0
0:00:00.00 3034 N 0 0 0
0:00:00.00 3048 N 0 0 0
0:00:00.00 3348 N 0 0 0
0:00:00.00 3361 N 0 0 0
0:00:00.00 3662 N 0 0 0
0:00:00.00 3675 N 0 0 0
0:00:00.00 3972 N 0 0 0
0:00:00.00 3986 N 0 0 0
0:00:00.00 4268 N 0 0 0
0:00:00.00 4280 N 0 0 0
0:00:00.00 4560 N 0 0 0
0:00:00.00 4572 N 0 0 0
0:00:00.00 4860 N 0 0 0
0:00:00.00 4873 N 0 0 0
0:00:00.00 4900 N 0 0 0
0:00:00.00 5170 N 0 0 0
0:00:00.00 5187 N 0 0 0
0:00:00.00 5490 N 0 0 0
0:00:00.00 5509 N 0 0 0
0:00:00.00 5804 N 0 0 0
0:00:00.00 5824 N 0 0 0
0:00:00.00 6110 N 0 0 0
0:00:00.00 6125 N 0 0 0
0:00:00.00 6408 N 0 0 0
0:00:00.00 6423 N 0 0 0
0:00:00.00 6712 N 0 0 0
0:00:00.00 6725 N 0 0 0
0:00:00.00 7013 N 0 0 0
0:00:00.00 7029 N 0 0 0
0:00:00.00 7318 N 0 0 0
0:00:00.00 7335 N 0 0 0
0:00:00.00 7633 N 0 0 0
0:00:00.00 7651 N 0 0 0
0:00:00.00 7946 N 0 0 0
0:00:00.00 7963 N 0 0 0
0:00:00.00 8255 N 0 0 0
0:00:00.00 8270 N 0 0 0
0:00:00.00 8551 N 0 0 0
0:00:00.00 8569 N 0 0 0
0:00:00.00 8846 N 0 0 0
0:00:00.00 8859 N 0 0 0
0:00:00.00 9143 N 0 0 0
0:00:00.00 9158 N 0 0 0
0:00:00.00 9462 N 0 0 0
0:00:00.00 9480 N 0 0 0
0:00:00.00 9781 N 0 0 0
0:00:00.00 9797 N 0 0 0
0:00:00.00 10090 N 0 0 0
0:00:00.00 10105 N 0 0 0
0:00:00.00 10399 N 0 0 0
0:00:00.00 10414 N 0 0 0
0:00:00.00 10694 N 0 0 0
0:00:00.00 10711 N 0 0 0
0:00:00.00 10994 N 0 0 0
0:00:00.00 11011 N 0 0 0
0:00:00.00 11295 N 0 0 0
0:00:00.00 11311 N 0 0 0
0:00:00.00 11604 N 0 0 0
0:00:00.00 11619 N 0 0 0
0:00:00.00 11652 N 0 0 0
0:00:00.00 11917 N 0 0 0
0:00:00.00 11935 N 0 0 0
0:00:00.00 12240 N 0 0 0
0:00:00.00 12546 N 0 0 0
0:00:00.00 12559 N 0 0 0
0:00:00.00 12839 N 0 0 0
0:00:00.00 13135 N 0 0 0
0:00:00.00 13430 N 0 0 0
0:00:00.00 13446 N 0 0 0
0:00:00.00 13746 N 0 0 0
0:00:00.00 13762 N 0 0 0
0:00:00.00 14068 N 0 0 0
0:00:00.00 14083 N 0 0 0
0:00:00.00 14382 N 0 0 0
0:00:00.00 14396 N 0 0 0
0:00:00.00 14687 N 0 0 0
0:00:00.00 14701 N 0 0 0
0:00:00.00 14991 N 0 0 0
0:00:00.00 15007 N 0 0 0
0:00:00.00 15289 N 0 0 0
0:00:00.00 15303 N 0 0 0
0:00:00.00 15583 N 0 0 0
0:00:00.00 15889 N 0 0 0
0:00:00.00 16205 N 0 0 0
0:00:00.00 16220 N 0 0 0
0:00:00.00 16521 N 0 0 0
0:00:00.00 16835 N 0 0 0
0:00:00.00 16848 N 0 0 0
0:00:00.00 17129 N 0 0 0
0:00:00.00 17421 N 0 0 0
0:00:00.00 17437 N 0 0 0
0:00:00.00 17727 N 0 0 0
0:00:00.00 17744 N 0 0 0
0:00:00.00 18039 N 0 0 0
0:00:00.00 18055 N 0 0 0
0:00:00.00 18356 N 0 0 0
0:00:00.00 18370 N 0 0 0
0:00:00.00 18668 N 0 0 0
0:00:00.00 18976 N 0 0 0
0:00:00.00 19277 N 0 0 0
0:00:00.00 19290 N 0 0 0
0:00:00.00 19576 N 0 0 0
0:00:00.00 19873 N 0 0 0
0:00:00.00 19887 N 0 0 0
0:00:00.00 20173 N 0 0 0
0:00:00.00 20494 N 0 0 0
0:00:00.00 20514 N 0 0 0
0:00:00.00 20814 N 0 0 0
0:00:00.00 20828 N 0 0 0
0:00:00.00 21120 N 0 0 0
0:00:00.00 21140 N 0 0 0
0:00:00.00 21417 N 0 0 0
0:00:00.00 21431 N 0 0 0
0:00:00.00 21715 N 0 0 0
0:00:00.00 21727 N 0 0 0
0:00:00.00 22015 N 0 0 0
0:00:00.00 22029 N 0 0 0
0:00:00.00 22328 N 0 0 0
0:00:00.00 22348 N 0 0 0
0:00:00.00 22643 N 0 0 0
0:00:00.00 22662 N 0 0 0
0:00:00.00 22956 N 0 0 0
0:00:00.00 23267 N 0 0 0
0:00:00.00 23571 N 0 0 0
0:00:00.00 23585 N 0 0 0
0:00:00.00 23867 N 0 0 0
0:00:00.00 23880 N 0 0 0
0:00:00.00 24161 N 0 0 0
0:00:00.00 24179 N 0 0 0
0:00:00.00 24466 N 0 0 0
0:00:00.00 24483 N 0 0 0
0:00:00.00 24779 N 0 0 0
0:00:00.00 24798 N 0 0 0
0:00:00.00 25101 N 0 0 0
0:00:00.00 25119 N 0 0 0
0:00:00.00 25412 N 0 0 0
0:00:00.00 25426 N 0 0 0
0:00:00.00 25710 N 0 0 0
0:00:00.00 25724 N 0 0 0
0:00:00.00 26005 N 0 0 0
0:00:00.00 26314 N 0 0 0
0:00:00.00 26330 N 0 0 0
0:00:00.00 26621 N 0 0 0
0:00:00.00 26636 N 0 0 0
0:00:00.00 26930 N 0 0 0
0:00:00.00 26946 N 0 0 0
0:00:00.00 27246 N 0 0 0
0:00:00.00 27261 N 0 0 0
0:00:00.00 27553 N 0 0 0
0:00:00.00 27568 N 0 0 0
0:00:00.00 27854 N 0 0 0
0:00:00.00 27871 N 0 0 0
0:00:00.00 28153 N 0 0 0
0:00:00.00 28166 N 0 0 0
0:00:00.00 28450 N 0 0 0
0:00:00.00 28463 N 0 0 0
0:00:00.00 28752 N 0 0 0
0:00:00.00 28765 N 0 0 0
0:00:00.00 29075 N 0 0 0
0:00:00.00 29092 N 0 0 0
0:00:00.00 29390 N 0 0 0
0:00:00.00 29408 N 0 0 0
0:00:00.00 29698 N 0 0 0
0:00:00.00 29713 N 0 0 0
0:00:00.00 30000 N 0 0 0
0:00:00.00 30014 N 0 0 0
0:00:00.00 30047 N 0 0 0
0:00:00.00 30295 N 0 0 0
0:00:00.00 30316 N 0 0 0
0:00:00.00 30598 N 0 0 0
0:00:00.00 30613 N 0 0 0
0:00:00.00 30907 N 0 0 0
0:00:00.00 30922 N 0 0 0
0:00:00.00 31219 N 0 0 0
0:00:00.00 31237 N 0 0 0
0:00:00.00 31530 N 0 0 0
0:00:00.00 31549 N 0 0 0
0:00:00.00 31848 N 0 0 0
0:00:00.00 31864 N 0 0 0
0:00:00.00 32101 N 0 0 0
0:00:00.00 32414 N 0 0 0
0:00:00.00 32696 N 0 0 0
0:00:00.00 32711 N 0 0 0
0:00:00.00 33000 N 0 0 0
0:00:00.00 33015 N 0 0 0
0:00:00.00 33315 N 0 0 0
0:00:00.00 33332 N 0 0 0
0:00:00.00 33637 N 0 0 0
0:00:00.00 33653 N 0 0 0
0:00:00.00 33681 N 0 0 0
0:00:00.00 33948 N 0 0 0
0:00:00.00 33966 N 0 0 0
0:00:00.00 34249 N 0 0 0
0:00:00.00 34263 N 0 0 0
0:00:00.00 34547 N 0 0 0
0:00:00.00 34563 N 0 0 0
0:00:00.00 34850 N 0 0 0
0:00:00.00 34865 N 0 0 0
0:00:00.00 35155 N 0 0 0
0:00:00.00 35168 N 0 0 0
0:00:00.00 35461 N 0 0 0
0:00:00.00 35478 N 0 0 0
0:00:00.00 35779 N 0 0 0
0:00:00.00 35794 N 0 0 0
0:00:00.00 36091 N 0 0 0
0:00:00.00 36106 N 0 0 0
0:00:00.00 36398 N 0 0 0
0:00:00.00 36412 N 0 0 0
0:00:00.00 36692 N 0 0 0
0:00:00.00 36705 N 0 0 0
0:00:00.00 36985 N 0 0 0
0:00:00.00 36997 N 0 0 0
0:00:00.00 37290 N 0 0 0
0:00:00.00 37304 N 0 0 0
0:00:00.00 37612 N 0 0 0
0:00:00.00 37627 N 0 0 0
0:00:00.00 37930 N 0 0 0
0:00:00.00 37945 N 0 0 0
0:00:00.00 38240 N 0 0 0
0:00:00.00 38254 N 0 0 0
0:00:00.00 38545 N 0 0 0
0:00:00.00 38557 N 0 0 0
0:00:00.00 38839 N 0 0 0
0:00:00.00 38851 N 0 0 0
0:00:00.00 39138 N 0 0 0
0:00:00.00 39438 N 0 0 0
0:00:00.00 39451 N 0 0 0
0:00:00.00 39747 N 0 0 0
0:00:00.00 39761 N 0 0 0
0:00:00.00 40065 N 0 0 0
0:00:00.00 40079 N 0 0 0
0:00:00.00 40387 N 0 0 0
0:00:00.00 40400 N 0 0 0
0:00:00.00 40689 N 0 0 0
0:00:00.00 40704 N 0 0 0
0:00:00.00 40983 N 0 0 0
0:00:00.00 40994 N 0 0 0
0:00:00.00 41278 N 0 0 0
0:00:00.00 41291 N 0 0 0
0:00:00.00 41578 N 0 0 0
0:00:00.00 41593 N 0 0 0
0:00:00.00 41896 N 0 0 0
0:00:00.00 41912 N 0 0 0
0:00:00.00 42215 N 0 0 0
0:00:00.00 42229 N 0 0 0
0:00:00.00 42528 N 0 0 0
0:00:00.00 42541 N 0 0 0
0:00:00.00 42832 N 0 0 0
0:00:00.00 42843 N 0 0 0
0:00:00.00 43134 N 0 0 0
0:00:00.00 43147 N 0 0 0
0:00:00.00 43430 N 0 0 0
0:00:00.00 43442 N 0 0 0
0:00:00.00 43727 N 0 0 0
0:00:00.00 43740 N 0 0 0
0:00:00.00 44036 N 0 0 0
0:00:00.00 44050 N 0 0 0
0:00:00.00 44351 N 0 0 0
0:00:00.00 44365 N 0 0 0
0:00:00.00 44668 N 0 0 0
0:00:00.00 44684 N 0 0 0
0:00:00.00 44976 N 0 0 0
0:00:00.00 44989 N 0 0 0
0:00:00.00 45273 N 0 0 0
0:00:00.00 45286 N 0 0 0
0:00:00.00 45567 N 0 0 0
0:00:00.00 45581 N 0 0 0
0:00:00.00 45877 N 0 0 0
0:00:00.00 45893 N 0 0 0
0:00:00.00 46191 N 0 0 0
0:00:00.00 46206 N 0 0 0
0:00:00.00 46502 N 0 0 0
0:00:00.00 46517 N 0 0 0
0:00:00.00 46812 N 0 0 0
0:00:00.00 46827 N 0 0 0
0:00:00.00 47117 N 0 0 0
0:00:00.00 47417 N 0 0 0
0:00:00.00 47715 N 0 0 0
0:00:00.00 48014 N 0 0 0
0:00:00.00 48027 N 0 0 0
0:00:00.00 48319 N 0 0 0
0:00:00.00 48646 N 0 0 0
0:00:00.00 48959 N 0 0 0
0:00:00.00 48976 N 0 0 0
0:00:00.00 49260 N 0 0 0
0:00:00.00 49559 N 0 0 0
0:00:00.00 49575 N 0 0 0
0:00:00.00 49855 N 0 0 0
0:00:00.00 49870 N 0 0 0
0:00:00.00 50158 N 0 0 0
0:00:00.00 50472 N 0 0 0
0:00:00.00 50787 N 0 0 0
0:00:00.00 50805 N 0 0 0
0:00:00.00 51098 N 0 0 0
0:00:00.00 51116 N 0 0 0
0:00:00.00 51412 N 0 0 0
0:00:00.00 51428 N 0 0 0
0:00:00.00 51708 N 0 0 0
0:00:00.00 52002 N 0 0 0
0:00:00.00 52015 N 0 0 0
0:00:00.00 52298 N 0 0 0
0:00:00.00 52606 N 0 0 0
0:00:00.00 52622 N 0 0 0
0:00:00.00 52926 N 0 0 0
0:00:00.00 53248 N 0 0 0
0:00:00.00 53263 N 0 0 0
0:00:00.00 53295 N 0 0 0
0:00:00.00 53554 N 0 0 0
0:00:00.00 53570 N 0 0 0
0:00:00.00 53848 N 0 0 0
0:00:00.00 54150 N 0 0 0
0:00:00.00 54166 N 0 0 0
0:00:00.00 54452 N 0 0 0
0:00:00.00 54760 N 0 0 0
0:00:00.00 54773 N 0 0 0
0:00:00.00 55071 N 0 0 0
0:00:00.00 55086 N 0 0 0
0:00:00.00 55387 N 0 0 0
0:00:00.00 55401 N 0 0 0
0:00:00.00 55696 N 0 0 0
0:00:00.00 55711 N 0 0 0
0:00:00.00 55999 N 0 0 0
0:00:00.00 56292 N 0 0 0
0:00:00.00 56585 N 0 0 0
0:00:00.00 56897 N 0 0 0
0:00:00.00 56913 N 0 0 0
0:00:00.00 57219 N 0 0 0
0:00:00.00 57237 N 0 0 0
0:00:00.00 57535 N 0 0 0
0:00:00.00 57841 N 0 0 0
0:00:00.00 57854 N 0 0 0
0:00:00.00 58142 N 0 0 0
0:00:00.00 58154 N 0 0 0
0:00:00.00 58438 N 0 0 0
0:00:00.00 58452 N 0 0 0
0:00:00.00 58740 N 0 0 0
0:00:00.00 59045 N 0 0 0
0:00:00.00 59061 N 0 0 0
0:00:00.00 59355 N 0 0 0
0:00:00.00 59371 N 0 0 0
0:00:00.00 59674 N 0 0 0
0:00:00.00 59691 N 0 0 0
0:00:00.00 59988 N 0 0 0
0:00:00.00 60003 N 0 0 0
0:00:00.00 60285 N 0 0 0
0:00:00.00 60578 N 0 0 0
0:00:00.00 60592 N 0 0 0
0:00:00.00 60876 N 0 0 0
0:00:00.00 60890 N 0 0 0
0:00:00.00 61182 N 0 0 0
0:00:00.00 61197 N 0 0 0
0:00:00.00 61502 N 0 0 0
0:00:00.00 61522 N 0 0 0
0:00:00.00 61820 N 0 0 0
0:00:00.00 62129 N 0 0 0
0:00:00.00 62146 N 0 0 0
0:00:00.00 62428 N 0 0 0
0:00:00.00 62443 N 0 0 0
0:00:00.00 62731 N 0 0 0
0:00:00.00 62745 N 0 0 0
0:00:00.00 63030 N 0 0 0
0:00:00.00 63045 N 0 0 0
0:00:00.00 63330 N 0 0 0
0:00:00.00 63346 N 0 0 0
0:00:00.00 63643 N 0 0 0
0:00:00.00 63664 N 0 0 0
0:00:00.00 63958 N 0 0 0
0:00:00.00 63975 N 0 0 0
0:00:00.00 64272 N 0 0 0
0:00:00.00 64287 N 0 0 0
0:00:00.00 64574 N 0 0 0
0:00:00.00 64587 N 0 0 0
0:00:00.00 64869 N 0 0 0
0:00:00.00 64881 N 0 0 0
0:00:00.00 65163 N 0 0 0
0:00:00.00 65179 N 0 0 0
0:00:00.00 65478 N 0 0 0
0:00:00.00 65495 N 0 0 0
0:00:00.00 65796 N 0 0 0
0:00:00.00 65813 N 0 0 0
0:00:00.00 66108 N 0 0 0
0:00:00.00 66123 N 0 0 0
0:00:00.00 66150 N 0 0 0
0:00:00.00 66418 N 0 0 0
0:00:00.00 66432 N 0 0 0
0:00:00.00 66716 N 0 0 0
0:00:00.00 66729 N 0 0 0
0:00:00.00 67013 N 0 0 0
0:00:00.00 67028 N 0 0 0
0:00:00.00 67315 N 0 0 0
0:00:00.00 67328 N 0 0 0
0:00:00.00 67620 N 0 0 0
0:00:00.00 67634 N 0 0 0
0:00:00.00 67927 N 0 0 0
0:00:00.00 67945 N 0 0 0
0:00:00.00 68250 N 0 0 0
0:00:00.00 68267 N 0 0 0
0:00:00.00 68562 N 0 0 0
0:00:00.00 68577 N 0 0 0
0:00:00.00 68861 N 0 0 0
0:00:00.00 68873 N 0 0 0
0:00:00.00 69154 N 0 0 0
0:00:00.00 69167 N 0 0 0
0:00:00.00 69454 N 0 0 0
0:00:00.00 69466 N 0 0 0
0:00:00.00 69763 N 0 0 0
0:00:00.00 69777 N 0 0 0
0:00:00.00 70084 N 0 0 0
0:00:00.00 70101 N 0 0 0
0:00:00.00 70397 N 0 0 0
0:00:00.00 70414 N 0 0 0
0:00:00.00 70705 N 0 0 0
0:00:00.00 70719 N 0 0 0
0:00:00.00 71009 N 0 0 0
0:00:00.00 71021 N 0 0 0
0:00:00.00 71308 N 0 0 0
0:00:00.00 71320 N 0 0 0
0:00:00.00 71606 N 0 0 0
0:00:00.00 71620 N 0 0 0
0:00:00.00 71905 N 0 0 0
0:00:00.00 71921 N 0 0 0
0:00:00.00 72221 N 0 0 0
0:00:00.00 72236 N 0 0 0
0:00:00.00 72536 N 0 0 0
0:00:00.00 72553 N 0 0 0
0:00:00.00 72852 N 0 0 0
0:00:00.00 72867 N 0 0 0
0:00:00.00 73153 N 0 0 0
0:00:00.00 73167 N 0 0 0
0:00:00.00 73447 N 0 0 0
0:00:00.00 73461 N 0 0 0
0:00:00.00 73746 N 0 0 0
0:00:00.00 73763 N 0 0 0
0:00:00.00 74058 N 0 0 0
0:00:00.00 74075 N 0 0 0
0:00:00.00 74374 N 0 0 0
0:00:00.00 74390 N 0 0 0
0:00:00.00 74685 N 0 0 0
0:00:00.00 74700 N 0 0 0
0:00:00.00 74999 N 0 0 0
0:00:00.00 75014 N 0 0 0
0:00:00.00 75298 N 0 0 0
0:00:00.00 75313 N 0 0 0
0:00:00.00 75598 N 0 0 0
0:00:00.00 75611 N 0 0 0
0:00:00.00 75892 N 0 0 0
0:00:00.00 76192 N 0 0 0
0:00:00.00 76206 N 0 0 0
0:00:00.00 76506 N 0 0 0
0:00:00.00 76522 N 0 0 0
0:00:00.00 76833 N 0 0 0
0:00:00.00 76847 N 0 0 0
0:00:00.00 77145 N 0 0 0
0:00:00.00 77446 N 0 0 0
0:00:00.00 77458 N 0 0 0
0:00:00.00 77741 N 0 0 0
0:00:00.00 77756 N 0 0 0
0:00:00.00 78035 N 0 0 0
0:00:00.00 78343 N 0 0 0
0:00:00.00 78359 N 0 0 0
0:00:00.00 78656 N 0 0 0
0:00:00.00 78968 N 0 0 0
0:00:00.00 79282 N 0 0 0
0:00:00.00 79593 N 0 0 0
0:00:00.00 79606 N 0 0 0
0:00:00.00 79887 N 0 0 0
0:00:00.00 80178 N 0 0 0
0:00:00.00 80479 N 0 0 0
0:00:00.00 80790 N 0 0 0
0:00:00.00 80807 N 0 0 0
0:00:00.00 81113 N 0 0 0
0:00:00.00 81428 N 0 0 0
0:00:00.00 81734 N 0 0 0
0:00:00.00 81748 N 0 0 0
0:00:00.00 82029 N 0 0 0
0:00:00.00 82331 N 0 0 0
0:00:00.00 82633 N 0 0 0
0:00:00.00 82941 N 0 0 0
0:00:00.00 82958 N 0 0 0
0:00:00.00 83256 N 0 0 0
0:00:00.00 83567 N 0 0 0
0:00:00.00 83875 N 0 0 0
0:00:00.00 83889 N 0 0 0
0:00:00.00 84174 N 0 0 0
0:00:00.00 84470 N 0 0 0
0:00:00.00 84483 N 0 0 0
0:00:00.00 84766 N 0 0 0
0:00:00.00 84783 N 0 0 0
0:00:00.00 85088 N 0 0 0
0:00:00.00 85407 N 0 0 0
0:00:00.00 85424 N 0 0 0
0:00:00.00 85715 N 0 0 0
0:00:00.00 86019 N 0 0 0
0:00:00.00 86315 N 0 0 0
0:00:00.00 86331 N 0 0 0
0:00:00.00 86613 N 0 0 0
0:00:00.00 86629 N 0 0 0
0:00:00.00 86917 N 0 0 0
0:00:00.00 87227 N 0 0 0
0:00:00.00 87242 N 0 0 0
0:00:00.00 87537 N 0 0 0
0:00:00.00 87860 N 0 0 0
0:00:00.00 87877 N 0 0 0
0:00:00.00 88163 N 0 0 0
0:00:00.00 88457 N 0 0 0
0:00:00.00 88752 N 0 0 0
0:00:00.00 88765 N 0 0 0
0:00:00.00 89052 N 0 0 0
0:00:00.00 89065 N 0 0 0
0:00:00.00 89368 N 0 0 0
0:00:00.00 89384 N 0 0 0
0:00:00.00 89690 N 0 0 0
0:00:00.00 90004 N 0 0 0
0:00:00.00 90019 N 0 0 0
0:00:00.00 90305 N 0 0 0
0:00:00.00 90607 N 0 0 0
0:00:00.00 90903 N 0 0 0
0:00:00.00 90918 N 0 0 0
0:00:00.00 91201 N 0 0 0
0:00:00.00 91508 N 0 0 0
0:00:00.00 91525 N 0 0 0
0:00:00.00 91824 N 0 0 0
0:00:00.00 92143 N 0 0 0
0:00:00.00 92157 N 0 0 0
0:00:00.00 92453 N 0 0 0
0:00:00.00 92469 N 0 0 0
0:00:00.00 92750 N 0 0 0
0:00:00.00 92765 N 0 0 0
0:00:00.00 93041 N 0 0 0
0:00:00.00 93347 N 0 0 0
0:00:00.00 93363 N 0 0 0
0:00:00.00 93603 N 0 0 0
0:00:00.00 93931 N 0 0 0
0:00:00.00 93946 N 0 0 0
0:00:00.00 94240 N 0 0 0
0:00:00.00 94256 N 0 0 0
0:00:00.00 94550 N 0 0 0
0:00:00.00 94563 N 0 0 0
0:00:00.00 94848 N 0 0 0
0:00:00.00 94862 N 0 0 0
0:00:00.00 95147 N 0 0 0
0:00:00.00 95162 N 0 0 0
0:00:00.00 95443 N 0 0 0
0:00:00.00 95458 N 0 0 0
0:00:00.00 95491 N 0 0 0
0:00:00.00 95743 N 0 0 0
0:00:00.00 95762 N 0 0 0
0:00:00.00 96062 N 0 0 0
0:00:00.00 96080 N 0 0 0
0:00:00.00 96387 N 0 0 0
0:00:00.00 96403 N 0 0 0
0:00:00.00 96696 N 0 0 0
0:00:00.00 96711 N 0 0 0
0:00:00.00 96992 N 0 0 0
0:00:00.00 97006 N 0 0 0
0:00:00.00 97288 N 0 0 0
0:00:00.00 97306 N 0 0 0
0:00:00.00 97587 N 0 0 0
0:00:00.00 97602 N 0 0 0
0:00:00.00 97896 N 0 0 0
0:00:00.00 98211 N 0 0 0
0:00:00.00 98229 N 0 0 0
0:00:00.00 98525 N 0 0 0
0:00:00.00 98543 N 0 0 0
0:00:00.00 98834 N 0 0 0
0:00:00.00 98851 N 0 0 0
0:00:00.00 99141 N 0 0 0
0:00:00.00 99154 N 0 0 0
0:00:00.00 99435 N 0 0 0
0:00:00.00 99729 N 0 0 0
0:00:00.00 99745 N 0 0 0
0:00:00.00 100033 N 0 0 0
0:00:00.00 100050 N 0 0 0
0:00:00.00 100347 N 0 0 0
0:00:00.00 100363 N 0 0 0
0:00:00.00 100669 N 0 0 0
0:00:00.00 100684 N 0 0 0
0:00:00.00 100980 N 0 0 0
0:00:00.00 100997 N 0 0 0
0:00:00.00 101282 N 0 0 0
0:00:00.00 101298 N 0 0 0
0:00:00.00 101576 N 0 0 0
0:00:00.00 101592 N 0 0 0
0:00:00.00 101882 N 0 0 0
0:00:00.00 101898 N 0 0 0
0:00:00.00 102186 N 0 0 0
0:00:00.00 102208 N 0 0 0
0:00:00.00 102498 N 0 0 0
0:00:00.00 102515 N 0 0 0
0:00:00.00 102812 N 0 0 0
0:00:00.00 102830 N 0 0 0
0:00:00.00 103122 N 0 0 0
0:00:00.00 103138 N 0 0 0
0:00:00.00 103425 N 0 0 0
0:00:00.00 103439 N 0 0 0
0:00:00.00 103726 N 0 0 0
0:00:00.00 103743 N 0 0 0
0:00:00.00 104022 N 0 0 0
0:00:00.00 104037 N 0 0 0
0:00:00.00 104321 N 0 0 0
0:00:00.00 104338 N 0 0 0
0:00:00.00 104643 N 0 0 0
0:00:00.00 104662 N 0 0 0
0:00:00.00 104962 N 0 0 0
0:00:00.00 104980 N 0 0 0
0:00:00.00 105274 N 0 0 0
0:00:00.00 105294 N 0 0 0
0:00:00.00 105571 N 0 0 0
0:00:00.00 105586 N 0 0 0
0:00:00.00 105867 N 0 0 0
0:00:00.00 105881 N 0 0 0
0:00:00.00 106167 N 0 0 0
0:00:00.00 106181 N 0 0 0
0:00:00.00 106476 N 0 0 0
0:00:00.00 106492 N 0 0 0
0:00:00.00 106788 N 0 0 0
0:00:00.00 106803 N 0 0 0
0:00:00.00 107099 N 0 0 0
0:00:00.00 107115 N 0 0 0
0:00:00.00 107414 N 0 0 0
0:00:00.00 107430 N 0 0 0
0:00:00.00 107718 N 0 0 0
0:00:00.00 107735 N 0 0 0
0:00:00.00 108014 N 0 0 0
0:00:00.00 108027 N 0 0 0
0:00:00.00 108307 N 0 0 0
0:00:00.00 108322 N 0 0 0
0:00:00.00 108613 N 0 0 0
0:00:00.00 108631 N 0 0 0
0:00:00.00 108930 N 0 0 0
0:00:00.00 108946 N 0 0 0
0:00:00.00 109251 N 0 0 0
0:00:00.00 109270 N 0 0 0
0:00:00.00 109563 N 0 0 0
0:00:00.00 109578 N 0 0 0
0:00:00.00 109863 N 0 0 0
0:00:00.00 109875 N 0 0 0
0:00:00.00 110159 N 0 0 0
0:00:00.00 110173 N 0 0 0
0:00:00.00 110461 N 0 0 0
0:00:00.00 110475 N 0 0 0
0:00:00.00 110766 N 0 0 0
0:00:00.00 110781 N 0 0 0
0:00:00.00 111075 N 0 0 0
0:00:00.00 111092 N 0 0 0
0:00:00.00 111392 N 0 0 0
0:00:00.00 111409 N 0 0 0
0:00:00.00 111702 N 0 0 0
0:00:00.00 111722 N 0 0 0
0:00:00.00 112009 N 0 0 0
0:00:00.00 112021 N 0 0 0
0:00:00.00 112305 N 0 0 0
0:00:00.00 112319 N 0 0 0
0:00:00.00 112601 N 0 0 0
0:00:00.00 112613 N 0 0 0
0:00:00.00 112902 N 0 0 0
0:00:00.00 112918 N 0 0 0
0:00:00.00 113227 N 0 0 0
0:00:00.00 113246 N 0 0 0
0:00:00.00 113546 N 0 0 0
0:00:00.00 113560 N 0 0 0
0:00:00.00 113853 N 0 0 0
0:00:00.00 113869 N 0 0 0
0:00:00.00 114157 N 0 0 0
0:00:00.00 114171 N 0 0 0
0:00:00.00 114449 N 0 0 0
0:00:00.00 114464 N 0 0 0
0:00:00.00 114750 N 0 0 0
0:00:00.00 114766 N 0 0 0
0:00:00.00 115055 N 0 0 0
0:00:00.00 115067 N 0 0 0
0:00:00.00 115365 N 0 0 0
0:00:00.00 115379 N 0 0 0
0:00:00.00 115680 N 0 0 0
0:00:00.00 115695 N 0 0 0
0:00:00.00 116002 N 0 0 0
0:00:00.00 116017 N 0 0 0
0:00:00.00 116304 N 0 0 0
0:00:00.00 116321 N 0 0 0
0:00:00.00 116597 N 0 0 0
0:00:00.00 116611 N 0 0 0
0:00:00.00 116893 N 0 0 0
0:00:00.00 116908 N 0 0 0
0:00:00.00 117194 N 0 0 0
0:00:00.00 117211 N 0 0 0
0:00:00.00 117513 N 0 0 0
0:00:00.00 117527 N 0 0 0
0:00:00.00 117831 N 0 0 0
0:00:00.00 117845 N 0 0 0
0:00:00.00 118143 N 0 0 0
0:00:00.00 118155 N 0 0 0
0:00:00.00 118444 N 0 0 0
0:00:00.00 118458 N 0 0 0
0:00:00.00 118748 N 0 0 0
0:00:00.00 118762 N 0 0 0
0:00:00.00 119043 N 0 0 0
0:00:00.00 119058 N 0 0 0
0:00:00.00 119340 N 0 0 0
0:00:00.00 119355 N 0 0 0
0:00:00.00 119651 N 0 0 0
0:00:00.00 119667 N 0 0 0
0:00:00.00 119966 N 0 0 0
0:00:00.00 119981 N 0 0 0
0:00:00.00 120283 N 0 0 0
0:00:00.00 120298 N 0 0 0
0:00:00.00 120592 N 0 0 0
0:00:00.00 120604 N 0 0 0
0:00:00.00 120890 N 0 0 0
0:00:00.00 120901 N 0 0 0
0:00:00.00 120934 N 0 0 0
0:00:00.00 121182 N 0 0 0
0:00:00.00 121196 N 0 0 0
0:00:00.00 121490 N 0 0 0
0:00:00.00 121507 N 0 0 0
0:00:00.00 121804 N 0 0 0
0:00:00.00 121820 N 0 0 0
0:00:00.00 122116 N 0 0 0
0:00:00.00 122132 N 0 0 0
0:00:00.00 122429 N 0 0 0
0:00:00.00 122443 N 0 0 0
0:00:00.00 122478 N 0 0 0
0:00:00.00 122733 N 0 0 0
0:00:00.00 122747 N 0 0 0
0:00:00.00 123031 N 0 0 0
0:00:00.00 123045 N 0 0 0
0:00:00.00 123333 N 0 0 0
0:00:00.00 123345 N 0 0 0
0:00:00.00 123632 N 0 0 0
0:00:00.00 123644 N 0 0 0
0:00:00.00 123938 N 0 0 0
0:00:00.00 123952 N 0 0 0
0:00:00.00 124261 N 0 0 0
0:00:00.00 124279 N 0 0 0
0:00:00.00 124577 N 0 0 0
0:00:00.00 124592 N 0 0 0
0:00:00.00 124880 N 0 0 0
0:00:00.00 124893 N 0 0 0
0:00:00.00 125175 N 0 0 0
0:00:00.00 125189 N 0 0 0
0:00:00.00 125471 N 0 0 0
0:00:00.00 125483 N 0 0 0
0:00:00.00 125774 N 0 0 0
0:00:00.00 125789 N 0 0 0
0:00:00.00 126091 N 0 0 0
0:00:00.00 126104 N 0 0 0
0:00:00.00 126405 N 0 0 0
0:00:00.00 126419 N 0 0 0
0:00:00.00 126714 N 0 0 0
0:00:00.00 126728 N 0 0 0
0:00:00.00 127025 N 0 0 0
0:00:00.00 127039 N 0 0 0
0:00:00.00 127323 N 0 0 0
0:00:00.00 127335 N 0 0 0
0:00:00.00 127617 N 0 0 0
0:00:00.00 127627 N 0 0 0
0:00:00.00 127912 N 0 0 0
0:00:00.00 127927 N 0 0 0
0:00:00.00 128222 N 0 0 0
0:00:00.00 128237 N 0 0 0
0:00:00.00 128543 N 0 0 0
0:00:00.00 128557 N 0 0 0
0:00:00.00 128864 N 0 0 0
0:00:00.00 128876 N 0 0 0
0:00:00.00 129170 N 0 0 0
0:00:00.00 129181 N 0 0 0
0:00:00.00 129464 N 0 0 0
0:00:00.00 129476 N 0 0 0
0:00:00.00 129763 N 0 0 0
0:00:00.00 129777 N 0 0 0
0:00:00.00 130066 N 0 0 0
0:00:00.00 130078 N 0 0 0
0:00:00.00 130375 N 0 0 0
0:00:00.00 130387 N 0 0 0
0:00:00.00 130687 N 0 0 0
0:00:00.00 130703 N 0 0 0
0:00:00.00 131002 N 0 0 0
0:00:00.00 131017 N 0 0 0
0:00:00.00 131310 N 0 0 0
0:00:00.00 131326 N 0 0 0
0:00:00.00 131613 N 0 0 0
0:00:00.00 131626 N 0 0 0
0:00:00.00 131907 N 0 0 0
0:00:00.00 131919 N 0 0 0
0:00:00.00 132200 N 0 0 0
0:00:00.00 132513 N 0 0 0
0:00:00.00 132526 N 0 0 0
0:00:00.00 132836 N 0 0 0
0:00:00.00 133153 N 0 0 0
0:00:00.00 133457 N 0 0 0
0:00:00.00 133756 N 0 0 0
0:00:00.00 133769 N 0 0 0
0:00:00.00 134052 N 0 0 0
0:00:00.00 134068 N 0 0 0
0:00:00.00 134356 N 0 0 0
0:00:00.00 134371 N 0 0 0
0:00:00.00 134660 N 0 0 0
0:00:00.00 134971 N 0 0 0
0:00:00.00 134988 N 0 0 0
0:00:00.00 135291 N 0 0 0
0:00:00.00 135306 N 0 0 0
0:00:00.00 135605 N 0 0 0
0:00:00.00 135619 N 0 0 0
0:00:00.00 135903 N 0 0 0
0:00:00.00 135917 N 0 0 0
0:00:00.00 136194 N 0 0 0
0:00:00.00 136493 N 0 0 0
0:00:00.00 136508 N 0 0 0
0:00:00.00 136800 N 0 0 0
0:00:00.00 136819 N 0 0 0
0:00:00.00 137122 N 0 0 0
0:00:00.00 137141 N 0 0 0
0:00:00.00 137438 N 0 0 0
0:00:00.00 137453 N 0 0 0
0:00:00.00 137744 N 0 0 0
0:00:00.00 137759 N 0 0 0
0:00:00.00 138042 N 0 0 0
0:00:00.00 138056 N 0 0 0
0:00:00.00 138345 N 0 0 0
0:00:00.00 138358 N 0 0 0
0:00:00.00 138644 N 0 0 0
0:00:00.00 138657 N 0 0 0
0:00:00.00 138945 N 0 0 0
0:00:00.00 139259 N 0 0 0
0:00:00.00 139276 N 0 0 0
0:00:00.00 139573 N 0 0 0
0:00:00.00 139590 N 0 0 0
0:00:00.00 139885 N 0 0 0
0:00:00.00 140185 N 0 0 0
0:00:00.00 140482 N 0 0 0
0:00:00.00 140779 N 0 0 0
0:00:00.00 141095 N 0 0 0
0:00:00.00 141412 N 0 0 0
0:00:00.00 141723 N 0 0 0
0:00:00.00 141737 N 0 0 0
0:00:00.00 142032 N 0 0 0
0:00:00.00 142045 N 0 0 0
0:00:00.00 142329 N 0 0 0
0:00:00.00 142344 N 0 0 0
0:00:00.00 142628 N 0 0 0
0:00:00.00 142642 N 0 0 0
0:00:00.00 142932 N 0 0 0
0:00:00.00 142945 N 0 0 0
0:00:00.00 143236 N 0 0 0
0:00:00.00 143252 N 0 0 0
0:00:00.00 143545 N 0 0 0
0:00:00.00 143868 N 0 0 0
0:00:00.00 144179 N 0 0 0
0:00:00.00 144479 N 0 0 0
0:00:00.00 144490 N 0 0 0
0:00:00.00 144771 N 0 0 0
0:00:00.00 145070 N 0 0 0
0:00:00.00 145379 N 0 0 0
0:00:00.00 145698 N 0 0 0
0:00:00.00 146013 N 0 0 0
0:00:00.00 146029 N 0 0 0
0:00:00.00 146318 N 0 0 0
0:00:00.00 146622 N 0 0 0
0:00:00.00 146921 N 0 0 0
0:00:00.00 146932 N 0 0 0
0:00:00.00 147217 N 0 0 0
0:00:00.00 147239 N 0 0 0
0:00:00.00 147517 N 0 0 0
0:00:00.00 147531 N 0 0 0
0:00:00.00 147834 N 0 0 0
0:00:00.00 148152 N 0 0 0
0:00:00.00 148468 N 0 0 0
0:00:00.00 148482 N 0 0 0
0:00:00.00 148768 N 0 0 0
0:00:00.00 148781 N 0 0 0
0:00:00.00 149062 N 0 0 0
0:00:00.00 149075 N 0 0 0
0:00:00.00 149362 N 0 0 0
0:00:00.00 149377 N 0 0 0
0:00:00.00 149673 N 0 0 0
0:00:00.00 149688 N 0 0 0
0:00:00.00 149989 N 0 0 0
0:00:00.00 150004 N 0 0 0
0:00:00.00 150300 N 0 0 0
0:00:00.00 150314 N 0 0 0
0:00:00.00 150612 N 0 0 0
0:00:00.00 150911 N 0 0 0
0:00:00.00 150925 N 0 0 0
0:00:00.00 151210 N 0 0 0
0:00:00.00 151225 N 0 0 0
0:00:00.00 151508 N 0 0 0
0:00:00.00 151522 N 0 0 0
0:00:00.00 151808 N 0 0 0
0:00:00.00 152123 N 0 0 0
0:00:00.00 152139 N 0 0 0
0:00:00.00 152450 N 0 0 0
0:00:00.00 152465 N 0 0 0
0:00:00.00 152764 N 0 0 0
0:00:00.00 152778 N 0 0 0
0:00:00.00 153061 N 0 0 0
0:00:00.00 153358 N 0 0 0
0:00:00.00 153373 N 0 0 0
0:00:00.00 153653 N 0 0 0
0:00:00.00 153668 N 0 0 0
0:00:00.00 153961 N 0 0 0
0:00:00.00 153983 N 0 0 0
0:00:00.00 154275 N 0 0 0
0:00:00.00 154291 N 0 0 0
0:00:00.00 154588 N 0 0 0
0:00:00.00 154602 N 0 0 0
0:00:00.00 154899 N 0 0 0
0:00:00.00 154917 N 0 0 0
0:00:00.00 155210 N 0 0 0
0:00:00.00 155225 N 0 0 0
0:00:00.00 155505 N 0 0 0
0:00:00.00 155797 N 0 0 0
0:00:00.00 156100 N 0 0 0
0:00:00.00 156116 N 0 0 0
0:00:00.00 156412 N 0 0 0
0:00:00.00 156734 N 0 0 0
0:00:00.00 157048 N 0 0 0
0:00:00.00 157351 N 0 0 0
0:00:00.00 157365 N 0 0 0
0:00:00.00 157645 N 0 0 0
0:00:00.00 157950 N 0 0 0
0:00:00.00 158251 N 0 0 0
0:00:00.00 158558 N 0 0 0
0:00:00.00 158873 N 0 0 0
0:00:00.00 159186 N 0 0 0
0:00:00.00 159491 N 0 0 0
0:00:00.00 159791 N 0 0 0
0:00:00.00 159805 N 0 0 0
0:00:00.00 160088 N 0 0 0
0:00:00.00 160101 N 0 0 0
0:00:00.00 160387 N 0 0 0
0:00:00.00 160403 N 0 0 0
0:00:00.00 160709 N 0 0 0
0:00:00.00 160727 N 0 0 0
0:00:00.00 161027 N 0 0 0
0:00:00.00 161043 N 0 0 0
0:00:00.00 161336 N 0 0 0
0:00:00.00 161351 N 0 0 0
0:00:00.00 161640 N 0 0 0
0:00:00.00 161655 N 0 0 0
0:00:00.00 161932 N 0 0 0
0:00:00.00 161948 N 0 0 0
0:00:00.00 162232 N 0 0 0
0:00:00.00 162247 N 0 0 0
0:00:00.00 162539 N 0 0 0
0:00:00.00 162552 N 0 0 0
0:00:00.00 162848 N 0 0 0
0:00:00.00 162865 N 0 0 0
0:00:00.00 163160 N 0 0 0
0:00:00.00 163178 N 0 0 0
0:00:00.00 163482 N 0 0 0
0:00:00.00 163500 N 0 0 0
0:00:00.00 163786 N 0 0 0
0:00:00.00 163802 N 0 0 0
0:00:00.00 164079 N 0 0 0
0:00:00.00 164093 N 0 0 0
0:00:00.00 164373 N 0 0 0
0:00:00.00 164389 N 0 0 0
0:00:00.00 164675 N 0 0 0
0:00:00.00 164689 N 0 0 0
0:00:00.00 164991 N 0 0 0
0:00:00.00 165008 N 0 0 0
0:00:00.00 165311 N 0 0 0
0:00:00.00 165327 N 0 0 0
0:00:00.00 165624 N 0 0 0
0:00:00.00 165638 N 0 0 0
0:00:00.00 165924 N 0 0 0
0:00:00.00 165939 N 0 0 0
0:00:00.00 166227 N 0 0 0
0:00:00.00 166243 N 0 0 0
0:00:00.00 166522 N 0 0 0
0:00:00.00 166538 N 0 0 0
0:00:00.00 166819 N 0 0 0
0:00:00.00 166833 N 0 0 0
0:00:00.00 167127 N 0 0 0
0:00:00.00 167444 N 0 0 0
0:00:00.00 167760 N 0 0 0
0:00:00.00 168071 N 0 0 0
0:00:00.00 168368 N 0 0 0
0:00:00.00 168390 N 0 0 0
0:00:00.00 168661 N 0 0 0
0:00:00.00 168677 N 0 0 0
0:00:00.00 168968 N 0 0 0
0:00:00.00 168986 N 0 0 0
0:00:00.00 169281 N 0 0 0
0:00:00.00 169595 N 0 0 0
0:00:00.00 169908 N 0 0 0
0:00:00.00 169925 N 0 0 0
0:00:00.00 170212 N 0 0 0
0:00:00.00 170512 N 0 0 0
0:00:00.00 170527 N 0 0 0
0:00:00.00 170814 N 0 0 0
0:00:00.00 170825 N 0 0 0
0:00:00.00 171111 N 0 0 0
0:00:00.00 171414 N 0 0 0
0:00:00.00 171737 N 0 0 0
0:00:00.00 171755 N 0 0 0
0:00:00.00 172055 N 0 0 0
0:00:00.00 172072 N 0 0 0
0:00:00.00 172362 N 0 0 0
0:00:00.00 172376 N 0 0 0
0:00:00.00 172656 N 0 0 0
0:00:00.00 172671 N 0 0 0
0:00:00.00 172954 N 0 0 0
0:00:00.00 172966 N 0 0 0
0:00:00.00 173254 N 0 0 0
0:00:00.00 173271 N 0 0 0
0:00:00.00 173570 N 0 0 0
0:00:00.00 173586 N 0 0 0
0:00:00.00 173883 N 0 0 0
0:00:00.00 173898 N 0 0 0
0:00:00.00 174193 N 0 0 0
0:00:00.00 174206 N 0 0 0
0:00:00.00 174506 N 0 0 0
0:00:00.00 174518 N 0 0 0
0:00:00.00 174806 N 0 0 0
0:00:00.00 174818 N 0 0 0
0:00:00.00 175101 N 0 0 0
0:00:00.00 175114 N 0 0 0
0:00:00.00 175395 N 0 0 0
0:00:00.00 175410 N 0 0 0
0:00:00.00 175705 N 0 0 0
0:00:00.00 175718 N 0 0 0
0:00:00.00 176023 N 0 0 0
0:00:00.00 176342 N 0 0 0
0:00:00.00 176360 N 0 0 0
0:00:00.00 176649 N 0 0 0
0:00:00.00 176663 N 0 0 0
0:00:00.00 176943 N 0 0 0
0:00:00.00 177241 N 0 0 0
0:00:00.00 177546 N 0 0 0
0:00:00.00 177561 N 0 0 0
0:00:00.00 177854 N 0 0 0
0:00:00.00 177876 N 0 0 0
0:00:00.00 178167 N 0 0 0
0:00:00.00 178183 N 0 0 0
0:00:00.00 178483 N 0 0 0
0:00:00.00 178497 N 0 0 0
0:00:00.00 178788 N 0 0 0
0:00:00.00 178804 N 0 0 0
0:00:00.00 179090 N 0 0 0
0:00:00.00 179107 N 0 0 0
0:00:00.00 179386 N 0 0 0
0:00:00.00 179401 N 0 0 0
0:00:00.00 179683 N 0 0 0
0:00:00.00 179702 N 0 0 0
0:00:00.00 179990 N 0 0 0
0:00:00.00 180007 N 0 0 0
0:00:00.00 180316 N 0 0 0
0:00:00.00 180332 N 0 0 0
0:00:00.00 180633 N 0 0 0
0:00:00.00 180648 N 0 0 0
0:00:00.00 180937 N 0 0 0
0:00:00.00 180952 N 0 0 0
0:00:00.00 181236 N 0 0 0
0:00:00.00 181250 N 0 0 0
0:00:00.00 181529 N 0 0 0
0:00:00.00 181546 N 0 0 0
0:00:00.00 181833 N 0 0 0
0:00:00.00 181848 N 0 0 0
0:00:00.00 182083 N 0 0 0
0:00:00.00 182109 N 0 0 0
0:00:00.00 182429 N 0 0 0
0:00:00.00 182444 N 0 0 0
0:00:00.00 182742 N 0 0 0
0:00:00.00 182757 N 0 0 0
0:00:00.00 183058 N 0 0 0
0:00:00.00 183075 N 0 0 0
0:00:00.00 183357 N 0 0 0
0:00:00.00 183375 N 0 0 0
0:00:00.00 183648 N 0 0 0
0:00:00.00 183664 N 0 0 0
0:00:00.00 183944 N 0 0 0
0:00:00.00 184249 N 0 0 0
0:00:00.00 184268 N 0 0 0
0:00:00.00 184570 N 0 0 0
0:00:00.00 184586 N 0 0 0
0:00:00.00 184889 N 0 0 0
0:00:00.00 184907 N 0 0 0
0:00:00.00 185201 N 0 0 0
0:00:00.00 185498 N 0 0 0
0:00:00.00 185512 N 0 0 0
0:00:00.00 185797 N 0 0 0
0:00:00.00 185814 N 0 0 0
0:00:00.00 186097 N 0 0 0
0:00:00.00 186112 N 0 0 0
0:00:00.00 186399 N 0 0 0
0:00:00.00 186710 N 0 0 0
0:00:00.00 186728 N 0 0 0
0:00:00.00 187028 N 0 0 0
0:00:00.00 187044 N 0 0 0
0:00:00.00 187341 N 0 0 0
0:00:00.00 187648 N 0 0 0
0:00:00.00 187662 N 0 0 0
0:00:00.00 187941 N 0 0 0
0:00:00.00 187958 N 0 0 0
0:00:00.00 188234 N 0 0 0
0:00:00.00 188251 N 0 0 0
0:00:00.00 188544 N 0 0 0
0:00:00.00 188563 N 0 0 0
0:00:00.00 188865 N 0 0 0
0:00:00.00 188881 N 0 0 0
0:00:00.00 189181 N 0 0 0
0:00:00.00 189196 N 0 0 0
0:00:00.00 189490 N 0 0 0
0:00:00.00 189505 N 0 0 0
0:00:00.00 189791 N 0 0 0
0:00:00.00 189806 N 0 0 0
0:00:00.00 190086 N 0 0 0
0:00:00.00 190102 N 0 0 0
0:00:00.00 190387 N 0 0 0
0:00:00.00 190408 N 0 0 0
0:00:00.00 190690 N 0 0 0
0:00:00.00 190706 N 0 0 0
0:00:00.00 190999 N 0 0 0
0:00:00.00 191016 N 0 0 0
0:00:00.00 191318 N 0 0 0
0:00:00.00 191337 N 0 0 0
0:00:00.00 191637 N 0 0 0
0:00:00.00 191654 N 0 0 0
0:00:00.00 191939 N 0 0 0
0:00:00.00 191955 N 0 0 0
0:00:00.00 192231 N 0 0 0
0:00:00.00 192245 N 0 0 0
0:00:00.00 192530 N 0 0 0
0:00:00.00 192544 N 0 0 0
0:00:00.00 192835 N 0 0 0
0:00:00.00 192851 N 0 0 0
0:00:00.00 193154 N 0 0 0
0:00:00.00 193176 N 0 0 0
0:00:00.00 193467 N 0 0 0
0:00:00.00 193484 N 0 0 0
0:00:00.00 193776 N 0 0 0
0:00:00.00 193797 N 0 0 0
0:00:00.00 194082 N 0 0 0
0:00:00.00 194097 N 0 0 0
0:00:00.00 194383 N 0 0 0
0:00:00.00 194398 N 0 0 0
0:00:00.00 194681 N 0 0 0
0:00:00.00 194696 N 0 0 0
0:00:00.00 194978 N 0 0 0
0:00:00.00 194997 N 0 0 0
0:00:00.00 195292 N 0 0 0
0:00:00.00 195310 N 0 0 0
0:00:00.00 195608 N 0 0 0
0:00:00.00 195624 N 0 0 0
0:00:00.00 195923 N 0 0 0
0:00:00.00 195939 N 0 0 0
0:00:00.00 196226 N 0 0 0
0:00:00.00 196238 N 0 0 0
0:00:00.00 196520 N 0 0 0
0:00:00.00 196818 N 0 0 0
0:00:00.00 197130 N 0 0 0
0:00:00.00 197147 N 0 0 0
0:00:00.00 197444 N 0 0 0
0:00:00.00 197460 N 0 0 0
0:00:00.00 197754 N 0 0 0
0:00:00.00 198068 N 0 0 0
0:00:00.00 198086 N 0 0 0
0:00:00.00 198368 N 0 0 0
0:00:00.00 198385 N 0 0 0
0:00:00.00 198667 N 0 0 0
0:00:00.00 198683 N 0 0 0
0:00:00.00 198963 N 0 0 0
0:00:00.00 198979 N 0 0 0
0:00:00.00 199264 N 0 0 0
0:00:00.00 199279 N 0 0 0
0:00:00.00 199575 N 0 0 0
0:00:00.00 199594 N 0 0 0
0:00:00.00 199902 N 0 0 0
0:00:00.00 199917 N 0 0 0
0:00:00.00 200215 N 0 0 0
0:00:00.00 200233 N 0 0 0
0:00:00.00 200517 N 0 0 0
0:00:00.00 200532 N 0 0 0
0:00:00.00 200813 N 0 0 0
0:00:00.00 200828 N 0 0 0
0:00:00.00 201108 N 0 0 0
0:00:00.00 201121 N 0 0 0
0:00:00.00 201414 N 0 0 0
0:00:00.00 201431 N 0 0 0
0:00:00.00 201727 N 0 0 0
0:00:00.00 201743 N 0 0 0
0:00:00.00 202041 N 0 0 0
0:00:00.00 202057 N 0 0 0
0:00:00.00 202352 N 0 0 0
0:00:00.00 202371 N 0 0 0
0:00:00.00 202664 N 0 0 0
0:00:00.00 202681 N 0 0 0
0:00:00.00 202961 N 0 0 0
0:00:00.00 202975 N 0 0 0
0:00:00.00 203251 N 0 0 0
0:00:00.00 203269 N 0 0 0
0:00:00.00 203549 N 0 0 0
0:00:00.00 203570 N 0 0 0
0:00:00.00 203861 N 0 0 0
0:00:00.00 204184 N 0 0 0
0:00:00.00 204203 N 0 0 0
0:00:00.00 204499 N 0 0 0
0:00:00.00 204804 N 0 0 0
0:00:00.00 204819 N 0 0 0
0:00:00.00 205099 N 0 0 0
0:00:00.00 205115 N 0 0 0
0:00:00.00 205403 N 0 0 0
0:00:00.00 205419 N 0 0 0
0:00:00.00 205703 N 0 0 0
0:00:00.00 205719 N 0 0 0
0:00:00.00 206009 N 0 0 0
0:00:00.00 206027 N 0 0 0
0:00:00.00 206325 N 0 0 0
0:00:00.00 206342 N 0 0 0
0:00:00.00 206637 N 0 0 0
0:00:00.00 206652 N 0 0 0
0:00:00.00 206946 N 0 0 0
0:00:00.00 206960 N 0 0 0
0:00:00.00 207244 N 0 0 0
0:00:00.00 207259 N 0 0 0
0:00:00.00 207283 N 0 0 0
0:00:00.00 207539 N 0 0 0
0:00:00.00 207553 N 0 0 0
0:00:00.00 207836 N 0 0 0
0:00:00.00 207851 N 0 0 0
0:00:00.00 208157 N 0 0 0
0:00:00.00 208176 N 0 0 0
0:00:00.00 208477 N 0 0 0
0:00:00.00 208494 N 0 0 0
0:00:00.00 208784 N 0 0 0
0:00:00.00 208813 N 0 0 0
0:00:00.00 209092 N 0 0 0
0:00:00.00 209110 N 0 0 0
0:00:00.00 209386 N 0 0 0
0:00:00.00 209403 N 0 0 0
0:00:00.00 209687 N 0 0 0
0:00:00.00 209703 N 0 0 0
0:00:00.00 209989 N 0 0 0
0:00:00.00 210003 N 0 0 0
0:00:00.00 210297 N 0 0 0
0:00:00.00 210312 N 0 0 0
0:00:00.00 210609 N 0 0 0
0:00:00.00 210627 N 0 0 0
0:00:00.00 210932 N 0 0 0
0:00:00.00 210951 N 0 0 0
0:00:00.00 211239 N 0 0 0
0:00:00.00 211258 N 0 0 0
0:00:00.00 211277 N 0 0 0
0:00:00.00 211534 N 0 0 0
0:00:00.00 211548 N 0 0 0
0:00:00.00 211828 N 0 0 0
0:00:00.00 211845 N 0 0 0
0:00:00.00 212126 N 0 0 0
0:00:00.00 212142 N 0 0 0
0:00:00.00 212441 N 0 0 0
0:00:00.00 212460 N 0 0 0
0:00:00.00 212764 N 0 0 0
0:00:00.00 212780 N 0 0 0
0:00:00.00 213075 N 0 0 0
0:00:00.00 213312 N 0 0 0
0:00:00.00 213626 N 0 0 0
0:00:00.00 213643 N 0 0 0
0:00:00.00 213925 N 0 0 0
0:00:00.00 213939 N 0 0 0
0:00:00.00 214222 N 0 0 0
0:00:00.00 214235 N 0 0 0
0:00:00.00 214523 N 0 0 0
0:00:00.00 214840 N 0 0 0
0:00:00.00 214854 N 0 0 0
0:00:00.00 215157 N 0 0 0
0:00:00.00 215174 N 0 0 0
0:00:00.00 215471 N 0 0 0
0:00:00.00 215486 N 0 0 0
0:00:00.00 215768 N 0 0 0
0:00:00.00 215783 N 0 0 0
0:00:00.00 216061 N 0 0 0
0:00:00.00 216076 N 0 0 0
0:00:00.00 216364 N 0 0 0
0:00:00.00 216379 N 0 0 0
0:00:00.00 216676 N 0 0 0
0:00:00.00 216689 N 0 0 0
0:00:00.00 216990 N 0 0 0
0:00:00.00 217303 N 0 0 0
0:00:00.00 217317 N 0 0 0
0:00:00.00 217614 N 0 0 0
0:00:00.00 217627 N 0 0 0
0:00:00.00 217912 N 0 0 0
0:00:00.00 217926 N 0 0 0
0:00:00.00 218210 N 0 0 0
0:00:00.00 218225 N 0 0 0
0:00:00.00 218507 N 0 0 0
0:00:00.00 218521 N 0 0 0
0:00:00.00 218809 N 0 0 0
0:00:00.00 218826 N 0 0 0
0:00:00.00 219127 N 0 0 0
0:00:00.00 219142 N 0 0 0
0:00:00.00 219449 N 0 0 0
0:00:00.00 219761 N 0 0 0
0:00:00.00 219776 N 0 0 0
0:00:00.00 220059 N 0 0 0
0:00:00.00 220072 N 0 0 0
0:00:00.00 220355 N 0 0 0
0:00:00.00 220368 N 0 0 0
0:00:00.00 220650 N 0 0 0
0:00:00.00 220962 N 0 0 0
0:00:00.00 220976 N 0 0 0
0:00:00.00 221276 N 0 0 0
0:00:00.00 221294 N 0 0 0
0:00:00.00 221526 N 0 0 0
0:00:00.00 221843 N 0 0 0
0:00:00.00 221857 N 0 0 0
0:00:00.00 222151 N 0 0 0
0:00:00.00 222167 N 0 0 0
0:00:00.00 222446 N 0 0 0
0:00:00.00 222459 N 0 0 0
0:00:00.00 222738 N 0 0 0
0:00:00.00 222751 N 0 0 0
0:00:00.00 223038 N 0 0 0
0:00:00.00 223054 N 0 0 0
0:00:00.00 223350 N 0 0 0
0:00:00.00 223367 N 0 0 0
0:00:00.00 223671 N 0 0 0
0:00:00.00 223689 N 0 0 0
0:00:00.00 223989 N 0 0 0
0:00:00.00 224006 N 0 0 0
0:00:00.00 224294 N 0 0 0
0:00:00.00 224309 N 0 0 0
0:00:00.00 224585 N 0 0 0
0:00:00.00 224599 N 0 0 0
0:00:00.00 224887 N 0 0 0
0:00:00.00 224904 N 0 0 0
0:00:00.00 225190 N 0 0 0
0:00:00.00 225210 N 0 0 0
0:00:00.00 225502 N 0 0 0
0:00:00.00 225517 N 0 0 0
0:00:00.00 225816 N 0 0 0
0:00:00.00 225831 N 0 0 0
0:00:00.00 226129 N 0 0 0
0:00:00.00 226143 N 0 0 0
0:00:00.00 226434 N 0 0 0
0:00:00.00 226450 N 0 0 0
0:00:00.00 226734 N 0 0 0
0:00:00.00 227027 N 0 0 0
0:00:00.00 227043 N 0 0 0
0:00:00.00 227325 N 0 0 0
0:00:00.00 227342 N 0 0 0
0:00:00.00 227643 N 0 0 0
0:00:00.00 227663 N 0 0 0
0:00:00.00 227965 N 0 0 0
0:00:00.00 227981 N 0 0 0
0:00:00.00 228280 N 0 0 0
0:00:00.00 228581 N 0 0 0
0:00:00.00 228880 N 0 0 0
0:00:00.00 229176 N 0 0 0
0:00:00.00 229482 N 0 0 0
0:00:00.00 229496 N 0 0 0
0:00:00.00 229792 N 0 0 0
0:00:00.00 229808 N 0 0 0
0:00:00.00 230104 N 0 0 0
0:00:00.00 230119 N 0 0 0
0:00:00.00 230419 N 0 0 0
0:00:00.00 230730 N 0 0 0
0:00:00.00 230747 N 0 0 0
0:00:00.00 231028 N 0 0 0
0:00:00.00 231042 N 0 0 0
0:00:00.00 231320 N 0 0 0
0:00:00.00 231337 N 0 0 0
0:00:00.00 231621 N 0 0 0
0:00:00.00 231934 N 0 0 0
0:00:00.00 231953 N 0 0 0
0:00:00.00 232257 N 0 0 0
0:00:00.00 232276 N 0 0 0
0:00:00.00 232571 N 0 0 0
0:00:00.00 232588 N 0 0 0
0:00:00.00 232872 N 0 0 0
0:00:00.00 232894 N 0 0 0
0:00:00.00 233172 N 0 0 0
0:00:00.00 233187 N 0 0 0
0:00:00.00 233474 N 0 0 0
0:00:00.00 233488 N 0 0 0
0:00:00.00 233776 N 0 0 0
0:00:00.00 233789 N 0 0 0
0:00:00.00 234080 N 0 0 0
0:00:00.00 234097 N 0 0 0
0:00:00.00 234397 N 0 0 0
0:00:00.00 234414 N 0 0 0
0:00:00.00 234709 N 0 0 0
0:00:00.00 234725 N 0 0 0
0:00:00.00 235018 N 0 0 0
0:00:00.00 235033 N 0 0 0
0:00:00.00 235314 N 0 0 0
0:00:00.00 235329 N 0 0 0
0:00:00.00 235608 N 0 0 0
0:00:00.00 235621 N 0 0 0
0:00:00.00 235909 N 0 0 0
0:00:00.00 235924 N 0 0 0
0:00:00.00 236230 N 0 0 0
0:00:00.00 236246 N 0 0 0
0:00:00.00 236548 N 0 0 0
0:00:00.00 236857 N 0 0 0
0:00:00.00 236871 N 0 0 0
0:00:00.00 237164 N 0 0 0
0:00:00.00 237177 N 0 0 0
0:00:00.00 237459 N 0 0 0
0:00:00.00 237472 N 0 0 0
0:00:00.00 237757 N 0 0 0
0:00:00.00 237771 N 0 0 0
0:00:00.00 238057 N 0 0 0
0:00:00.00 238072 N 0 0 0
0:00:00.00 238365 N 0 0 0
0:00:00.00 238379 N 0 0 0
0:00:00.00 238681 N 0 0 0
0:00:00.00 238698 N 0 0 0
0:00:00.00 239004 N 0 0 0
0:00:00.00 239311 N 0 0 0
0:00:00.00 239327 N 0 0 0
0:00:00.00 239606 N 0 0 0
0:00:00.00 239621 N 0 0 0
0:00:00.00 239901 N 0 0 0
0:00:00.00 239918 N 0 0 0
0:00:00.00 240199 N 0 0 0
0:00:00.00 240514 N 0 0 0
0:00:00.00 240833 N 0 0 0
0:00:00.00 240850 N 0 0 0
0:00:00.00 241145 N 0 0 0
0:00:00.00 241170 N 0 0 0
0:00:00.00 241451 N 0 0 0
0:00:00.00 241756 N 0 0 0
0:00:00.00 241778 N 0 0 0
0:00:00.00 242052 N 0 0 0
0:00:00.00 242066 N 0 0 0
0:00:00.00 242345 N 0 0 0
0:00:00.00 242360 N 0 0 0
0:00:00.00 242652 N 0 0 0
0:00:00.00 242668 N 0 0 0
0:00:00.00 242967 N 0 0 0
0:00:00.00 242985 N 0 0 0
0:00:00.00 243287 N 0 0 0
0:00:00.00 243304 N 0 0 0
0:00:00.00 243596 N 0 0 0
0:00:00.00 243611 N 0 0 0
0:00:00.00 243894 N 0 0 0
0:00:00.00 243909 N 0 0 0
0:00:00.00 244188 N 0 0 0
0:00:00.00 244205 N 0 0 0
0:00:00.00 244496 N 0 0 0
0:00:00.00 244513 N 0 0 0
0:00:00.00 244805 N 0 0 0
0:00:00.00 244821 N 0 0 0
0:00:00.00 245115 N 0 0 0
0:00:00.00 245131 N 0 0 0
0:00:00.00 245430 N 0 0 0
0:00:00.00 245445 N 0 0 0
0:00:00.00 245735 N 0 0 0
0:00:00.00 246037 N 0 0 0
0:00:00.00 246054 N 0 0 0
0:00:00.00 246335 N 0 0 0
0:00:00.00 246350 N 0 0 0
0:00:00.00 246633 N 0 0 0
0:00:00.00 246654 N 0 0 0
0:00:00.00 246936 N 0 0 0
0:00:00.00 247261 N 0 0 0
0:00:00.00 247280 N 0 0 0
0:00:00.00 247578 N 0 0 0
0:00:00.00 247594 N 0 0 0
0:00:00.00 247885 N 0 0 0
0:00:00.00 247899 N 0 0 0
0:00:00.00 248184 N 0 0 0
0:00:00.00 248197 N 0 0 0
0:00:00.00 248478 N 0 0 0
0:00:00.00 248781 N 0 0 0
0:00:00.00 248796 N 0 0 0
0:00:00.00 249090 N 0 0 0
0:00:00.00 249405 N 0 0 0
0:00:00.00 249422 N 0 0 0
0:00:00.00 249431 N 0 0 0
0:00:00.00 249716 N 0 0 0
0:00:00.00 250033 N 0 0 0
0:00:00.00 250332 N 0 0 0
0:00:00.00 250347 N 0 0 0
0:00:00.00 250625 N 0 0 0
0:00:00.00 250640 N 0 0 0
0:00:00.00 250920 N 0 0 0
0:00:00.00 250935 N 0 0 0
0:00:00.00 251224 N 0 0 0
0:00:00.00 251545 N 0 0 0
0:00:00.00 251564 N 0 0 0
0:00:00.00 251868 N 0 0 0
0:00:00.00 252175 N 0 0 0
0:00:00.00 252472 N 0 0 0
0:00:00.00 252486 N 0 0 0
0:00:00.00 252773 N 0 0 0
0:00:00.00 253073 N 0 0 0
0:00:00.00 253089 N 0 0 0
0:00:00.00 253377 N 0 0 0
0:00:00.00 253391 N 0 0 0
0:00:00.00 253687 N 0 0 0
0:00:00.00 254003 N 0 0 0
0:00:00.00 254317 N 0 0 0
0:00:00.00 254330 N 0 0 0
0:00:00.00 254620 N 0 0 0
0:00:00.00 254914 N 0 0 0
0:00:00.00 254928 N 0 0 0
0:00:00.00 255207 N 0 0 0
0:00:00.00 255518 N 0 0 0
0:00:00.00 255837 N 0 0 0
0:00:00.00 256153 N 0 0 0
0:00:00.00 256463 N 0 0 0
0:00:00.00 256764 N 0 0 0
0:00:00.00 256776 N 0 0 0
0:00:00.00 257059 N 0 0 0
0:00:00.00 257072 N 0 0 0
0:00:00.00 257361 N 0 0 0
0:00:00.00 257665 N 0 0 0
0:00:00.00 257679 N 0 0 0
0:00:00.00 257974 N 0 0 0
0:00:00.00 258293 N 0 0 0
0:00:00.00 258610 N 0 0 0
0:00:00.00 258624 N 0 0 0
0:00:00.00 258911 N 0 0 0
0:00:00.00 259205 N 0 0 0
0:00:00.00 259218 N 0 0 0
0:00:00.00 259502 N 0 0 0
0:00:00.00 259517 N 0 0 0
0:00:00.00 259806 N 0 0 0
0:00:00.00 259824 N 0 0 0
0:00:00.00 260127 N 0 0 0
0:00:00.00 260144 N 0 0 0
0:00:00.00 260443 N 0 0 0
0:00:00.00 260461 N 0 0 0
0:00:00.00 260753 N 0 0 0
0:00:00.00 260769 N 0 0 0
0:00:00.00 261054 N 0 0 0
0:00:00.00 261070 N 0 0 0
0:00:00.00 261356 N 0 0 0
0:00:00.00 261371 N 0 0 0
0:00:00.00 261653 N 0 0 0
0:00:00.00 261671 N 0 0 0
0:00:00.00 261950 N 0 0 0
0:00:00.00 261967 N 0 0 0
0:00:00.00 262263 N 0 0 0
0:00:00.00 262280 N 0 0 0
0:00:00.00 262577 N 0 0 0
0:00:00.00 262597 N 0 0 0
0:00:00.00 262894 N 0 0 0
0:00:00.00 262912 N 0 0 0
0:00:00.00 263197 N 0 0 0
0:00:00.00 263494 N 0 0 0
0:00:00.00 263509 N 0 0 0
0:00:00.00 263789 N 0 0 0
0:00:00.00 263803 N 0 0 0
0:00:00.00 264101 N 0 0 0
0:00:00.00 264415 N 0 0 0
0:00:00.00 264435 N 0 0 0
0:00:00.00 264726 N 0 0 0
0:00:00.00 264743 N 0 0 0
0:00:00.00 265039 N 0 0 0
0:00:00.00 265057 N 0 0 0
0:00:00.00 265341 N 0 0 0
0:00:00.00 265355 N 0 0 0
0:00:00.00 265639 N 0 0 0
0:00:00.00 265655 N 0 0 0
0:00:00.00 265939 N 0 0 0
0:00:00.00 265957 N 0 0 0
0:00:00.00 266241 N 0 0 0
0:00:00.00 266258 N 0 0 0
0:00:00.00 266550 N 0 0 0
0:00:00.00 266566 N 0 0 0
0:00:00.00 266873 N 0 0 0
0:00:00.00 266890 N 0 0 0
0:00:00.00 267188 N 0 0 0
0:00:00.00 267206 N 0 0 0
0:00:00.00 267490 N 0 0 0
0:00:00.00 267509 N 0 0 0
0:00:00.00 267785 N 0 0 0
0:00:00.00 267802 N 0 0 0
0:00:00.00 268082 N 0 0 0
0:00:00.00 268097 N 0 0 0
0:00:00.00 268388 N 0 0 0
0:00:00.00 268708 N 0 0 0
0:00:00.00 268724 N 0 0 0
0:00:00.00 269022 N 0 0 0
0:00:00.00 269039 N 0 0 0
0:00:00.00 269329 N 0 0 0
0:00:00.00 269349 N 0 0 0
0:00:00.00 269637 N 0 0 0
0:00:00.00 269937 N 0 0 0
0:00:00.00 269952 N 0 0 0
0:00:00.00 270232 N 0 0 0
0:00:00.00 270251 N 0 0 0
0:00:00.00 270529 N 0 0 0
0:00:00.00 270549 N 0 0 0
0:00:00.00 270842 N 0 0 0
0:00:00.00 271162 N 0 0 0
0:00:00.00 271482 N 0 0 0
0:00:00.00 271499 N 0 0 0
0:00:00.00 271785 N 0 0 0
0:00:00.00 272285 N 0 0 0
0:00:00.00 272591 N 0 0 0
0:00:00.00 272902 N 0 0 0
0:00:00.00 273213 N 0 0 0
0:00:00.00 273528 N 0 0 0
0:00:00.00 273544 N 0 0 0
0:00:00.00 273834 N 0 0 0
0:00:00.00 273849 N 0 0 0
0:00:00.00 274134 N 0 0 0
0:00:00.00 274150 N 0 0 0
0:00:00.00 274430 N 0 0 0
0:00:00.00 274726 N 0 0 0
0:00:00.00 275034 N 0 0 0
0:00:00.00 275360 N 0 0 0
0:00:00.00 275678 N 0 0 0
0:00:00.00 275982 N 0 0 0
0:00:00.00 276281 N 0 0 0
0:00:00.00 276298 N 0 0 0
0:00:00.00 276575 N 0 0 0
0:00:00.00 276592 N 0 0 0
0:00:00.00 276877 N 0 0 0
0:00:00.00 276894 N 0 0 0
0:00:00.00 277184 N 0 0 0
0:00:00.00 277209 N 0 0 0
0:00:00.00 277499 N 0 0 0
0:00:00.00 277524 N 0 0 0
0:00:00.00 277814 N 0 0 0
0:00:00.00 277832 N 0 0 0
0:00:00.00 278130 N 0 0 0
0:00:00.00 278150 N 0 0 0
0:00:00.00 278428 N 0 0 0
0:00:00.00 278444 N 0 0 0
0:00:00.00 278720 N 0 0 0
0:00:00.00 278736 N 0 0 0
0:00:00.00 279018 N 0 0 0
0:00:00.00 279036 N 0 0 0
0:00:00.00 279322 N 0 0 0
0:00:00.00 279340 N 0 0 0
0:00:00.00 279644 N 0 0 0
0:00:00.00 279664 N 0 0 0
0:00:00.00 279962 N 0 0 0
0:00:00.00 279980 N 0 0 0
0:00:00.00 280272 N 0 0 0
0:00:00.00 280286 N 0 0 0
0:00:00.00 280570 N 0 0 0
0:00:00.00 280585 N 0 0 0
0:00:00.00 280873 N 0 0 0
0:00:00.00 280889 N 0 0 0
0:00:00.00 281171 N 0 0 0
0:00:00.00 281187 N 0 0 0
0:00:00.00 281471 N 0 0 0
0:00:00.00 281487 N 0 0 0
0:00:00.00 281783 N 0 0 0
0:00:00.00 281804 N 0 0 0
0:00:00.00 282099 N 0 0 0
0:00:00.00 282117 N 0 0 0
0:00:00.00 282412 N 0 0 0
0:00:00.00 282431 N 0 0 0
0:00:00.00 282675 N 0 0 0
0:00:00.00 282945 N 0 0 0
0:00:00.00 282960 N 0 0 0
0:00:00.00 283238 N 0 0 0
0:00:00.00 283253 N 0 0 0
0:00:00.00 283549 N 0 0 0
0:00:00.00 283567 N 0 0 0
0:00:00.00 283866 N 0 0 0
0:00:00.00 283883 N 0 0 0
0:00:00.00 284178 N 0 0 0
0:00:00.00 284490 N 0 0 0
0:00:00.00 284506 N 0 0 0
0:00:00.00 284791 N 0 0 0
0:00:00.00 284806 N 0 0 0
0:00:00.00 285089 N 0 0 0
0:00:00.00 285104 N 0 0 0
0:00:00.00 285391 N 0 0 0
0:00:00.00 285404 N 0 0 0
0:00:00.00 285692 N 0 0 0
0:00:00.00 285707 N 0 0 0
0:00:00.00 286000 N 0 0 0
0:00:00.00 286016 N 0 0 0
0:00:00.00 286322 N 0 0 0
0:00:00.00 286339 N 0 0 0
0:00:00.00 286637 N 0 0 0
0:00:00.00 286651 N 0 0 0
0:00:00.00 286939 N 0 0 0
0:00:00.00 286951 N 0 0 0
0:00:00.00 287233 N 0 0 0
0:00:00.00 287247 N 0 0 0
0:00:00.00 287529 N 0 0 0
0:00:00.00 287835 N 0 0 0
0:00:00.00 287852 N 0 0 0
0:00:00.00 288139 N 0 0 0
0:00:00.00 288425 N 0 0 0
0:00:00.00 288441 N 0 0 0
0:00:00.00 288733 N 0 0 0
0:00:00.00 288749 N 0 0 0
0:00:00.00 289040 N 0 0 0
0:00:00.00 289341 N 0 0 0
0:00:00.00 289361 N 0 0 0
0:00:00.00 289639 N 0 0 0
0:00:00.00 289653 N 0 0 0
0:00:00.00 289933 N 0 0 0
0:00:00.00 289947 N 0 0 0
0:00:00.00 290246 N 0 0 0
0:00:00.00 290262 N 0 0 0
0:00:00.00 290563 N 0 0 0
0:00:00.00 290579 N 0 0 0
0:00:00.00 290590 N 0 0 0
0:00:00.00 290882 N 0 0 0
0:00:00.00 290898 N 0 0 0
0:00:00.00 291185 N 0 0 0
0:00:00.00 291200 N 0 0 0
0:00:00.00 291210 N 0 0 0
0:00:00.00 291480 N 0 0 0
0:00:00.00 291496 N 0 0 0
0:00:00.00 291780 N 0 0 0
0:00:00.00 291801 N 0 0 0
0:00:00.00 292087 N 0 0 0
0:00:00.00 292398 N 0 0 0
0:00:00.00 292422 N 0 0 0
0:00:00.00 292712 N 0 0 0
0:00:00.00 292727 N 0 0 0
0:00:00.00 293025 N 0 0 0
0:00:00.00 293043 N 0 0 0
0:00:00.00 293330 N 0 0 0
0:00:00.00 293352 N 0 0 0
0:00:00.00 293629 N 0 0 0
0:00:00.00 293923 N 0 0 0
0:00:00.00 294220 N 0 0 0
0:00:00.00 294235 N 0 0 0
0:00:00.00 294530 N 0 0 0
0:00:00.00 294856 N 0 0 0
0:00:00.00 294871 N 0 0 0
0:00:00.00 295172 N 0 0 0
0:00:00.00 295187 N 0 0 0
0:00:00.00 295474 N 0 0 0
0:00:00.00 295772 N 0 0 0
0:00:00.00 296067 N 0 0 0
0:00:00.00 296081 N 0 0 0
0:00:00.00 296307 N 0 0 0
0:00:00.00 296593 N 0 0 0
0:00:00.00 296608 N 0 0 0
0:00:00.00 296908 N 0 0 0
0:00:00.00 296921 N 0 0 0
0:00:00.00 297218 N 0 0 0
0:00:00.00 297534 N 0 0 0
0:00:00.00 297833 N 0 0 0
0:00:00.00 297847 N 0 0 0
0:00:00.00 298128 N 0 0 0
0:00:00.00 298424 N 0 0 0
0:00:00.00 298728 N 0 0 0
0:00:00.00 298745 N 0 0 0
0:00:00.00 299047 N 0 0 0
0:00:00.00 299371 N 0 0 0
0:00:00.00 299682 N 0 0 0
0:00:00.00 299696 N 0 0 0
0:00:00.00 299977 N 0 0 0
0:00:00.00 300277 N 0 0 0
0:00:00.00 300579 N 0 0 0
0:00:00.00 300883 N 0 0 0
0:00:00.00 301192 N 0 0 0
0:00:00.00 301209 N 0 0 0
0:00:00.00 301510 N 0 0 0
0:00:00.00 301822 N 0 0 0
0:00:00.00 302125 N 0 0 0
0:00:00.00 302140 N 0 0 0
0:00:00.00 302418 N 0 0 0
0:00:00.00 302713 N 0 0 0
0:00:00.00 303020 N 0 0 0
0:00:00.00 303037 N 0 0 0
0:00:00.00 303343 N 0 0 0
0:00:00.00 303359 N 0 0 0
0:00:00.00 303661 N 0 0 0
0:00:00.00 303969 N 0 0 0
0:00:00.00 304272 N 0 0 0
0:00:00.00 304287 N 0 0 0
0:00:00.00 304506 N 0 0 0
0:00:00.00 304780 N 0 0 0
0:00:00.00 305085 N 0 0 0
0:00:00.00 305100 N 0 0 0
0:00:00.00 305395 N 0 0 0
0:00:00.00 305709 N 0 0 0
0:00:00.00 306030 N 0 0 0
0:00:00.00 306334 N 0 0 0
0:00:00.00 306628 N 0 0 0
0:00:00.00 306643 N 0 0 0
0:00:00.00 306924 N 0 0 0
0:00:00.00 306948 N 0 0 0
0:00:00.00 307225 N 0 0 0
0:00:00.00 307241 N 0 0 0
0:00:00.00 307542 N 0 0 0
0:00:00.00 307865 N 0 0 0
0:00:00.00 307881 N 0 0 0
0:00:00.00 308179 N 0 0 0
0:00:00.00 308193 N 0 0 0
0:00:00.00 308478 N 0 0 0
0:00:00.00 308503 N 0 0 0
0:00:00.00 308781 N 0 0 0
0:00:00.00 309078 N 0 0 0
0:00:00.00 309377 N 0 0 0
0:00:00.00 309391 N 0 0 0
0:00:00.00 309684 N 0 0 0
0:00:00.00 310000 N 0 0 0
0:00:00.00 310319 N 0 0 0
0:00:00.00 310630 N 0 0 0
0:00:00.00 310925 N 0 0 0
0:00:00.00 310939 N 0 0 0
0:00:00.00 311217 N 0 0 0
0:00:00.00 311231 N 0 0 0
0:00:00.00 311525 N 0 0 0
0:00:00.00 311549 N 0 0 0
0:00:00.00 311840 N 0 0 0
0:00:00.00 312156 N 0 0 0
0:00:00.00 312467 N 0 0 0
0:00:00.00 312482 N 0 0 0
0:00:00.00 312772 N 0 0 0
0:00:00.00 312786 N 0 0 0
0:00:00.00 313070 N 0 0 0
0:00:00.00 313092 N 0 0 0
0:00:00.00 313370 N 0 0 0
0:00:00.00 313667 N 0 0 0
0:00:00.00 313972 N 0 0 0
0:00:00.00 314295 N 0 0 0
0:00:00.00 314312 N 0 0 0
0:00:00.00 314612 N 0 0 0
0:00:00.00 314633 N 0 0 0
0:00:00.00 314918 N 0 0 0
0:00:00.00 315214 N 0 0 0
0:00:00.00 315511 N 0 0 0
0:00:00.00 315525 N 0 0 0
0:00:00.00 315813 N 0 0 0
0:00:00.00 315828 N 0 0 0
0:00:00.00 316129 N 0 0 0
0:00:00.00 316148 N 0 0 0
0:00:00.00 316443 N 0 0 0
0:00:00.00 316752 N 0 0 0
0:00:00.00 317064 N 0 0 0
0:00:00.00 317078 N 0 0 0
0:00:00.00 317297 N 0 0 0
0:00:00.00 317569 N 0 0 0
0:00:00.00 317584 N 0 0 0
0:00:00.00 317863 N 0 0 0
0:00:00.00 317878 N 0 0 0
0:00:00.00 318166 N 0 0 0
0:00:00.00 318194 N 0 0 0
0:00:00.00 318481 N 0 0 0
0:00:00.00 318803 N 0 0 0
0:00:00.00 319116 N 0 0 0
0:00:00.00 319131 N 0 0 0
0:00:00.00 319416 N 0 0 0
0:00:00.00 319428 N 0 0 0
0:00:00.00 319711 N 0 0 0
0:00:00.00 319727 N 0 0 0
0:00:00.00 320018 N 0 0 0
0:00:00.00 320032 N 0 0 0
0:00:00.00 320323 N 0 0 0
0:00:00.00 320340 N 0 0 0
0:00:00.00 320632 N 0 0 0
0:00:00.00 320648 N 0 0 0
0:00:00.00 320947 N 0 0 0
0:00:00.00 320963 N 0 0 0
0:00:00.00 321256 N 0 0 0
0:00:00.00 321271 N 0 0 0
0:00:00.00 321560 N 0 0 0
0:00:00.00 321575 N 0 0 0
0:00:00.00 321854 N 0 0 0
0:00:00.00 322151 N 0 0 0
0:00:00.00 322454 N 0 0 0
0:00:00.00 322471 N 0 0 0
0:00:00.00 322778 N 0 0 0
0:00:00.00 323094 N 0 0 0
0:00:00.00 323402 N 0 0 0
0:00:00.00 323704 N 0 0 0
0:00:00.00 323720 N 0 0 0
0:00:00.00 323998 N 0 0 0
0:00:00.00 324300 N 0 0 0
0:00:00.00 324605 N 0 0 0
0:00:00.00 324620 N 0 0 0
0:00:00.00 324916 N 0 0 0
0:00:00.00 324933 N 0 0 0
0:00:00.00 325229 N 0 0 0
0:00:00.00 325550 N 0 0 0
0:00:00.00 325851 N 0 0 0
0:00:00.00 326143 N 0 0 0
0:00:00.00 326655 N 0 0 0
0:00:00.00 326973 N 0 0 0
0:00:00.00 327297 N 0 0 0
0:00:00.00 327609 N 0 0 0
0:00:00.00 327910 N 0 0 0
0:00:00.00 328212 N 0 0 0
0:00:00.00 328226 N 0 0 0
0:00:00.00 328510 N 0 0 0
0:00:00.00 328809 N 0 0 0
0:00:00.00 329115 N 0 0 0
0:00:00.00 329432 N 0 0 0
0:00:00.00 329749 N 0 0 0
0:00:00.00 329764 N 0 0 0
0:00:00.00 330060 N 0 0 0
0:00:00.00 330353 N 0 0 0
0:00:00.00 330646 N 0 0 0
0:00:00.00 330952 N 0 0 0
0:00:00.00 331268 N 0 0 0
0:00:00.00 331552 N 0 0 0
0:00:00.00 331837 N 0 0 0
0:00:00.00 331852 N 0 0 0
0:00:00.00 332147 N 0 0 0
0:00:00.00 332443 N 0 0 0
0:00:00.00 332458 N 0 0 0
0:00:00.00 332741 N 0 0 0
0:00:00.00 333038 N 0 0 0
0:00:00.00 333341 N 0 0 0
0:00:00.00 333659 N 0 0 0
0:00:00.00 333677 N 0 0 0
0:00:00.00 333982 N 0 0 0
0:00:00.00 334290 N 0 0 0
0:00:00.00 334585 N 0 0 0
0:00:00.00 334601 N 0 0 0
0:00:00.00 334882 N 0 0 0
0:00:00.00 335115 N 0 0 0
0:00:00.00 335398 N 0 0 0
0:00:00.00 335416 N 0 0 0
0:00:00.00 335719 N 0 0 0
0:00:00.00 335733 N 0 0 0
0:00:00.00 336034 N 0 0 0
0:00:00.00 336053 N 0 0 0
0:00:00.00 336343 N 0 0 0
0:00:00.00 336650 N 0 0 0
0:00:00.00 336946 N 0 0 0
0:00:00.00 336959 N 0 0 0
0:00:00.00 337241 N 0 0 0
0:00:00.00 337541 N 0 0 0
0:00:00.00 337855 N 0 0 0
0:00:00.00 338174 N 0 0 0
0:00:00.00 338494 N 0 0 0
0:00:00.00 338795 N 0 0 0
0:00:00.00 338810 N 0 0 0
0:00:00.00 339087 N 0 0 0
0:00:00.00 339389 N 0 0 0
0:00:00.00 339697 N 0 0 0
0:00:00.00 340009 N 0 0 0
0:00:00.00 340320 N 0 0 0
0:00:00.00 340635 N 0 0 0
0:00:00.00 340649 N 0 0 0
0:00:00.00 340938 N 0 0 0
0:00:00.00 341236 N 0 0 0
0:00:00.00 341531 N 0 0 0
0:00:00.00 341546 N 0 0 0
0:00:00.00 341829 N 0 0 0
0:00:00.00 342145 N 0 0 0
0:00:00.00 342161 N 0 0 0
0:00:00.00 342467 N 0 0 0
0:00:00.00 342484 N 0 0 0
0:00:00.00 342780 N 0 0 0
0:00:00.00 343082 N 0 0 0
0:00:00.00 343097 N 0 0 0
0:00:00.00 343381 N 0 0 0
0:00:00.00 343403 N 0 0 0
0:00:00.00 343677 N 0 0 0
0:00:00.00 343694 N 0 0 0
0:00:00.00 343983 N 0 0 0
0:00:00.00 344002 N 0 0 0
0:00:00.00 344294 N 0 0 0
0:00:00.00 344607 N 0 0 0
0:00:00.00 344921 N 0 0 0
0:00:00.00 345232 N 0 0 0
0:00:00.00 345246 N 0 0 0
0:00:00.00 345529 N 0 0 0
0:00:00.00 345544 N 0 0 0
0:00:00.00 345821 N 0 0 0
0:00:00.00 346123 N 0 0 0
0:00:00.00 346433 N 0 0 0
0:00:00.00 346757 N 0 0 0
0:00:00.00 346771 N 0 0 0
0:00:00.00 347071 N 0 0 0
0:00:00.00 347377 N 0 0 0
0:00:00.00 347389 N 0 0 0
0:00:00.00 347671 N 0 0 0
0:00:00.00 347977 N 0 0 0
0:00:00.00 347989 N 0 0 0
0:00:00.00 348279 N 0 0 0
0:00:00.00 348294 N 0 0 0
0:00:00.00 348584 N 0 0 0
0:00:00.00 348600 N 0 0 0
0:00:00.00 348900 N 0 0 0
0:00:00.00 348918 N 0 0 0
0:00:00.00 349212 N 0 0 0
0:00:00.00 349522 N 0 0 0
0:00:00.00 349536 N 0 0 0
0:00:00.00 349820 N 0 0 0
0:00:00.00 349830 N 0 0 0
0:00:00.00 350347 N 0 0 0
0:00:00.00 350361 N 0 0 0
0:00:00.00 350665 N 0 0 0
0:00:00.00 350681 N 0 0 0
0:00:00.00 350986 N 0 0 0
0:00:00.00 351001 N 0 0 0
0:00:00.00 351296 N 0 0 0
0:00:00.00 351311 N 0 0 0
0:00:00.00 351603 N 0 0 0
0:00:00.00 351619 N 0 0 0
0:00:00.00 351903 N 0 0 0
0:00:00.00 351915 N 0 0 0
0:00:00.00 352199 N 0 0 0
0:00:00.00 352214 N 0 0 0
0:00:00.00 352502 N 0 0 0
0:00:00.00 352517 N 0 0 0
0:00:00.00 352808 N 0 0 0
0:00:00.00 352824 N 0 0 0
0:00:00.00 353119 N 0 0 0
0:00:00.00 353136 N 0 0 0
0:00:00.00 353442 N 0 0 0
0:00:00.00 353460 N 0 0 0
0:00:00.00 353750 N 0 0 0
0:00:00.00 353765 N 0 0 0
0:00:00.00 354045 N 0 0 0
0:00:00.00 354058 N 0 0 0
0:00:00.00 354341 N 0 0 0
0:00:00.00 354353 N 0 0 0
0:00:00.00 354639 N 0 0 0
0:00:00.00 354652 N 0 0 0
0:00:00.00 354950 N 0 0 0
0:00:00.00 355274 N 0 0 0
0:00:00.00 355290 N 0 0 0
0:00:00.00 355590 N 0 0 0
0:00:00.00 355604 N 0 0 0
0:00:00.00 355894 N 0 0 0
0:00:00.00 355908 N 0 0 0
0:00:00.00 356197 N 0 0 0
0:00:00.00 356214 N 0 0 0
0:00:00.00 356718 N 0 0 0
0:00:00.00 356733 N 0 0 0
0:00:00.00 357020 N 0 0 0
0:00:00.00 357035 N 0 0 0
0:00:00.00 357334 N 0 0 0
0:00:00.00 357348 N 0 0 0
0:00:00.00 357650 N 0 0 0
0:00:00.00 357666 N 0 0 0
0:00:00.00 357968 N 0 0 0
0:00:00.00 357982 N 0 0 0
0:00:00.00 358266 N 0 0 0
0:00:00.00 358280 N 0 0 0
0:00:00.00 358558 N 0 0 0
0:00:00.00 358859 N 0 0 0
0:00:00.00 358876 N 0 0 0
0:00:00.00 359169 N 0 0 0
0:00:00.00 359187 N 0 0 0
0:00:00.00 359487 N 0 0 0
0:00:00.00 359502 N 0 0 0
0:00:00.00 359796 N 0 0 0
0:00:00.00 359811 N 0 0 0
0:00:00.00 360109 N 0 0 0
0:00:00.00 360411 N 0 0 0
0:00:00.00 360424 N 0 0 0
0:00:00.00 360708 N 0 0 0
0:00:00.00 361003 N 0 0 0
0:00:00.00 361304 N 0 0 0
0:00:00.00 361318 N 0 0 0
0:00:00.00 361618 N 0 0 0
0:00:00.00 361942 N 0 0 0
0:00:00.00 361959 N 0 0 0
0:00:00.00 362255 N 0 0 0
0:00:00.00 362269 N 0 0 0
0:00:00.00 362481 N 0 0 0
0:00:00.00 362753 N 0 0 0
0:00:00.00 362771 N 0 0 0
0:00:00.00 363049 N 0 0 0
0:00:00.00 363065 N 0 0 0
0:00:00.00 363288 N 0 0 0
0:00:00.00 363610 N 0 0 0
0:00:00.00 363626 N 0 0 0
0:00:00.00 363926 N 0 0 0
0:00:00.00 363941 N 0 0 0
0:00:00.00 364235 N 0 0 0
0:00:00.00 364549 N 0 0 0
0:00:00.00 364848 N 0 0 0
0:00:00.00 364863 N 0 0 0
0:00:00.00 365140 N 0 0 0
0:00:00.00 365153 N 0 0 0
0:00:00.00 365437 N 0 0 0
0:00:00.00 365458 N 0 0 0
0:00:00.00 365744 N 0 0 0
0:00:00.00 365759 N 0 0 0
0:00:00.00 366063 N 0 0 0
0:00:00.00 366082 N 0 0 0
0:00:00.00 366387 N 0 0 0
0:00:00.00 366399 N 0 0 0
0:00:00.00 366693 N 0 0 0
0:00:00.00 366708 N 0 0 0
0:00:00.00 366988 N 0 0 0
0:00:00.00 367004 N 0 0 0
0:00:00.00 367290 N 0 0 0
0:00:00.00 367592 N 0 0 0
0:00:00.00 367610 N 0 0 0
0:00:00.00 368121 N 0 0 0
0:00:00.00 368439 N 0 0 0
0:00:00.00 368453 N 0 0 0
0:00:00.00 368750 N 0 0 0
0:00:00.00 368766 N 0 0 0
0:00:00.00 369055 N 0 0 0
0:00:00.00 369071 N 0 0 0
0:00:00.00 369348 N 0 0 0
0:00:00.00 369641 N 0 0 0
0:00:00.00 369655 N 0 0 0
0:00:00.00 369947 N 0 0 0
0:00:00.00 370270 N 0 0 0
0:00:00.00 370286 N 0 0 0
0:00:00.00 370588 N 0 0 0
0:00:00.00 370603 N 0 0 0
0:00:00.00 370896 N 0 0 0
0:00:00.00 371201 N 0 0 0
0:00:00.00 371216 N 0 0 0
0:00:00.00 371496 N 0 0 0
0:00:00.00 371509 N 0 0 0
0:00:00.00 371795 N 0 0 0
0:00:00.00 372098 N 0 0 0
0:00:00.00 372406 N 0 0 0
0:00:00.00 372723 N 0 0 0
0:00:00.00 372739 N 0 0 0
0:00:00.00 373044 N 0 0 0
0:00:00.00 373059 N 0 0 0
0:00:00.00 373345 N 0 0 0
0:00:00.00 373637 N 0 0 0
0:00:00.00 373933 N 0 0 0
0:00:00.00 374234 N 0 0 0
0:00:00.00 374252 N 0 0 0
0:00:00.00 374553 N 0 0 0
0:00:00.00 374572 N 0 0 0
0:00:00.00 374871 N 0 0 0
0:00:00.00 374893 N 0 0 0
0:00:00.00 375186 N 0 0 0
0:00:00.00 375202 N 0 0 0
0:00:00.00 375487 N 0 0 0
0:00:00.00 375503 N 0 0 0
0:00:00.00 375791 N 0 0 0
0:00:00.00 375812 N 0 0 0
0:00:00.00 376086 N 0 0 0
0:00:00.00 376103 N 0 0 0
0:00:00.00 376384 N 0 0 0
0:00:00.00 376401 N 0 0 0
0:00:00.00 376695 N 0 0 0
0:00:00.00 376710 N 0 0 0
0:00:00.00 377008 N 0 0 0
0:00:00.00 377025 N 0 0 0
0:00:00.00 377326 N 0 0 0
0:00:00.00 377344 N 0 0 0
0:00:00.00 377634 N 0 0 0
0:00:00.00 377649 N 0 0 0
0:00:00.00 377876 N 0 0 0
0:00:00.00 378143 N 0 0 0
0:00:00.00 378166 N 0 0 0
0:00:00.00 378448 N 0 0 0
0:00:00.00 378464 N 0 0 0
0:00:00.00 378763 N 0 0 0
0:00:00.00 379081 N 0 0 0
0:00:00.00 379098 N 0 0 0
0:00:00.00 379391 N 0 0 0
0:00:00.00 379416 N 0 0 0
0:00:00.00 379699 N 0 0 0
0:00:00.00 379722 N 0 0 0
0:00:00.00 379998 N 0 0 0
0:00:00.00 380023 N 0 0 0
0:00:00.00 380296 N 0 0 0
0:00:00.00 380321 N 0 0 0
0:00:00.00 380593 N 0 0 0
0:00:00.00 380610 N 0 0 0
0:00:00.00 380618 N 0 0 0
0:00:00.00 380898 N 0 0 0
0:00:00.00 380914 N 0 0 0
0:00:00.00 381217 N 0 0 0
0:00:00.00 381238 N 0 0 0
0:00:00.00 381538 N 0 0 0
0:00:00.00 381554 N 0 0 0
0:00:00.00 381844 N 0 0 0
0:00:00.00 381865 N 0 0 0
0:00:00.00 382138 N 0 0 0
0:00:00.00 382162 N 0 0 0
0:00:00.00 382438 N 0 0 0
0:00:00.00 382454 N 0 0 0
0:00:00.00 382738 N 0 0 0
0:00:00.00 382755 N 0 0 0
0:00:00.00 383051 N 0 0 0
0:00:00.00 383368 N 0 0 0
0:00:00.00 383385 N 0 0 0
0:00:00.00 383622 N 0 0 0
0:00:00.00 383906 N 0 0 0
0:00:00.00 383922 N 0 0 0
0:00:00.00 384213 N 0 0 0
0:00:00.00 384228 N 0 0 0
0:00:00.00 384508 N 0 0 0
0:00:00.00 384523 N 0 0 0
0:00:00.00 384801 N 0 0 0
0:00:00.00 384828 N 0 0 0
0:00:00.00 385105 N 0 0 0
0:00:00.00 385418 N 0 0 0
0:00:00.00 385739 N 0 0 0
0:00:00.00 385769 N 0 0 0
0:00:00.00 386055 N 0 0 0
0:00:00.00 386355 N 0 0 0
0:00:00.00 386378 N 0 0 0
0:00:00.00 386648 N 0 0 0
0:00:00.00 386662 N 0 0 0
0:00:00.00 386953 N 0 0 0
0:00:00.00 386969 N 0 0 0
0:00:00.00 387262 N 0 0 0
0:00:00.00 387278 N 0 0 0
0:00:00.00 387572 N 0 0 0
0:00:00.00 387887 N 0 0 0
0:00:00.00 387903 N 0 0 0
0:00:00.00 388198 N 0 0 0
0:00:00.00 388213 N 0 0 0
0:00:00.00 388501 N 0 0 0
0:00:00.00 388518 N 0 0 0
0:00:00.00 388800 N 0 0 0
0:00:00.00 388815 N 0 0 0
0:00:00.00 389096 N 0 0 0
0:00:00.00 389110 N 0 0 0
0:00:00.00 389395 N 0 0 0
0:00:00.00 389411 N 0 0 0
0:00:00.00 389718 N 0 0 0
0:00:00.00 389737 N 0 0 0
0:00:00.00 389978 N 0 0 0
0:00:00.00 390266 N 0 0 0
0:00:00.00 390282 N 0 0 0
0:00:00.00 390567 N 0 0 0
0:00:00.00 390866 N 0 0 0
0:00:00.00 390879 N 0 0 0
0:00:00.00 391164 N 0 0 0
0:00:00.00 391179 N 0 0 0
0:00:00.00 391469 N 0 0 0
0:00:00.00 391494 N 0 0 0
0:00:00.00 391779 N 0 0 0
0:00:00.00 392089 N 0 0 0
0:00:00.00 392106 N 0 0 0
0:00:00.00 392114 N 0 0 0
0:00:00.00 392407 N 0 0 0
0:00:00.00 392423 N 0 0 0
0:00:00.00 392716 N 0 0 0
0:00:00.00 392730 N 0 0 0
0:00:00.00 393013 N 0 0 0
0:00:00.00 393025 N 0 0 0
0:00:00.00 393304 N 0 0 0
0:00:00.00 393607 N 0 0 0
0:00:00.00 393622 N 0 0 0
0:00:00.00 393918 N 0 0 0
0:00:00.00 393934 N 0 0 0
0:00:00.00 394240 N 0 0 0
0:00:00.00 394268 N 0 0 0
0:00:00.00 394553 N 0 0 0
0:00:00.00 394856 N 0 0 0
0:00:00.00 395158 N 0 0 0
0:00:00.00 395173 N 0 0 0
0:00:00.00 395459 N 0 0 0
0:00:00.00 395473 N 0 0 0
0:00:00.00 395760 N 0 0 0
0:00:00.00 395775 N 0 0 0
0:00:00.00 396066 N 0 0 0
0:00:00.00 396082 N 0 0 0
0:00:00.00 396383 N 0 0 0
0:00:00.00 396696 N 0 0 0
0:00:00.00 397007 N 0 0 0
0:00:00.00 397303 N 0 0 0
0:00:00.00 397595 N 0 0 0
0:00:00.00 397897 N 0 0 0
0:00:00.00 397912 N 0 0 0
0:00:00.00 398215 N 0 0 0
0:00:00.00 398231 N 0 0 0
0:00:00.00 398534 N 0 0 0
0:00:00.00 398552 N 0 0 0
0:00:00.00 398788 N 0 0 0
0:00:00.00 399071 N 0 0 0
0:00:00.00 399086 N 0 0 0
0:00:00.00 399368 N 0 0 0
0:00:00.00 399666 N 0 0 0
0:00:00.00 399966 N 0 0 0
0:00:00.00 399983 N 0 0 0
0:00:00.00 400270 N 0 0 0
0:00:00.00 400287 N 0 0 0
0:00:00.00 400583 N 0 0 0
0:00:00.00 400908 N 0 0 0
0:00:00.00 401217 N 0 0 0
0:00:00.00 401233 N 0 0 0
0:00:00.00 401510 N 0 0 0
0:00:00.00 401525 N 0 0 0
0:00:00.00 401806 N 0 0 0
0:00:00.00 401825 N 0 0 0
0:00:00.00 402103 N 0 0 0
0:00:00.00 402119 N 0 0 0
0:00:00.00 402414 N 0 0 0
0:00:00.00 402733 N 0 0 0
0:00:00.00 402751 N 0 0 0
0:00:00.00 403048 N 0 0 0
0:00:00.00 403064 N 0 0 0
0:00:00.00 403357 N 0 0 0
0:00:00.00 403665 N 0 0 0
0:00:00.00 403682 N 0 0 0
0:00:00.00 403961 N 0 0 0
0:00:00.00 403974 N 0 0 0
0:00:00.00 404253 N 0 0 0
0:00:00.00 404270 N 0 0 0
0:00:00.00 404558 N 0 0 0
0:00:00.00 404577 N 0 0 0
0:00:00.00 404870 N 0 0 0
0:00:00.00 405142 N 0 0 0
0:00:00.00 405433 N 0 0 0
0:00:00.00 405451 N 0 0 0
0:00:00.00 405735 N 0 0 0
0:00:00.00 405746 N 0 0 0
0:00:00.00 406025 N 0 0 0
0:00:00.00 406040 N 0 0 0
0:00:00.00 406329 N 0 0 0
0:00:00.00 406346 N 0 0 0
0:00:00.00 406634 N 0 0 0
0:00:00.00 406948 N 0 0 0
0:00:00.00 407260 N 0 0 0
0:00:00.00 407280 N 0 0 0
0:00:00.00 407572 N 0 0 0
0:00:00.00 407590 N 0 0 0
0:00:00.00 407879 N 0 0 0
0:00:00.00 407894 N 0 0 0
0:00:00.00 408179 N 0 0 0
0:00:00.00 408472 N 0 0 0
0:00:00.00 408489 N 0 0 0
0:00:00.00 408769 N 0 0 0
0:00:00.00 408784 N 0 0 0
0:00:00.00 408996 N 0 0 0
0:00:00.00 409296 N 0 0 0
0:00:00.00 409313 N 0 0 0
0:00:00.00 409612 N 0 0 0
0:00:00.00 409628 N 0 0 0
0:00:00.00 409913 N 0 0 0
0:00:00.00 410213 N 0 0 0
0:00:00.00 410229 N 0 0 0
0:00:00.00 410508 N 0 0 0
0:00:00.00 410524 N 0 0 0
0:00:00.00 410811 N 0 0 0
0:00:00.00 410836 N 0 0 0
0:00:00.00 411121 N 0 0 0
0:00:00.00 411136 N 0 0 0
0:00:00.00 411433 N 0 0 0
0:00:00.00 411459 N 0 0 0
0:00:00.00 411749 N 0 0 0
0:00:00.00 411765 N 0 0 0
0:00:00.00 412003 N 0 0 0
0:00:00.00 412276 N 0 0 0
0:00:00.00 412292 N 0 0 0
0:00:00.00 412566 N 0 0 0
0:00:00.00 412583 N 0 0 0
0:00:00.00 412863 N 0 0 0
0:00:00.00 412879 N 0 0 0
0:00:00.00 413166 N 0 0 0
0:00:00.00 413181 N 0 0 0
0:00:00.00 413483 N 0 0 0
0:00:00.00 413501 N 0 0 0
0:00:00.00 413807 N 0 0 0
0:00:00.00 413822 N 0 0 0
0:00:00.00 414118 N 0 0 0
0:00:00.00 414135 N 0 0 0
0:00:00.00 414416 N 0 0 0
0:00:00.00 414432 N 0 0 0
0:00:00.00 414718 N 0 0 0
0:00:00.00 414734 N 0 0 0
0:00:00.00 415018 N 0 0 0
0:00:00.00 415033 N 0 0 0
0:00:00.00 415322 N 0 0 0
0:00:00.00 415335 N 0 0 0
0:00:00.00 415632 N 0 0 0
0:00:00.00 415948 N 0 0 0
0:00:00.00 415963 N 0 0 0
0:00:00.00 416193 N 0 0 0
0:00:00.00 416475 N 0 0 0
0:00:00.00 416492 N 0 0 0
0:00:00.00 416771 N 0 0 0
0:00:00.00 416789 N 0 0 0
0:00:00.00 417065 N 0 0 0
0:00:00.00 417079 N 0 0 0
0:00:00.00 417365 N 0 0 0
0:00:00.00 417381 N 0 0 0
0:00:00.00 417685 N 0 0 0
0:00:00.00 417703 N 0 0 0
0:00:00.00 418003 N 0 0 0
0:00:00.00 418021 N 0 0 0
0:00:00.00 418311 N 0 0 0
0:00:00.00 418328 N 0 0 0
0:00:00.00 418617 N 0 0 0
0:00:00.00 418633 N 0 0 0
0:00:00.00 418913 N 0 0 0
0:00:00.00 418931 N 0 0 0
0:00:00.00 419158 N 0 0 0
0:00:00.00 419434 N 0 0 0
0:00:00.00 419446 N 0 0 0
0:00:00.00 419741 N 0 0 0
0:00:00.00 419758 N 0 0 0
0:00:00.00 420051 N 0 0 0
0:00:00.00 420068 N 0 0 0
0:00:00.00 420373 N 0 0 0
0:00:00.00 420682 N 0 0 0
0:00:00.00 420978 N 0 0 0
0:00:00.00 420990 N 0 0 0
0:00:00.00 421273 N 0 0 0
0:00:00.00 421285 N 0 0 0
0:00:00.00 421571 N 0 0 0
0:00:00.00 421586 N 0 0 0
0:00:00.00 421881 N 0 0 0
0:00:00.00 421900 N 0 0 0
0:00:00.00 422150 N 0 0 0
0:00:00.00 422438 N 0 0 0
0:00:00.00 422454 N 0 0 0
0:00:00.00 422746 N 0 0 0
0:00:00.00 422765 N 0 0 0
0:00:00.00 423051 N 0 0 0
0:00:00.00 423068 N 0 0 0
0:00:00.00 423351 N 0 0 0
0:00:00.00 423374 N 0 0 0
0:00:00.00 423650 N 0 0 0
0:00:00.00 423664 N 0 0 0
0:00:00.00 423950 N 0 0 0
0:00:00.00 423966 N 0 0 0
0:00:00.00 424264 N 0 0 0
0:00:00.00 424281 N 0 0 0
0:00:00.00 424576 N 0 0 0
0:00:00.00 424601 N 0 0 0
0:00:00.00 424896 N 0 0 0
0:00:00.00 424914 N 0 0 0
0:00:00.00 425197 N 0 0 0
0:00:00.00 425212 N 0 0 0
0:00:00.00 425490 N 0 0 0
0:00:00.00 425504 N 0 0 0
0:00:00.00 425536 N 0 0 0
0:00:00.00 425724 N 0 0 0
0:00:00.00 426008 N 0 0 0
0:00:00.00 426027 N 0 0 0
0:00:00.00 426324 N 0 0 0
0:00:00.00 426343 N 0 0 0
0:00:00.00 426637 N 0 0 0
0:00:00.00 426654 N 0 0 0
0:00:00.00 426950 N 0 0 0
0:00:00.00 426967 N 0 0 0
0:00:00.00 427255 N 0 0 0
0:00:00.00 427273 N 0 0 0
0:00:00.00 427555 N 0 0 0
0:00:00.00 427571 N 0 0 0
0:00:00.00 427854 N 0 0 0
0:00:00.00 427868 N 0 0 0
0:00:00.00 428151 N 0 0 0
0:00:00.00 428165 N 0 0 0
0:00:00.00 428198 N 0 0 0
0:00:00.00 428459 N 0 0 0
0:00:00.00 428475 N 0 0 0
0:00:00.00 428785 N 0 0 0
0:00:00.00 428801 N 0 0 0
0:00:00.00 429099 N 0 0 0
0:00:00.00 429116 N 0 0 0
0:00:00.00 429400 N 0 0 0
0:00:00.00 429414 N 0 0 0
0:00:00.00 429696 N 0 0 0
0:00:00.00 429713 N 0 0 0
0:00:00.00 429994 N 0 0 0
0:00:00.00 430008 N 0 0 0
0:00:00.00 430296 N 0 0 0
0:00:00.00 430314 N 0 0 0
0:00:00.00 430612 N 0 0 0
0:00:00.00 430630 N 0 0 0
0:00:00.00 430927 N 0 0 0
0:00:00.00 430944 N 0 0 0
0:00:00.00 431238 N 0 0 0
0:00:00.00 431255 N 0 0 0
0:00:00.00 431484 N 0 0 0
0:00:00.00 431789 N 0 0 0
0:00:00.00 431804 N 0 0 0
0:00:00.00 431828 N 0 0 0
0:00:00.00 432084 N 0 0 0
0:00:00.00 432096 N 0 0 0
0:00:00.00 432378 N 0 0 0
0:00:00.00 432395 N 0 0 0
0:00:00.00 432684 N 0 0 0
0:00:00.00 432700 N 0 0 0
0:00:00.00 433003 N 0 0 0
0:00:00.00 433019 N 0 0 0
0:00:00.00 433325 N 0 0 0
0:00:00.00 433340 N 0 0 0
0:00:00.00 433631 N 0 0 0
0:00:00.00 433646 N 0 0 0
0:00:00.00 433927 N 0 0 0
0:00:00.00 433940 N 0 0 0
0:00:00.00 434229 N 0 0 0
0:00:00.00 434247 N 0 0 0
0:00:00.00 434465 N 0 0 0
0:00:00.00 434784 N 0 0 0
0:00:00.00 434801 N 0 0 0
0:00:00.00 435097 N 0 0 0
0:00:00.00 435112 N 0 0 0
0:00:00.00 435412 N 0 0 0
0:00:00.00 435428 N 0 0 0
0:00:00.00 435725 N 0 0 0
0:00:00.00 435739 N 0 0 0
0:00:00.00 436029 N 0 0 0
0:00:00.00 436043 N 0 0 0
0:00:00.00 436321 N 0 0 0
0:00:00.00 436337 N 0 0 0
0:00:00.00 436615 N 0 0 0
0:00:00.00 436630 N 0 0 0
0:00:00.00 436921 N 0 0 0
0:00:00.00 436939 N 0 0 0
0:00:00.00 437242 N 0 0 0
0:00:00.00 437257 N 0 0 0
0:00:00.00 437560 N 0 0 0
0:00:00.00 437574 N 0 0 0
0:00:00.00 437866 N 0 0 0
0:00:00.00 437882 N 0 0 0
0:00:00.00 438169 N 0 0 0
0:00:00.00 438183 N 0 0 0
0:00:00.00 438466 N 0 0 0
0:00:00.00 438482 N 0 0 0
0:00:00.00 438767 N 0 0 0
0:00:00.00 438784 N 0 0 0
0:00:00.00 439071 N 0 0 0
0:00:00.00 439087 N 0 0 0
0:00:00.00 439380 N 0 0 0
0:00:00.00 439396 N 0 0 0
0:00:00.00 439698 N 0 0 0
0:00:00.00 439714 N 0 0 0
0:00:00.00 440016 N 0 0 0
0:00:00.00 440032 N 0 0 0
0:00:00.00 440316 N 0 0 0
0:00:00.00 440330 N 0 0 0
0:00:00.00 440608 N 0 0 0
0:00:00.00 440621 N 0 0 0
0:00:00.00 440906 N 0 0 0
0:00:00.00 440923 N 0 0 0
0:00:00.00 441209 N 0 0 0
0:00:00.00 441225 N 0 0 0
0:00:00.00 441526 N 0 0 0
0:00:00.00 441844 N 0 0 0
0:00:00.00 441861 N 0 0 0
0:00:00.00 442154 N 0 0 0
0:00:00.00 442169 N 0 0 0
0:00:00.00 442460 N 0 0 0
0:00:00.00 442475 N 0 0 0
0:00:00.00 442762 N 0 0 0
0:00:00.00 442775 N 0 0 0
0:00:00.00 443059 N 0 0 0
0:00:00.00 443073 N 0 0 0
0:00:00.00 443358 N 0 0 0
0:00:00.00 443374 N 0 0 0
0:00:00.00 443673 N 0 0 0
0:00:00.00 443688 N 0 0 0
0:00:00.00 443987 N 0 0 0
0:00:00.00 444005 N 0 0 0
0:00:00.00 444305 N 0 0 0
0:00:00.00 444322 N 0 0 0
0:00:00.00 444606 N 0 0 0
0:00:00.00 444626 N 0 0 0
0:00:00.00 444898 N 0 0 0
0:00:00.00 444913 N 0 0 0
0:00:00.00 445196 N 0 0 0
0:00:00.00 445210 N 0 0 0
0:00:00.00 445505 N 0 0 0
0:00:00.00 445521 N 0 0 0
0:00:00.00 445822 N 0 0 0
0:00:00.00 445837 N 0 0 0
0:00:00.00 446134 N 0 0 0
0:00:00.00 446153 N 0 0 0
0:00:00.00 446448 N 0 0 0
0:00:00.00 446464 N 0 0 0
0:00:00.00 446751 N 0 0 0
0:00:00.00 446775 N 0 0 0
0:00:00.00 447051 N 0 0 0
0:00:00.00 447070 N 0 0 0
0:00:00.00 447345 N 0 0 0
0:00:00.00 447361 N 0 0 0
0:00:00.00 447644 N 0 0 0
0:00:00.00 447660 N 0 0 0
0:00:00.00 447958 N 0 0 0
0:00:00.00 447976 N 0 0 0
0:00:00.00 448282 N 0 0 0
0:00:00.00 448596 N 0 0 0
0:00:00.00 448611 N 0 0 0
0:00:00.00 448895 N 0 0 0
0:00:00.00 448909 N 0 0 0
0:00:00.00 449191 N 0 0 0
0:00:00.00 449206 N 0 0 0
0:00:00.00 449485 N 0 0 0
0:00:00.00 449500 N 0 0 0
0:00:00.00 449791 N 0 0 0
0:00:00.00 450104 N 0 0 0
0:00:00.00 450420 N 0 0 0
0:00:00.00 450733 N 0 0 0
0:00:00.00 451048 N 0 0 0
0:00:00.00 451062 N 0 0 0
0:00:00.00 451343 N 0 0 0
0:00:00.00 451361 N 0 0 0
0:00:00.00 451633 N 0 0 0
0:00:00.00 451933 N 0 0 0
0:00:00.00 451950 N 0 0 0
0:00:00.00 452242 N 0 0 0
0:00:00.00 452562 N 0 0 0
0:00:00.00 452581 N 0 0 0
0:00:00.00 452879 N 0 0 0
0:00:00.00 453184 N 0 0 0
0:00:00.00 453208 N 0 0 0
0:00:00.00 453479 N 0 0 0
0:00:00.00 453501 N 0 0 0
0:00:00.00 453784 N 0 0 0
0:00:00.00 454085 N 0 0 0
0:00:00.00 454105 N 0 0 0
0:00:00.00 454394 N 0 0 0
0:00:00.00 454411 N 0 0 0
0:00:00.00 454710 N 0 0 0
0:00:00.00 454729 N 0 0 0
0:00:00.00 454969 N 0 0 0
0:00:00.00 455284 N 0 0 0
0:00:00.00 455301 N 0 0 0
0:00:00.00 455589 N 0 0 0
0:00:00.00 455602 N 0 0 0
0:00:00.00 455881 N 0 0 0
0:00:00.00 455898 N 0 0 0
0:00:00.00 456176 N 0 0 0
0:00:00.00 456191 N 0 0 0
0:00:00.00 456489 N 0 0 0
0:00:00.00 456508 N 0 0 0
0:00:00.00 456809 N 0 0 0
0:00:00.00 456827 N 0 0 0
0:00:00.00 457122 N 0 0 0
0:00:00.00 457141 N 0 0 0
0:00:00.00 457425 N 0 0 0
0:00:00.00 457441 N 0 0 0
0:00:00.00 457726 N 0 0 0
0:00:00.00 457742 N 0 0 0
0:00:00.00 458026 N 0 0 0
0:00:00.00 458039 N 0 0 0
0:00:00.00 458064 N 0 0 0
0:00:00.00 458330 N 0 0 0
0:00:00.00 458346 N 0 0 0
0:00:00.00 458636 N 0 0 0
0:00:00.00 458948 N 0 0 0
0:00:00.00 458966 N 0 0 0
0:00:00.00 459268 N 0 0 0
0:00:00.00 459284 N 0 0 0
0:00:00.00 459579 N 0 0 0
0:00:00.00 459594 N 0 0 0
0:00:00.00 459876 N 0 0 0
0:00:00.00 459890 N 0 0 0
0:00:00.00 460167 N 0 0 0
0:00:00.00 460182 N 0 0 0
0:00:00.00 460469 N 0 0 0
0:00:00.00 460482 N 0 0 0
0:00:00.00 460774 N 0 0 0
0:00:00.00 460792 N 0 0 0
0:00:00.00 461095 N 0 0 0
0:00:00.00 461117 N 0 0 0
0:00:00.00 461411 N 0 0 0
0:00:00.00 461428 N 0 0 0
0:00:00.00 461716 N 0 0 0
0:00:00.00 461734 N 0 0 0
0:00:00.00 462019 N 0 0 0
0:00:00.00 462034 N 0 0 0
0:00:00.00 462321 N 0 0 0
0:00:00.00 462337 N 0 0 0
0:00:00.00 462621 N 0 0 0
0:00:00.00 462636 N 0 0 0
0:00:00.00 462925 N 0 0 0
0:00:00.00 462941 N 0 0 0
0:00:00.00 463242 N 0 0 0
0:00:00.00 463260 N 0 0 0
0:00:00.00 463556 N 0 0 0
0:00:00.00 463573 N 0 0 0
0:00:00.00 463869 N 0 0 0
0:00:00.00 463885 N 0 0 0
0:00:00.00 464166 N 0 0 0
0:00:00.00 464181 N 0 0 0
0:00:00.00 464459 N 0 0 0
0:00:00.00 464473 N 0 0 0
0:00:00.00 464758 N 0 0 0
0:00:00.00 464776 N 0 0 0
0:00:00.00 465073 N 0 0 0
0:00:00.00 465089 N 0 0 0
0:00:00.00 465391 N 0 0 0
0:00:00.00 465409 N 0 0 0
0:00:00.00 465703 N 0 0 0
0:00:00.00 465719 N 0 0 0
0:00:00.00 466014 N 0 0 0
0:00:00.00 466030 N 0 0 0
0:00:00.00 466313 N 0 0 0
0:00:00.00 466329 N 0 0 0
0:00:00.00 466614 N 0 0 0
0:00:00.00 466630 N 0 0 0
0:00:00.00 466912 N 0 0 0
0:00:00.00 466926 N 0 0 0
0:00:00.00 467215 N 0 0 0
0:00:00.00 467230 N 0 0 0
0:00:00.00 467530 N 0 0 0
0:00:00.00 467548 N 0 0 0
0:00:00.00 467855 N 0 0 0
0:00:00.00 467871 N 0 0 0
0:00:00.00 468164 N 0 0 0
0:00:00.00 468181 N 0 0 0
0:00:00.00 468458 N 0 0 0
0:00:00.00 468474 N 0 0 0
0:00:00.00 468755 N 0 0 0
0:00:00.00 468770 N 0 0 0
0:00:00.00 469052 N 0 0 0
0:00:00.00 469360 N 0 0 0
0:00:00.00 469379 N 0 0 0
0:00:00.00 469677 N 0 0 0
0:00:00.00 469694 N 0 0 0
0:00:00.00 469992 N 0 0 0
0:00:00.00 470012 N 0 0 0
0:00:00.00 470304 N 0 0 0
0:00:00.00 470321 N 0 0 0
0:00:00.00 470613 N 0 0 0
0:00:00.00 470627 N 0 0 0
0:00:00.00 470908 N 0 0 0
0:00:00.00 471200 N 0 0 0
0:00:00.00 471505 N 0 0 0
0:00:00.00 471520 N 0 0 0
0:00:00.00 471816 N 0 0 0
0:00:00.00 471833 N 0 0 0
0:00:00.00 472136 N 0 0 0
0:00:00.00 472154 N 0 0 0
0:00:00.00 472450 N 0 0 0
0:00:00.00 472464 N 0 0 0
0:00:00.00 472749 N 0 0 0
0:00:00.00 472761 N 0 0 0
0:00:00.00 473043 N 0 0 0
0:00:00.00 473059 N 0 0 0
0:00:00.00 473350 N 0 0 0
0:00:00.00 473364 N 0 0 0
0:00:00.00 473657 N 0 0 0
0:00:00.00 473967 N 0 0 0
0:00:00.00 474284 N 0 0 0
0:00:00.00 474595 N 0 0 0
0:00:00.00 474616 N 0 0 0
0:00:00.00 474901 N 0 0 0
0:00:00.00 474918 N 0 0 0
0:00:00.00 475196 N 0 0 0
0:00:00.00 475209 N 0 0 0
0:00:00.00 475490 N 0 0 0
0:00:00.00 475794 N 0 0 0
0:00:00.00 476117 N 0 0 0
0:00:00.00 476133 N 0 0 0
0:00:00.00 476434 N 0 0 0
0:00:00.00 476740 N 0 0 0
0:00:00.00 477040 N 0 0 0
0:00:00.00 477334 N 0 0 0
0:00:00.00 477352 N 0 0 0
0:00:00.00 477637 N 0 0 0
0:00:00.00 477654 N 0 0 0
0:00:00.00 477941 N 0 0 0
0:00:00.00 478256 N 0 0 0
0:00:00.00 478273 N 0 0 0
0:00:00.00 478572 N 0 0 0
0:00:00.00 478588 N 0 0 0
0:00:00.00 478892 N 0 0 0
0:00:00.00 479193 N 0 0 0
0:00:00.00 479206 N 0 0 0
0:00:00.00 479482 N 0 0 0
0:00:00.00 479495 N 0 0 0
0:00:00.00 479778 N 0 0 0
0:00:00.00 480081 N 0 0 0
0:00:00.00 480097 N 0 0 0
0:00:00.00 480398 N 0 0 0
0:00:00.00 480415 N 0 0 0
0:00:00.00 480714 N 0 0 0
0:00:00.00 481025 N 0 0 0
0:00:00.00 481328 N 0 0 0
0:00:00.00 481344 N 0 0 0
0:00:00.00 481633 N 0 0 0
0:00:00.00 481654 N 0 0 0
0:00:00.00 481931 N 0 0 0
0:00:00.00 482230 N 0 0 0
0:00:00.00 482254 N 0 0 0
0:00:00.00 482545 N 0 0 0
0:00:00.00 482562 N 0 0 0
0:00:00.00 482857 N 0 0 0
0:00:00.00 483176 N 0 0 0
0:00:00.00 483193 N 0 0 0
0:00:00.00 483480 N 0 0 0
0:00:00.00 483496 N 0 0 0
0:00:00.00 483773 N 0 0 0
0:00:00.00 483786 N 0 0 0
0:00:00.00 484066 N 0 0 0
0:00:00.00 484085 N 0 0 0
0:00:00.00 484378 N 0 0 0
0:00:00.00 484394 N 0 0 0
0:00:00.00 484692 N 0 0 0
0:00:00.00 485003 N 0 0 0
0:00:00.00 485020 N 0 0 0
0:00:00.00 485316 N 0 0 0
0:00:00.00 485334 N 0 0 0
0:00:00.00 485619 N 0 0 0
0:00:00.00 485637 N 0 0 0
0:00:00.00 485921 N 0 0 0
0:00:00.00 486219 N 0 0 0
0:00:00.00 486238 N 0 0 0
0:00:00.00 486519 N 0 0 0
0:00:00.00 486534 N 0 0 0
0:00:00.00 486829 N 0 0 0
0:00:00.00 487156 N 0 0 0
0:00:00.00 487172 N 0 0 0
0:00:00.00 487468 N 0 0 0
0:00:00.00 487767 N 0 0 0
0:00:00.00 487784 N 0 0 0
0:00:00.00 488062 N 0 0 0
0:00:00.00 488075 N 0 0 0
0:00:00.00 488356 N 0 0 0
0:00:00.00 488371 N 0 0 0
0:00:00.00 488661 N 0 0 0
0:00:00.00 488677 N 0 0 0
0:00:00.00 488974 N 0 0 0
0:00:00.00 489291 N 0 0 0
0:00:00.00 489602 N 0 0 0
0:00:00.00 489621 N 0 0 0
0:00:00.00 489916 N 0 0 0
0:00:00.00 490213 N 0 0 0
0:00:00.00 490226 N 0 0 0
0:00:00.00 490505 N 0 0 0
0:00:00.00 490805 N 0 0 0
0:00:00.00 490821 N 0 0 0
0:00:00.00 491115 N 0 0 0
0:00:00.00 491131 N 0 0 0
0:00:00.00 491433 N 0 0 0
0:00:00.00 491451 N 0 0 0
0:00:00.00 491753 N 0 0 0
0:00:00.00 491767 N 0 0 0
0:00:00.00 492058 N 0 0 0
0:00:00.00 492072 N 0 0 0
0:00:00.00 492349 N 0 0 0
0:00:00.00 492366 N 0 0 0
0:00:00.00 492651 N 0 0 0
0:00:00.00 492667 N 0 0 0
0:00:00.00 492953 N 0 0 0
0:00:00.00 492972 N 0 0 0
0:00:00.00 493264 N 0 0 0
0:00:00.00 493279 N 0 0 0
0:00:00.00 493579 N 0 0 0
0:00:00.00 493596 N 0 0 0
0:00:00.00 493893 N 0 0 0
0:00:00.00 493909 N 0 0 0
0:00:00.00 494203 N 0 0 0
0:00:00.00 494218 N 0 0 0
0:00:00.00 494508 N 0 0 0
0:00:00.00 494523 N 0 0 0
0:00:00.00 494801 N 0 0 0
0:00:00.00 494816 N 0 0 0
0:00:00.00 495096 N 0 0 0
0:00:00.00 495112 N 0 0 0
0:00:00.00 495409 N 0 0 0
0:00:00.00 495430 N 0 0 0
0:00:00.00 495730 N 0 0 0
0:00:00.00 495746 N 0 0 0
0:00:00.00 496043 N 0 0 0
0:00:00.00 496060 N 0 0 0
0:00:00.00 496345 N 0 0 0
0:00:00.00 496359 N 0 0 0
0:00:00.00 496643 N 0 0 0
0:00:00.00 496656 N 0 0 0
0:00:00.00 496941 N 0 0 0
0:00:00.00 496956 N 0 0 0
0:00:00.00 497245 N 0 0 0
0:00:00.00 497260 N 0 0 0
0:00:00.00 497553 N 0 0 0
0:00:00.00 497571 N 0 0 0
0:00:00.00 497793 N 0 0 0
0:00:00.00 498082 N 0 0 0
0:00:00.00 498099 N 0 0 0
0:00:00.00 498132 N 0 0 0
0:00:00.00 498402 N 0 0 0
0:00:00.00 498417 N 0 0 0
0:00:00.00 498699 N 0 0 0
0:00:00.00 498715 N 0 0 0
0:00:00.00 498989 N 0 0 0
0:00:00.00 499004 N 0 0 0
0:00:00.00 499287 N 0 0 0
0:00:00.00 499302 N 0 0 0
0:00:00.00 499337 N 0 0 0
0:00:00.00 499590 N 0 0 0
0:00:00.00 499610 N 0 0 0
0:00:00.00 499910 N 0 0 0
0:00:00.00 499928 N 0 0 0
0:00:00.00 500228 N 0 0 0
0:00:00.00 500245 N 0 0 0
0:00:00.00 500538 N 0 0 0
0:00:00.00 500552 N 0 0 0
0:00:00.00 500835 N 0 0 0
0:00:00.00 500852 N 0 0 0
0:00:00.00 501140 N 0 0 0
0:00:00.00 501155 N 0 0 0
0:00:00.00 501439 N 0 0 0
0:00:00.00 501456 N 0 0 0
0:00:00.00 501742 N 0 0 0
0:00:00.00 501756 N 0 0 0
0:00:00.00 502058 N 0 0 0
0:00:00.00 502072 N 0 0 0
0:00:00.00 502373 N 0 0 0
0:00:00.00 502388 N 0 0 0
0:00:00.00 502688 N 0 0 0
0:00:00.00 502705 N 0 0 0
0:00:00.00 502992 N 0 0 0
0:00:00.00 503005 N 0 0 0
0:00:00.00 503220 N 0 0 0
0:00:00.00 503242 N 0 0 0
0:00:00.00 503506 N 0 0 0
0:00:00.00 503520 N 0 0 0
0:00:00.00 503553 N 0 0 0
0:00:00.00 503813 N 0 0 0
0:00:00.00 503831 N 0 0 0
0:00:00.00 504131 N 0 0 0
0:00:00.00 504147 N 0 0 0
0:00:00.00 504447 N 0 0 0
0:00:00.00 504461 N 0 0 0
0:00:00.00 504756 N 0 0 0
0:00:00.00 504769 N 0 0 0
0:00:00.00 505061 N 0 0 0
0:00:00.00 505072 N 0 0 0
0:00:00.00 505099 N 0 0 0
0:00:00.00 505361 N 0 0 0
0:00:00.00 505371 N 0 0 0
0:00:00.00 505663 N 0 0 0
0:00:00.00 505677 N 0 0 0
0:00:00.00 505963 N 0 0 0
0:00:00.00 505977 N 0 0 0
0:00:00.00 506237 N 0 0 0
0:00:00.00 506267 N 0 0 0
0:00:00.00 506554 N 0 0 0
0:00:00.00 506569 N 0 0 0
0:00:00.00 506603 N 0 0 0
0:00:00.00 506885 N 0 0 0
0:00:00.00 507178 N 0 0 0
0:00:00.00 507189 N 0 0 0
0:00:00.00 507469 N 0 0 0
0:00:00.00 507481 N 0 0 0
0:00:00.00 507765 N 0 0 0
0:00:00.00 507778 N 0 0 0
0:00:00.00 508065 N 0 0 0
0:00:00.00 508081 N 0 0 0
0:00:00.00 508381 N 0 0 0
0:00:00.00 508396 N 0 0 0
0:00:00.00 508696 N 0 0 0
0:00:00.00 508713 N 0 0 0
0:00:00.00 509006 N 0 0 0
0:00:00.00 509020 N 0 0 0
0:00:00.00 509217 N 0 0 0
0:00:00.00 509247 N 0 0 0
0:00:00.00 509524 N 0 0 0
0:00:00.00 509539 N 0 0 0
0:00:00.00 509821 N 0 0 0
0:00:00.00 509836 N 0 0 0
0:00:00.00 510116 N 0 0 0
0:00:00.00 510130 N 0 0 0
0:00:00.00 510421 N 0 0 0
0:00:00.00 510734 N 0 0 0
0:00:00.00 511009 N 0 0 0
0:00:00.00 511298 N 0 0 0
0:00:00.00 511313 N 0 0 0
0:00:00.00 511597 N 0 0 0
0:00:00.00 511619 N 0 0 0
0:00:00.00 511845 N 0 0 0
0:00:00.00 512120 N 0 0 0
0:00:00.00 512139 N 0 0 0
0:00:00.00 512424 N 0 0 0
0:00:00.00 512440 N 0 0 0
0:00:00.00 512736 N 0 0 0
0:00:00.00 512975 N 0 0 0
0:00:00.00 513265 N 0 0 0
0:00:00.00 513280 N 0 0 0
0:00:00.00 513572 N 0 0 0
0:00:00.00 513587 N 0 0 0
0:00:00.00 513876 N 0 0 0
0:00:00.00 513902 N 0 0 0
0:00:00.00 514101 N 0 0 0
0:00:00.00 514373 N 0 0 0
0:00:00.00 514386 N 0 0 0
0:00:00.00 514928 N 0 0 0
0:00:00.00 514943 N 0 0 0
0:00:00.00 515244 N 0 0 0
0:00:00.00 515554 N 0 0 0
0:00:00.00 515570 N 0 0 0
0:00:00.00 515855 N 0 0 0
0:00:00.00 515870 N 0 0 0
0:00:00.00 516149 N 0 0 0
0:00:00.00 516448 N 0 0 0
0:00:00.00 516461 N 0 0 0
0:00:00.00 516755 N 0 0 0
0:00:00.00 517066 N 0 0 0
0:00:00.00 517082 N 0 0 0
0:00:00.00 517380 N 0 0 0
0:00:00.00 517396 N 0 0 0
0:00:00.00 517700 N 0 0 0
0:00:00.00 517714 N 0 0 0
0:00:00.00 518007 N 0 0 0
0:00:00.00 518023 N 0 0 0
0:00:00.00 518301 N 0 0 0
0:00:00.00 518317 N 0 0 0
0:00:00.00 518594 N 0 0 0
0:00:00.00 518608 N 0 0 0
0:00:00.00 518895 N 0 0 0
0:00:00.00 518911 N 0 0 0
0:00:00.00 519209 N 0 0 0
0:00:00.00 519530 N 0 0 0
0:00:00.00 519548 N 0 0 0
0:00:00.00 519841 N 0 0 0
0:00:00.00 520142 N 0 0 0
0:00:00.00 520163 N 0 0 0
0:00:00.00 520444 N 0 0 0
0:00:00.00 520462 N 0 0 0
0:00:00.00 520742 N 0 0 0
0:00:00.00 520765 N 0 0 0
0:00:00.00 521041 N 0 0 0
0:00:00.00 521056 N 0 0 0
0:00:00.00 521352 N 0 0 0
0:00:00.00 521670 N 0 0 0
0:00:00.00 521689 N 0 0 0
0:00:00.00 521987 N 0 0 0
0:00:00.00 522006 N 0 0 0
0:00:00.00 522298 N 0 0 0
0:00:00.00 522322 N 0 0 0
0:00:00.00 522595 N 0 0 0
0:00:00.00 522608 N 0 0 0
0:00:00.00 522882 N 0 0 0
0:00:00.00 523187 N 0 0 0
0:00:00.00 523502 N 0 0 0
0:00:00.00 523817 N 0 0 0
0:00:00.00 524127 N 0 0 0
0:00:00.00 524141 N 0 0 0
0:00:00.00 524432 N 0 0 0
0:00:00.00 524445 N 0 0 0
0:00:00.00 524731 N 0 0 0
0:00:00.00 525035 N 0 0 0
0:00:00.00 525049 N 0 0 0
0:00:00.00 525332 N 0 0 0
0:00:00.00 525350 N 0 0 0
0:00:00.00 525640 N 0 0 0
0:00:00.00 525656 N 0 0 0
0:00:00.00 525964 N 0 0 0
0:00:00.00 525982 N 0 0 0
0:00:00.00 526281 N 0 0 0
0:00:00.00 526298 N 0 0 0
0:00:00.00 526586 N 0 0 0
0:00:00.00 526601 N 0 0 0
0:00:00.00 526879 N 0 0 0
0:00:00.00 526893 N 0 0 0
0:00:00.00 527174 N 0 0 0
0:00:00.00 527190 N 0 0 0
0:00:00.00 527476 N 0 0 0
0:00:00.00 527491 N 0 0 0
0:00:00.00 527790 N 0 0 0
0:00:00.00 527807 N 0 0 0
0:00:00.00 528103 N 0 0 0
0:00:00.00 528414 N 0 0 0
0:00:00.00 528429 N 0 0 0
0:00:00.00 528724 N 0 0 0
0:00:00.00 529026 N 0 0 0
0:00:00.00 529047 N 0 0 0
0:00:00.00 529325 N 0 0 0
0:00:00.00 529338 N 0 0 0
0:00:00.00 529620 N 0 0 0
0:00:00.00 529635 N 0 0 0
0:00:00.00 529932 N 0 0 0
0:00:00.00 529948 N 0 0 0
0:00:00.00 530249 N 0 0 0
0:00:00.00 530266 N 0 0 0
0:00:00.00 530567 N 0 0 0
0:00:00.00 530587 N 0 0 0
0:00:00.00 530873 N 0 0 0
0:00:00.00 530888 N 0 0 0
0:00:00.00 531167 N 0 0 0
0:00:00.00 531181 N 0 0 0
0:00:00.00 531465 N 0 0 0
0:00:00.00 531478 N 0 0 0
0:00:00.00 531768 N 0 0 0
0:00:00.00 532077 N 0 0 0
0:00:00.00 532091 N 0 0 0
0:00:00.00 532391 N 0 0 0
0:00:00.00 532408 N 0 0 0
0:00:00.00 532707 N 0 0 0
0:00:00.00 532724 N 0 0 0
0:00:00.00 533014 N 0 0 0
0:00:00.00 533030 N 0 0 0
0:00:00.00 533318 N 0 0 0
0:00:00.00 533334 N 0 0 0
0:00:00.00 533614 N 0 0 0
0:00:00.00 533633 N 0 0 0
0:00:00.00 533911 N 0 0 0
0:00:00.00 533927 N 0 0 0
0:00:00.00 534221 N 0 0 0
0:00:00.00 534239 N 0 0 0
0:00:00.00 534545 N 0 0 0
0:00:00.00 534563 N 0 0 0
0:00:00.00 534861 N 0 0 0
0:00:00.00 534875 N 0 0 0
0:00:00.00 535162 N 0 0 0
0:00:00.00 535176 N 0 0 0
0:00:00.00 535459 N 0 0 0
0:00:00.00 535474 N 0 0 0
0:00:00.00 535751 N 0 0 0
0:00:00.00 535771 N 0 0 0
0:00:00.00 536055 N 0 0 0
0:00:00.00 536071 N 0 0 0
0:00:00.00 536362 N 0 0 0
0:00:00.00 536379 N 0 0 0
0:00:00.00 536679 N 0 0 0
0:00:00.00 536696 N 0 0 0
0:00:00.00 536995 N 0 0 0
0:00:00.00 537013 N 0 0 0
0:00:00.00 537313 N 0 0 0
0:00:00.00 537327 N 0 0 0
0:00:00.00 537612 N 0 0 0
0:00:00.00 537624 N 0 0 0
0:00:00.00 537902 N 0 0 0
0:00:00.00 537918 N 0 0 0
0:00:00.00 538203 N 0 0 0
0:00:00.00 538218 N 0 0 0
0:00:00.00 538509 N 0 0 0
0:00:00.00 538523 N 0 0 0
0:00:00.00 538828 N 0 0 0
0:00:00.00 538842 N 0 0 0
0:00:00.00 539145 N 0 0 0
0:00:00.00 539159 N 0 0 0
0:00:00.00 539453 N 0 0 0
0:00:00.00 539466 N 0 0 0
0:00:00.00 539748 N 0 0 0
0:00:00.00 539763 N 0 0 0
0:00:00.00 540052 N 0 0 0
0:00:00.00 540065 N 0 0 0
0:00:00.00 540351 N 0 0 0
0:00:00.00 540654 N 0 0 0
0:00:00.00 541180 N 0 0 0
0:00:00.00 541494 N 0 0 0
0:00:00.00 541508 N 0 0 0
0:00:00.00 541804 N 0 0 0
0:00:00.00 541817 N 0 0 0
0:00:00.00 542097 N 0 0 0
0:00:00.00 542389 N 0 0 0
0:00:00.00 542403 N 0 0 0
0:00:00.00 542695 N 0 0 0
0:00:00.00 542965 N 0 0 0
0:00:00.00 543285 N 0 0 0
0:00:00.00 543305 N 0 0 0
0:00:00.00 543594 N 0 0 0
0:00:00.00 543611 N 0 0 0
0:00:00.00 543901 N 0 0 0
0:00:00.00 543919 N 0 0 0
0:00:00.00 544196 N 0 0 0
0:00:00.00 544216 N 0 0 0
0:00:00.00 544497 N 0 0 0
0:00:00.00 544514 N 0 0 0
0:00:00.00 544796 N 0 0 0
0:00:00.00 544814 N 0 0 0
0:00:00.00 544837 N 0 0 0
0:00:00.00 545106 N 0 0 0
0:00:00.00 545123 N 0 0 0
0:00:00.00 545428 N 0 0 0
0:00:00.00 545446 N 0 0 0
0:00:00.00 545749 N 0 0 0
0:00:00.00 545767 N 0 0 0
0:00:00.00 546057 N 0 0 0
0:00:00.00 546073 N 0 0 0
0:00:00.00 546349 N 0 0 0
0:00:00.00 546368 N 0 0 0
0:00:00.00 546644 N 0 0 0
0:00:00.00 546659 N 0 0 0
0:00:00.00 546943 N 0 0 0
0:00:00.00 546961 N 0 0 0
0:00:00.00 547258 N 0 0 0
0:00:00.00 547274 N 0 0 0
0:00:00.00 547572 N 0 0 0
0:00:00.00 547585 N 0 0 0
0:00:00.00 547884 N 0 0 0
0:00:00.00 548192 N 0 0 0
0:00:00.00 548495 N 0 0 0
0:00:00.00 548793 N 0 0 0
0:00:00.00 548806 N 0 0 0
0:00:00.00 549089 N 0 0 0
0:00:00.00 549107 N 0 0 0
0:00:00.00 549402 N 0 0 0
0:00:00.00 549418 N 0 0 0
0:00:00.00 549720 N 0 0 0
0:00:00.00 549736 N 0 0 0
0:00:00.00 550037 N 0 0 0
0:00:00.00 550055 N 0 0 0
0:00:00.00 550342 N 0 0 0
0:00:00.00 550358 N 0 0 0
0:00:00.00 550637 N 0 0 0
0:00:00.00 550650 N 0 0 0
0:00:00.00 550932 N 0 0 0
0:00:00.00 550946 N 0 0 0
0:00:00.00 551238 N 0 0 0
0:00:00.00 551253 N 0 0 0
0:00:00.00 551549 N 0 0 0
0:00:00.00 551564 N 0 0 0
0:00:00.00 551861 N 0 0 0
0:00:00.00 551878 N 0 0 0
0:00:00.00 552175 N 0 0 0
0:00:00.00 552190 N 0 0 0
0:00:00.00 552480 N 0 0 0
0:00:00.00 552495 N 0 0 0
0:00:00.00 552785 N 0 0 0
0:00:00.00 552799 N 0 0 0
0:00:00.00 553082 N 0 0 0
0:00:00.00 553096 N 0 0 0
0:00:00.00 553378 N 0 0 0
0:00:00.00 553393 N 0 0 0
0:00:00.00 553690 N 0 0 0
0:00:00.00 553706 N 0 0 0
0:00:00.00 554014 N 0 0 0
0:00:00.00 554030 N 0 0 0
0:00:00.00 554520 N 0 0 0
0:00:00.00 554534 N 0 0 0
0:00:00.00 554819 N 0 0 0
0:00:00.00 554832 N 0 0 0
0:00:00.00 555111 N 0 0 0
0:00:00.00 555125 N 0 0 0
0:00:00.00 555412 N 0 0 0
0:00:00.00 555427 N 0 0 0
0:00:00.00 555718 N 0 0 0
0:00:00.00 555732 N 0 0 0
0:00:00.00 556032 N 0 0 0
0:00:00.00 556046 N 0 0 0
0:00:00.00 556346 N 0 0 0
0:00:00.00 556359 N 0 0 0
0:00:00.00 556666 N 0 0 0
0:00:00.00 556681 N 0 0 0
0:00:00.00 556969 N 0 0 0
0:00:00.00 556981 N 0 0 0
0:00:00.00 557259 N 0 0 0
0:00:00.00 557274 N 0 0 0
0:00:00.00 557556 N 0 0 0
0:00:00.00 557572 N 0 0 0
0:00:00.00 557861 N 0 0 0
0:00:00.00 557877 N 0 0 0
0:00:00.00 558180 N 0 0 0
0:00:00.00 558198 N 0 0 0
0:00:00.00 558746 N 0 0 0
0:00:00.00 558760 N 0 0 0
0:00:00.00 559045 N 0 0 0
0:00:00.00 559060 N 0 0 0
0:00:00.00 559346 N 0 0 0
0:00:00.00 559362 N 0 0 0
0:00:00.00 559643 N 0 0 0
0:00:00.00 559658 N 0 0 0
0:00:00.00 559943 N 0 0 0
0:00:00.00 559957 N 0 0 0
0:00:00.00 560253 N 0 0 0
0:00:00.00 560269 N 0 0 0
0:00:00.00 560510 N 0 0 0
0:00:00.00 560833 N 0 0 0
0:00:00.00 560848 N 0 0 0
0:00:00.00 561145 N 0 0 0
0:00:00.00 561161 N 0 0 0
0:00:00.00 561442 N 0 0 0
0:00:00.00 561456 N 0 0 0
0:00:00.00 561734 N 0 0 0
0:00:00.00 561746 N 0 0 0
0:00:00.00 562036 N 0 0 0
0:00:00.00 562050 N 0 0 0
0:00:00.00 562351 N 0 0 0
0:00:00.00 562363 N 0 0 0
0:00:00.00 562667 N 0 0 0
0:00:00.00 562680 N 0 0 0
0:00:00.00 562976 N 0 0 0
0:00:00.00 562991 N 0 0 0
0:00:00.00 563284 N 0 0 0
0:00:00.00 563296 N 0 0 0
0:00:00.00 563581 N 0 0 0
0:00:00.00 563595 N 0 0 0
0:00:00.00 563883 N 0 0 0
0:00:00.00 563898 N 0 0 0
0:00:00.00 564180 N 0 0 0
0:00:00.00 564194 N 0 0 0
0:00:00.00 564484 N 0 0 0
0:00:00.00 564501 N 0 0 0
0:00:00.00 564807 N 0 0 0
0:00:00.00 564824 N 0 0 0
0:00:00.00 565129 N 0 0 0
0:00:00.00 565144 N 0 0 0
0:00:00.00 565437 N 0 0 0
0:00:00.00 565450 N 0 0 0
0:00:00.00 565732 N 0 0 0
0:00:00.00 565745 N 0 0 0
0:00:00.00 565767 N 0 0 0
0:00:00.00 566028 N 0 0 0
0:00:00.00 566041 N 0 0 0
0:00:00.00 566325 N 0 0 0
0:00:00.00 566340 N 0 0 0
0:00:00.00 566637 N 0 0 0
0:00:00.00 566656 N 0 0 0
0:00:00.00 566951 N 0 0 0
0:00:00.00 566968 N 0 0 0
0:00:00.00 567187 N 0 0 0
0:00:00.00 567473 N 0 0 0
0:00:00.00 567489 N 0 0 0
0:00:00.00 567782 N 0 0 0
0:00:00.00 567795 N 0 0 0
0:00:00.00 568078 N 0 0 0
0:00:00.00 568091 N 0 0 0
0:00:00.00 568370 N 0 0 0
0:00:00.00 568386 N 0 0 0
0:00:00.00 568676 N 0 0 0
0:00:00.00 568692 N 0 0 0
0:00:00.00 568919 N 0 0 0
0:00:00.00 569213 N 0 0 0
0:00:00.00 569229 N 0 0 0
0:00:00.00 569533 N 0 0 0
0:00:00.00 569548 N 0 0 0
0:00:00.00 569837 N 0 0 0
0:00:00.00 569854 N 0 0 0
0:00:00.00 570130 N 0 0 0
0:00:00.00 570141 N 0 0 0
0:00:00.00 570428 N 0 0 0
0:00:00.00 570442 N 0 0 0
0:00:00.00 570653 N 0 0 0
0:00:00.00 570937 N 0 0 0
0:00:00.00 570950 N 0 0 0
0:00:00.00 571249 N 0 0 0
0:00:00.00 571265 N 0 0 0
0:00:00.00 571564 N 0 0 0
0:00:00.00 571581 N 0 0 0
0:00:00.00 571871 N 0 0 0
0:00:00.00 571885 N 0 0 0
0:00:00.00 572174 N 0 0 0
0:00:00.00 572189 N 0 0 0
0:00:00.00 572413 N 0 0 0
0:00:00.00 572688 N 0 0 0
0:00:00.00 572700 N 0 0 0
0:00:00.00 572989 N 0 0 0
0:00:00.00 573002 N 0 0 0
0:00:00.00 573312 N 0 0 0
0:00:00.00 573329 N 0 0 0
0:00:00.00 573630 N 0 0 0
0:00:00.00 573646 N 0 0 0
0:00:00.00 573937 N 0 0 0
0:00:00.00 573952 N 0 0 0
0:00:00.00 574236 N 0 0 0
0:00:00.00 574253 N 0 0 0
0:00:00.00 574529 N 0 0 0
0:00:00.00 574542 N 0 0 0
0:00:00.00 574828 N 0 0 0
0:00:00.00 574843 N 0 0 0
0:00:00.00 575136 N 0 0 0
0:00:00.00 575153 N 0 0 0
0:00:00.00 575451 N 0 0 0
0:00:00.00 575466 N 0 0 0
0:00:00.00 575762 N 0 0 0
0:00:00.00 575776 N 0 0 0
0:00:00.00 576081 N 0 0 0
0:00:00.00 576096 N 0 0 0
0:00:00.00 576382 N 0 0 0
0:00:00.00 576395 N 0 0 0
0:00:00.00 576678 N 0 0 0
0:00:00.00 576690 N 0 0 0
0:00:00.00 576974 N 0 0 0
0:00:00.00 576989 N 0 0 0
0:00:00.00 577280 N 0 0 0
0:00:00.00 577293 N 0 0 0
0:00:00.00 577597 N 0 0 0
0:00:00.00 577612 N 0 0 0
0:00:00.00 577918 N 0 0 0
0:00:00.00 578228 N 0 0 0
0:00:00.00 578526 N 0 0 0
0:00:00.00 578824 N 0 0 0
0:00:00.00 578836 N 0 0 0
0:00:00.00 579124 N 0 0 0
0:00:00.00 579138 N 0 0 0
0:00:00.00 579427 N 0 0 0
0:00:00.00 579440 N 0 0 0
0:00:00.00 579737 N 0 0 0
0:00:00.00 579752 N 0 0 0
0:00:00.00 580056 N 0 0 0
0:00:00.00 580071 N 0 0 0
0:00:00.00 580371 N 0 0 0
0:00:00.00 580388 N 0 0 0
0:00:00.00 580680 N 0 0 0
0:00:00.00 580695 N 0 0 0
0:00:00.00 580976 N 0 0 0
0:00:00.00 580992 N 0 0 0
0:00:00.00 581267 N 0 0 0
0:00:00.00 581283 N 0 0 0
0:00:00.00 581574 N 0 0 0
0:00:00.00 581593 N 0 0 0
0:00:00.00 581894 N 0 0 0
0:00:00.00 581911 N 0 0 0
0:00:00.00 582209 N 0 0 0
0:00:00.00 582224 N 0 0 0
0:00:00.00 582517 N 0 0 0
0:00:00.00 582532 N 0 0 0
0:00:00.00 582823 N 0 0 0
0:00:00.00 582837 N 0 0 0
0:00:00.00 583118 N 0 0 0
0:00:00.00 583134 N 0 0 0
0:00:00.00 583420 N 0 0 0
0:00:00.00 583437 N 0 0 0
0:00:00.00 583719 N 0 0 0
0:00:00.00 583736 N 0 0 0
0:00:00.00 584028 N 0 0 0
0:00:00.00 584042 N 0 0 0
0:00:00.00 584350 N 0 0 0
0:00:00.00 584370 N 0 0 0
0:00:00.00 584671 N 0 0 0
0:00:00.00 584685 N 0 0 0
0:00:00.00 584975 N 0 0 0
0:00:00.00 584989 N 0 0 0
0:00:00.00 585267 N 0 0 0
0:00:00.00 585282 N 0 0 0
0:00:00.00 585564 N 0 0 0
0:00:00.00 585578 N 0 0 0
0:00:00.00 585867 N 0 0 0
0:00:00.00 585881 N 0 0 0
0:00:00.00 586185 N 0 0 0
0:00:00.00 586201 N 0 0 0
0:00:00.00 586497 N 0 0 0
0:00:00.00 586512 N 0 0 0
0:00:00.00 586804 N 0 0 0
0:00:00.00 586821 N 0 0 0
0:00:00.00 587113 N 0 0 0
0:00:00.00 587128 N 0 0 0
0:00:00.00 587413 N 0 0 0
0:00:00.00 587427 N 0 0 0
0:00:00.00 587451 N 0 0 0
0:00:00.00 587710 N 0 0 0
0:00:00.00 587727 N 0 0 0
0:00:00.00 588008 N 0 0 0
0:00:00.00 588023 N 0 0 0
0:00:00.00 588322 N 0 0 0
0:00:00.00 588338 N 0 0 0
0:00:00.00 588641 N 0 0 0
0:00:00.00 588657 N 0 0 0
0:00:00.00 588960 N 0 0 0
0:00:00.00 588975 N 0 0 0
0:00:00.00 589263 N 0 0 0
0:00:00.00 589277 N 0 0 0
0:00:00.00 589558 N 0 0 0
0:00:00.00 589569 N 0 0 0
0:00:00.00 589855 N 0 0 0
0:00:00.00 590161 N 0 0 0
0:00:00.00 590175 N 0 0 0
0:00:00.00 590474 N 0 0 0
0:00:00.00 590487 N 0 0 0
0:00:00.00 590785 N 0 0 0
0:00:00.00 590800 N 0 0 0
0:00:00.00 591098 N 0 0 0
0:00:00.00 591114 N 0 0 0
0:00:00.00 591404 N 0 0 0
0:00:00.00 591416 N 0 0 0
0:00:00.00 591706 N 0 0 0
0:00:00.00 591720 N 0 0 0
0:00:00.00 592001 N 0 0 0
0:00:00.00 592016 N 0 0 0
0:00:00.00 592298 N 0 0 0
0:00:00.00 592312 N 0 0 0
0:00:00.00 592613 N 0 0 0
0:00:00.00 592630 N 0 0 0
0:00:00.00 592936 N 0 0 0
0:00:00.00 592952 N 0 0 0
0:00:00.00 593250 N 0 0 0
0:00:00.00 593551 N 0 0 0
0:00:00.00 593850 N 0 0 0
0:00:00.00 593863 N 0 0 0
0:00:00.00 594145 N 0 0 0
0:00:00.00 594159 N 0 0 0
0:00:00.00 594449 N 0 0 0
0:00:00.00 594463 N 0 0 0
0:00:00.00 594757 N 0 0 0
0:00:00.00 594773 N 0 0 0
0:00:00.00 595067 N 0 0 0
0:00:00.00 595082 N 0 0 0
0:00:00.00 595386 N 0 0 0
0:00:00.00 595402 N 0 0 0
0:00:00.00 595696 N 0 0 0
0:00:00.00 595711 N 0 0 0
0:00:00.00 595993 N 0 0 0
0:00:00.00 596006 N 0 0 0
0:00:00.00 596286 N 0 0 0
0:00:00.00 596299 N 0 0 0
0:00:00.00 596588 N 0 0 0
0:00:00.00 596600 N 0 0 0
0:00:00.00 596899 N 0 0 0
0:00:00.00 596913 N 0 0 0
0:00:00.00 597222 N 0 0 0
0:00:00.00 597240 N 0 0 0
0:00:00.00 597535 N 0 0 0
0:00:00.00 597550 N 0 0 0
0:00:00.00 597838 N 0 0 0
0:00:00.00 597851 N 0 0 0
0:00:00.00 598137 N 0 0 0
0:00:00.00 598151 N 0 0 0
0:00:00.00 598437 N 0 0 0
0:00:00.00 598449 N 0 0 0
0:00:00.00 598736 N 0 0 0
0:00:00.00 599040 N 0 0 0
0:00:00.00 599056 N 0 0 0
0:00:00.00 599358 N 0 0 0
0:00:00.00 599674 N 0 0 0
0:00:00.00 599686 N 0 0 0
0:00:00.00 599986 N 0 0 0
0:00:00.00 600284 N 0 0 0
0:00:00.00 600296 N 0 0 0
0:00:00.00 600576 N 0 0 0
0:00:00.00 600589 N 0 0 0
0:00:00.00 600878 N 0 0 0
0:00:00.00 600894 N 0 0 0
0:00:00.00 601195 N 0 0 0
0:00:00.00 601210 N 0 0 0
0:00:00.00 601514 N 0 0 0
0:00:00.00 601529 N 0 0 0
0:00:00.00 601822 N 0 0 0
0:00:00.00 601836 N 0 0 0
0:00:00.00 602131 N 0 0 0
0:00:00.00 602144 N 0 0 0
0:00:00.00 602426 N 0 0 0
0:00:00.00 602441 N 0 0 0
0:00:00.00 602726 N 0 0 0
0:00:00.00 602741 N 0 0 0
0:00:00.00 603023 N 0 0 0
0:00:00.00 603037 N 0 0 0
0:00:00.00 603325 N 0 0 0
0:00:00.00 603340 N 0 0 0
0:00:00.00 603645 N 0 0 0
0:00:00.00 603661 N 0 0 0
0:00:00.00 603968 N 0 0 0
0:00:00.00 603983 N 0 0 0
0:00:00.00 604276 N 0 0 0
0:00:00.00 604288 N 0 0 0
0:00:00.00 604571 N 0 0 0
0:00:00.00 604584 N 0 0 0
0:00:00.00 604869 N 0 0 0
0:00:00.00 604883 N 0 0 0
0:00:00.00 605168 N 0 0 0
0:00:00.00 605182 N 0 0 0
0:00:00.00 605480 N 0 0 0
0:00:00.00 605495 N 0 0 0
0:00:00.00 605794 N 0 0 0
0:00:00.00 605811 N 0 0 0
0:00:00.00 606106 N 0 0 0
0:00:00.00 606119 N 0 0 0
0:00:00.00 606416 N 0 0 0
0:00:00.00 606429 N 0 0 0
0:00:00.00 606720 N 0 0 0
0:00:00.00 606733 N 0 0 0
0:00:00.00 607016 N 0 0 0
0:00:00.00 607027 N 0 0 0
0:00:00.00 607310 N 0 0 0
0:00:00.00 607616 N 0 0 0
0:00:00.00 607930 N 0 0 0
0:00:00.00 608252 N 0 0 0
0:00:00.00 608266 N 0 0 0
0:00:00.00 608563 N 0 0 0
0:00:00.00 608576 N 0 0 0
0:00:00.00 608861 N 0 0 0
0:00:00.00 608876 N 0 0 0
0:00:00.00 609158 N 0 0 0
0:00:00.00 609172 N 0 0 0
0:00:00.00 609465 N 0 0 0
0:00:00.00 609478 N 0 0 0
0:00:00.00 609770 N 0 0 0
0:00:00.00 609786 N 0 0 0
0:00:00.00 610081 N 0 0 0
0:00:00.00 610099 N 0 0 0
0:00:00.00 610395 N 0 0 0
0:00:00.00 610413 N 0 0 0
0:00:00.00 610702 N 0 0 0
0:00:00.00 610721 N 0 0 0
0:00:00.00 611006 N 0 0 0
0:00:00.00 611021 N 0 0 0
0:00:00.00 611304 N 0 0 0
0:00:00.00 611319 N 0 0 0
0:00:00.00 611600 N 0 0 0
0:00:00.00 611904 N 0 0 0
0:00:00.00 611919 N 0 0 0
0:00:00.00 612230 N 0 0 0
0:00:00.00 612247 N 0 0 0
0:00:00.00 612548 N 0 0 0
0:00:00.00 612561 N 0 0 0
0:00:00.00 612853 N 0 0 0
0:00:00.00 613152 N 0 0 0
0:00:00.00 613166 N 0 0 0
0:00:00.00 613446 N 0 0 0
0:00:00.00 613461 N 0 0 0
0:00:00.00 613747 N 0 0 0
0:00:00.00 613763 N 0 0 0
0:00:00.00 614055 N 0 0 0
0:00:00.00 614070 N 0 0 0
0:00:00.00 614369 N 0 0 0
0:00:00.00 614385 N 0 0 0
0:00:00.00 614681 N 0 0 0
0:00:00.00 614695 N 0 0 0
0:00:00.00 615000 N 0 0 0
0:00:00.00 615016 N 0 0 0
0:00:00.00 615298 N 0 0 0
0:00:00.00 615312 N 0 0 0
0:00:00.00 615590 N 0 0 0
0:00:00.00 615605 N 0 0 0
0:00:00.00 615889 N 0 0 0
0:00:00.00 615905 N 0 0 0
0:00:00.00 616194 N 0 0 0
0:00:00.00 616211 N 0 0 0
0:00:00.00 616514 N 0 0 0
0:00:00.00 616531 N 0 0 0
0:00:00.00 616836 N 0 0 0
0:00:00.00 616853 N 0 0 0
0:00:00.00 617147 N 0 0 0
0:00:00.00 617162 N 0 0 0
0:00:00.00 617443 N 0 0 0
0:00:00.00 617459 N 0 0 0
0:00:00.00 617745 N 0 0 0
0:00:00.00 617759 N 0 0 0
0:00:00.00 618043 N 0 0 0
0:00:00.00 618346 N 0 0 0
0:00:00.00 618358 N 0 0 0
0:00:00.00 618657 N 0 0 0
0:00:00.00 618671 N 0 0 0
0:00:00.00 619177 N 0 0 0
0:00:00.00 619193 N 0 0 0
0:00:00.00 619486 N 0 0 0
0:00:00.00 619501 N 0 0 0
0:00:00.00 619781 N 0 0 0
0:00:00.00 619794 N 0 0 0
0:00:00.00 620074 N 0 0 0
0:00:00.00 620088 N 0 0 0
0:00:00.00 620377 N 0 0 0
0:00:00.00 620394 N 0 0 0
0:00:00.00 620697 N 0 0 0
0:00:00.00 620714 N 0 0 0
0:00:00.00 621017 N 0 0 0
0:00:00.00 621034 N 0 0 0
0:00:00.00 621325 N 0 0 0
0:00:00.00 621341 N 0 0 0
0:00:00.00 621633 N 0 0 0
0:00:00.00 621649 N 0 0 0
0:00:00.00 621928 N 0 0 0
0:00:00.00 621944 N 0 0 0
0:00:00.00 622228 N 0 0 0
0:00:00.00 622243 N 0 0 0
0:00:00.00 622525 N 0 0 0
0:00:00.00 622542 N 0 0 0
0:00:00.00 622832 N 0 0 0
0:00:00.00 622848 N 0 0 0
0:00:00.00 623064 N 0 0 0
0:00:00.00 623366 N 0 0 0
0:00:00.00 623384 N 0 0 0
0:00:00.00 623675 N 0 0 0
0:00:00.00 623690 N 0 0 0
0:00:00.00 623968 N 0 0 0
0:00:00.00 623983 N 0 0 0
0:00:00.00 624266 N 0 0 0
0:00:00.00 624280 N 0 0 0
0:00:00.00 624563 N 0 0 0
0:00:00.00 624577 N 0 0 0
0:00:00.00 624874 N 0 0 0
0:00:00.00 625192 N 0 0 0
0:00:00.00 625206 N 0 0 0
0:00:00.00 625709 N 0 0 0
0:00:00.00 625724 N 0 0 0
0:00:00.00 626018 N 0 0 0
0:00:00.00 626031 N 0 0 0
0:00:00.00 626314 N 0 0 0
0:00:00.00 626609 N 0 0 0
0:00:00.00 626623 N 0 0 0
0:00:00.00 626909 N 0 0 0
0:00:00.00 626924 N 0 0 0
0:00:00.00 627223 N 0 0 0
0:00:00.00 627237 N 0 0 0
0:00:00.00 627541 N 0 0 0
0:00:00.00 627559 N 0 0 0
0:00:00.00 628054 N 0 0 0
0:00:00.00 628072 N 0 0 0
0:00:00.00 628353 N 0 0 0
0:00:00.00 628367 N 0 0 0
0:00:00.00 628650 N 0 0 0
0:00:00.00 628667 N 0 0 0
0:00:00.00 628956 N 0 0 0
0:00:00.00 628974 N 0 0 0
0:00:00.00 629266 N 0 0 0
0:00:00.00 629283 N 0 0 0
0:00:00.00 629579 N 0 0 0
0:00:00.00 629595 N 0 0 0
0:00:00.00 629893 N 0 0 0
0:00:00.00 629909 N 0 0 0
0:00:00.00 630198 N 0 0 0
0:00:00.00 630215 N 0 0 0
0:00:00.00 630500 N 0 0 0
0:00:00.00 630518 N 0 0 0
0:00:00.00 630795 N 0 0 0
0:00:00.00 630813 N 0 0 0
0:00:00.00 631091 N 0 0 0
0:00:00.00 631107 N 0 0 0
0:00:00.00 631399 N 0 0 0
0:00:00.00 631416 N 0 0 0
0:00:00.00 631725 N 0 0 0
0:00:00.00 631741 N 0 0 0
0:00:00.00 632042 N 0 0 0
0:00:00.00 632060 N 0 0 0
0:00:00.00 632345 N 0 0 0
0:00:00.00 632361 N 0 0 0
0:00:00.00 632871 N 0 0 0
0:00:00.00 632887 N 0 0 0
0:00:00.00 633172 N 0 0 0
0:00:00.00 633191 N 0 0 0
0:00:00.00 633480 N 0 0 0
0:00:00.00 633496 N 0 0 0
0:00:00.00 633792 N 0 0 0
0:00:00.00 633807 N 0 0 0
0:00:00.00 634105 N 0 0 0
0:00:00.00 634121 N 0 0 0
0:00:00.00 634426 N 0 0 0
0:00:00.00 634440 N 0 0 0
0:00:00.00 634724 N 0 0 0
0:00:00.00 634737 N 0 0 0
0:00:00.00 635014 N 0 0 0
0:00:00.00 635030 N 0 0 0
0:00:00.00 635312 N 0 0 0
0:00:00.00 635330 N 0 0 0
0:00:00.00 635615 N 0 0 0
0:00:00.00 635633 N 0 0 0
0:00:00.00 635935 N 0 0 0
0:00:00.00 635954 N 0 0 0
0:00:00.00 636475 N 0 0 0
0:00:00.00 636492 N 0 0 0
0:00:00.00 636775 N 0 0 0
0:00:00.00 636791 N 0 0 0
0:00:00.00 637077 N 0 0 0
0:00:00.00 637099 N 0 0 0
0:00:00.00 637375 N 0 0 0
0:00:00.00 637388 N 0 0 0
0:00:00.00 637673 N 0 0 0
0:00:00.00 637688 N 0 0 0
0:00:00.00 637983 N 0 0 0
0:00:00.00 638001 N 0 0 0
0:00:00.00 638297 N 0 0 0
0:00:00.00 638315 N 0 0 0
0:00:00.00 638614 N 0 0 0
0:00:00.00 638632 N 0 0 0
0:00:00.00 638924 N 0 0 0
0:00:00.00 638940 N 0 0 0
0:00:00.00 639219 N 0 0 0
0:00:00.00 639240 N 0 0 0
0:00:00.00 639510 N 0 0 0
0:00:00.00 639527 N 0 0 0
0:00:00.00 639816 N 0 0 0
0:00:00.00 639836 N 0 0 0
0:00:00.00 640132 N 0 0 0
0:00:00.00 640152 N 0 0 0
0:00:00.00 640448 N 0 0 0
0:00:00.00 640466 N 0 0 0
0:00:00.00 640758 N 0 0 0
0:00:00.00 640775 N 0 0 0
0:00:00.00 641063 N 0 0 0
0:00:00.00 641081 N 0 0 0
0:00:00.00 641363 N 0 0 0
0:00:00.00 641387 N 0 0 0
0:00:00.00 641665 N 0 0 0
0:00:00.00 641678 N 0 0 0
0:00:00.00 641961 N 0 0 0
0:00:00.00 641979 N 0 0 0
0:00:00.00 642265 N 0 0 0
0:00:00.00 642284 N 0 0 0
0:00:00.00 642590 N 0 0 0
0:00:00.00 642608 N 0 0 0
0:00:00.00 642906 N 0 0 0
0:00:00.00 642922 N 0 0 0
0:00:00.00 643209 N 0 0 0
0:00:00.00 643224 N 0 0 0
0:00:00.00 643504 N 0 0 0
0:00:00.00 643521 N 0 0 0
0:00:00.00 643801 N 0 0 0
0:00:00.00 643816 N 0 0 0
0:00:00.00 644104 N 0 0 0
0:00:00.00 644122 N 0 0 0
0:00:00.00 644420 N 0 0 0
0:00:00.00 644441 N 0 0 0
0:00:00.00 644736 N 0 0 0
0:00:00.00 644754 N 0 0 0
0:00:00.00 645044 N 0 0 0
0:00:00.00 645060 N 0 0 0
0:00:00.00 645358 N 0 0 0
0:00:00.00 645656 N 0 0 0
0:00:00.00 645671 N 0 0 0
0:00:00.00 645949 N 0 0 0
0:00:00.00 646444 N 0 0 0
0:00:00.00 646458 N 0 0 0
0:00:00.00 646756 N 0 0 0
0:00:00.00 646773 N 0 0 0
0:00:00.00 647077 N 0 0 0
0:00:00.00 647094 N 0 0 0
0:00:00.00 647390 N 0 0 0
0:00:00.00 647403 N 0 0 0
0:00:00.00 647894 N 0 0 0
0:00:00.00 647911 N 0 0 0
0:00:00.00 648199 N 0 0 0
0:00:00.00 648216 N 0 0 0
0:00:00.00 648502 N 0 0 0
0:00:00.00 648520 N 0 0 0
0:00:00.00 648813 N 0 0 0
0:00:00.00 648833 N 0 0 0
0:00:00.00 649129 N 0 0 0
0:00:00.00 649145 N 0 0 0
0:00:00.00 649440 N 0 0 0
0:00:00.00 649458 N 0 0 0
0:00:00.00 649747 N 0 0 0
0:00:00.00 649765 N 0 0 0
