0:00:00.00 13 N 0 0 0
0:00:00.00 110 N 0 0 0
0:00:00.00 369 N 0 0 0
0:00:00.00 457 N 0 0 0
0:00:00.00 716 N 0 0 0
0:00:00.00 810 N 0 0 0
0:00:00.00 1080 N 0 0 0
0:00:00.00 1168 N 0 0 0
0:00:00.00 1422 N 0 0 0
0:00:00.00 1507 N 0 0 0
0:00:00.00 1751 N 0 0 0
0:00:00.00 1836 N 0 0 0
0:00:00.00 2088 N 0 0 0
0:00:00.00 2171 N 0 0 0
0:00:00.00 2443 N 0 0 0
0:00:00.00 2533 N 0 0 0
0:00:00.00 2815 N 0 0 0
0:00:00.00 2903 N 0 0 0
0:00:00.00 3164 N 0 0 0
0:00:00.00 3253 N 0 0 0
0:00:00.00 3519 N 0 0 0
0:00:00.00 3605 N 0 0 0
0:00:00.00 3854 N 0 0 0
0:00:00.00 3940 N 0 0 0
0:00:00.00 4082 N 0 0 0
0:00:00.00 4154 N 0 0 0
0:00:00.00 4226 N 0 0 0
0:00:00.00 4534 N 0 0 0
0:00:00.00 4624 N 0 0 0
0:00:00.00 4894 N 0 0 0
0:00:00.00 4988 N 0 0 0
0:00:00.00 5276 N 0 0 0
0:00:00.00 5364 N 0 0 0
0:00:00.00 5645 N 0 0 0
0:00:00.00 5731 N 0 0 0
0:00:00.00 5900 N 0 0 0
0:00:00.00 6043 N 0 0 0
0:00:00.00 6129 N 0 0 0
0:00:00.00 6410 N 0 0 0
0:00:00.00 6493 N 0 0 0
0:00:00.00 6806 N 0 0 0
0:00:00.00 6898 N 0 0 0
0:00:00.00 7213 N 0 0 0
0:00:00.00 7303 N 0 0 0
0:00:00.00 7614 N 0 0 0
0:00:00.00 7702 N 0 0 0
0:00:00.00 7985 N 0 0 0
0:00:00.00 8073 N 0 0 0
0:00:00.00 8357 N 0 0 0
0:00:00.00 8446 N 0 0 0
0:00:00.00 8734 N 0 0 0
0:00:00.00 8818 N 0 0 0
0:00:00.00 9119 N 0 0 0
0:00:00.00 9209 N 0 0 0
0:00:00.00 9506 N 0 0 0
0:00:00.00 9599 N 0 0 0
0:00:00.00 9893 N 0 0 0
0:00:00.00 9977 N 0 0 0
0:00:00.00 10053 N 0 0 0
0:00:00.00 10127 N 0 0 0
0:00:00.00 10201 N 0 0 0
0:00:00.00 10273 N 0 0 0
0:00:00.00 10345 N 0 0 0
0:00:00.00 10633 N 0 0 0
0:00:00.00 10710 N 0 0 0
0:00:00.00 10854 N 0 0 0
0:00:00.00 10926 N 0 0 0
0:00:00.00 11468 N 0 0 0
0:00:00.00 11822 N 0 0 0
0:00:00.00 12110 N 0 0 0
0:00:00.00 12184 N 0 0 0
0:00:00.00 12499 N 0 0 0
0:00:00.00 12784 N 0 0 0
0:00:00.00 12870 N 0 0 0
0:00:00.00 13165 N 0 0 0
0:00:00.00 13241 N 0 0 0
0:00:00.00 13576 N 0 0 0
0:00:00.00 13658 N 0 0 0
0:00:00.00 14000 N 0 0 0
0:00:00.00 14089 N 0 0 0
0:00:00.00 14398 N 0 0 0
0:00:00.00 14483 N 0 0 0
0:00:00.00 14776 N 0 0 0
0:00:00.00 14861 N 0 0 0
0:00:00.00 15147 N 0 0 0
0:00:00.00 15235 N 0 0 0
0:00:00.00 15543 N 0 0 0
0:00:00.00 15633 N 0 0 0
0:00:00.00 15944 N 0 0 0
0:00:00.00 16033 N 0 0 0
0:00:00.00 16331 N 0 0 0
0:00:00.00 16418 N 0 0 0
0:00:00.00 16715 N 0 0 0
0:00:00.00 16803 N 0 0 0
0:00:00.00 17089 N 0 0 0
0:00:00.00 17176 N 0 0 0
0:00:00.00 17464 N 0 0 0
0:00:00.00 17548 N 0 0 0
0:00:00.00 17854 N 0 0 0
0:00:00.00 17942 N 0 0 0
0:00:00.00 18252 N 0 0 0
0:00:00.00 18342 N 0 0 0
0:00:00.00 18515 N 0 0 0
0:00:00.00 18592 N 0 0 0
0:00:00.00 18677 N 0 0 0
0:00:00.00 19004 N 0 0 0
0:00:00.00 19080 N 0 0 0
0:00:00.00 19372 N 0 0 0
0:00:00.00 19447 N 0 0 0
0:00:00.00 19793 N 0 0 0
0:00:00.00 19996 N 0 0 0
0:00:00.00 20115 N 0 0 0
0:00:00.00 20189 N 0 0 0
0:00:00.00 20396 N 0 0 0
0:00:00.00 20516 N 0 0 0
0:00:00.00 20601 N 0 0 0
0:00:00.00 20896 N 0 0 0
0:00:00.00 20974 N 0 0 0
0:00:00.00 21238 N 0 0 0
0:00:00.00 21316 N 0 0 0
0:00:00.00 21668 N 0 0 0
0:00:00.00 21980 N 0 0 0
0:00:00.00 22072 N 0 0 0
0:00:00.00 22356 N 0 0 0
0:00:00.00 22444 N 0 0 0
0:00:00.00 22721 N 0 0 0
0:00:00.00 22811 N 0 0 0
0:00:00.00 23103 N 0 0 0
0:00:00.00 23179 N 0 0 0
0:00:00.00 23540 N 0 0 0
0:00:00.00 23625 N 0 0 0
0:00:00.00 23962 N 0 0 0
0:00:00.00 24052 N 0 0 0
0:00:00.00 24377 N 0 0 0
0:00:00.00 24466 N 0 0 0
0:00:00.00 24777 N 0 0 0
0:00:00.00 24863 N 0 0 0
0:00:00.00 25160 N 0 0 0
0:00:00.00 25249 N 0 0 0
0:00:00.00 25544 N 0 0 0
0:00:00.00 25632 N 0 0 0
0:00:00.00 25918 N 0 0 0
0:00:00.00 26006 N 0 0 0
0:00:00.00 26311 N 0 0 0
0:00:00.00 26399 N 0 0 0
0:00:00.00 26710 N 0 0 0
0:00:00.00 26802 N 0 0 0
0:00:00.00 27106 N 0 0 0
0:00:00.00 27194 N 0 0 0
0:00:00.00 27473 N 0 0 0
0:00:00.00 27560 N 0 0 0
0:00:00.00 27855 N 0 0 0
0:00:00.00 27941 N 0 0 0
0:00:00.00 28240 N 0 0 0
0:00:00.00 28328 N 0 0 0
0:00:00.00 28633 N 0 0 0
0:00:00.00 28708 N 0 0 0
0:00:00.00 29025 N 0 0 0
0:00:00.00 29115 N 0 0 0
0:00:00.00 29389 N 0 0 0
0:00:00.00 29468 N 0 0 0
0:00:00.00 29725 N 0 0 0
0:00:00.00 29810 N 0 0 0
0:00:00.00 30078 N 0 0 0
0:00:00.00 30164 N 0 0 0
0:00:00.00 30465 N 0 0 0
0:00:00.00 30560 N 0 0 0
0:00:00.00 30902 N 0 0 0
0:00:00.00 30991 N 0 0 0
0:00:00.00 31343 N 0 0 0
0:00:00.00 31435 N 0 0 0
0:00:00.00 31790 N 0 0 0
0:00:00.00 31873 N 0 0 0
0:00:00.00 32191 N 0 0 0
0:00:00.00 32278 N 0 0 0
0:00:00.00 32621 N 0 0 0
0:00:00.00 32713 N 0 0 0
0:00:00.00 33050 N 0 0 0
0:00:00.00 33134 N 0 0 0
0:00:00.00 33439 N 0 0 0
0:00:00.00 33523 N 0 0 0
0:00:00.00 33815 N 0 0 0
0:00:00.00 33899 N 0 0 0
0:00:00.00 34189 N 0 0 0
0:00:00.00 34276 N 0 0 0
0:00:00.00 34553 N 0 0 0
0:00:00.00 34643 N 0 0 0
0:00:00.00 34940 N 0 0 0
0:00:00.00 35035 N 0 0 0
0:00:00.00 35338 N 0 0 0
0:00:00.00 35428 N 0 0 0
0:00:00.00 35690 N 0 0 0
0:00:00.00 35779 N 0 0 0
0:00:00.00 36047 N 0 0 0
0:00:00.00 36130 N 0 0 0
0:00:00.00 36398 N 0 0 0
0:00:00.00 36490 N 0 0 0
0:00:00.00 36774 N 0 0 0
0:00:00.00 36862 N 0 0 0
0:00:00.00 37087 N 0 0 0
0:00:00.00 37220 N 0 0 0
0:00:00.00 37309 N 0 0 0
0:00:00.00 37708 N 0 0 0
0:00:00.00 37796 N 0 0 0
0:00:00.00 38128 N 0 0 0
0:00:00.00 38214 N 0 0 0
0:00:00.00 38520 N 0 0 0
0:00:00.00 38605 N 0 0 0
0:00:00.00 38912 N 0 0 0
0:00:00.00 39004 N 0 0 0
0:00:00.00 39317 N 0 0 0
0:00:00.00 39404 N 0 0 0
0:00:00.00 39703 N 0 0 0
0:00:00.00 39793 N 0 0 0
0:00:00.00 40099 N 0 0 0
0:00:00.00 40185 N 0 0 0
0:00:00.00 40466 N 0 0 0
0:00:00.00 40549 N 0 0 0
0:00:00.00 40847 N 0 0 0
0:00:00.00 40930 N 0 0 0
0:00:00.00 41231 N 0 0 0
0:00:00.00 41321 N 0 0 0
0:00:00.00 41623 N 0 0 0
0:00:00.00 41715 N 0 0 0
0:00:00.00 42016 N 0 0 0
0:00:00.00 42106 N 0 0 0
0:00:00.00 42397 N 0 0 0
0:00:00.00 42480 N 0 0 0
0:00:00.00 42768 N 0 0 0
0:00:00.00 42854 N 0 0 0
0:00:00.00 43141 N 0 0 0
0:00:00.00 43213 N 0 0 0
0:00:00.00 43403 N 0 0 0
0:00:00.00 43477 N 0 0 0
0:00:00.00 43555 N 0 0 0
0:00:00.00 43630 N 0 0 0
0:00:00.00 43947 N 0 0 0
0:00:00.00 44023 N 0 0 0
0:00:00.00 44327 N 0 0 0
0:00:00.00 44399 N 0 0 0
0:00:00.00 44703 N 0 0 0
0:00:00.00 44791 N 0 0 0
0:00:00.00 45076 N 0 0 0
0:00:00.00 45158 N 0 0 0
0:00:00.00 45470 N 0 0 0
0:00:00.00 45542 N 0 0 0
0:00:00.00 45677 N 0 0 0
0:00:00.00 45893 N 0 0 0
0:00:00.00 46228 N 0 0 0
0:00:00.00 46318 N 0 0 0
0:00:00.00 46618 N 0 0 0
0:00:00.00 46690 N 0 0 0
0:00:00.00 46762 N 0 0 0
0:00:00.00 46834 N 0 0 0
0:00:00.00 46906 N 0 0 0
0:00:00.00 46998 N 0 0 0
0:00:00.00 47295 N 0 0 0
0:00:00.00 47374 N 0 0 0
0:00:00.00 47718 N 0 0 0
0:00:00.00 47934 N 0 0 0
0:00:00.00 48008 N 0 0 0
0:00:00.00 48159 N 0 0 0
0:00:00.00 48238 N 0 0 0
0:00:00.00 48316 N 0 0 0
0:00:00.00 48443 N 0 0 0
0:00:00.00 48627 N 0 0 0
0:00:00.00 48944 N 0 0 0
0:00:00.00 49025 N 0 0 0
0:00:00.00 49228 N 0 0 0
0:00:00.00 49385 N 0 0 0
0:00:00.00 49595 N 0 0 0
0:00:00.00 49754 N 0 0 0
0:00:00.00 49826 N 0 0 0
0:00:00.00 50144 N 0 0 0
0:00:00.00 50218 N 0 0 0
0:00:00.00 50533 N 0 0 0
0:00:00.00 50852 N 0 0 0
0:00:00.00 50931 N 0 0 0
0:00:00.00 51259 N 0 0 0
0:00:00.00 51563 N 0 0 0
0:00:00.00 51637 N 0 0 0
0:00:00.00 51718 N 0 0 0
0:00:00.00 51844 N 0 0 0
0:00:00.00 51916 N 0 0 0
0:00:00.00 51997 N 0 0 0
0:00:00.00 52178 N 0 0 0
0:00:00.00 52387 N 0 0 0
0:00:00.00 52697 N 0 0 0
0:00:00.00 52789 N 0 0 0
0:00:00.00 53096 N 0 0 0
0:00:00.00 53168 N 0 0 0
0:00:00.00 53240 N 0 0 0
0:00:00.00 53320 N 0 0 0
0:00:00.00 53438 N 0 0 0
0:00:00.00 53516 N 0 0 0
0:00:00.00 53811 N 0 0 0
0:00:00.00 53885 N 0 0 0
0:00:00.00 54193 N 0 0 0
0:00:00.00 54268 N 0 0 0
0:00:00.00 54592 N 0 0 0
0:00:00.00 54664 N 0 0 0
0:00:00.00 54970 N 0 0 0
0:00:00.00 55046 N 0 0 0
0:00:00.00 55348 N 0 0 0
0:00:00.00 55424 N 0 0 0
0:00:00.00 55739 N 0 0 0
0:00:00.00 55814 N 0 0 0
0:00:00.00 56095 N 0 0 0
0:00:00.00 56180 N 0 0 0
0:00:00.00 56484 N 0 0 0
0:00:00.00 56558 N 0 0 0
0:00:00.00 56794 N 0 0 0
0:00:00.00 56959 N 0 0 0
0:00:00.00 57272 N 0 0 0
0:00:00.00 57346 N 0 0 0
0:00:00.00 57661 N 0 0 0
0:00:00.00 57735 N 0 0 0
0:00:00.00 58043 N 0 0 0
0:00:00.00 58120 N 0 0 0
0:00:00.00 58415 N 0 0 0
0:00:00.00 58491 N 0 0 0
0:00:00.00 58806 N 0 0 0
0:00:00.00 58891 N 0 0 0
0:00:00.00 59207 N 0 0 0
0:00:00.00 59281 N 0 0 0
0:00:00.00 59589 N 0 0 0
0:00:00.00 59666 N 0 0 0
0:00:00.00 59990 N 0 0 0
0:00:00.00 60062 N 0 0 0
0:00:00.00 60352 N 0 0 0
0:00:00.00 60424 N 0 0 0
0:00:00.00 60768 N 0 0 0
0:00:00.00 60840 N 0 0 0
0:00:00.00 61150 N 0 0 0
0:00:00.00 61227 N 0 0 0
0:00:00.00 61562 N 0 0 0
0:00:00.00 61634 N 0 0 0
0:00:00.00 61942 N 0 0 0
0:00:00.00 62014 N 0 0 0
0:00:00.00 62327 N 0 0 0
0:00:00.00 62683 N 0 0 0
0:00:00.00 62755 N 0 0 0
0:00:00.00 63074 N 0 0 0
0:00:00.00 63146 N 0 0 0
0:00:00.00 63461 N 0 0 0
0:00:00.00 63536 N 0 0 0
0:00:00.00 63848 N 0 0 0
0:00:00.00 63920 N 0 0 0
0:00:00.00 64235 N 0 0 0
0:00:00.00 64307 N 0 0 0
0:00:00.00 64618 N 0 0 0
0:00:00.00 64975 N 0 0 0
0:00:00.00 65047 N 0 0 0
0:00:00.00 65372 N 0 0 0
0:00:00.00 65444 N 0 0 0
0:00:00.00 65747 N 0 0 0
0:00:00.00 65819 N 0 0 0
0:00:00.00 66148 N 0 0 0
0:00:00.00 66220 N 0 0 0
0:00:00.00 66521 N 0 0 0
0:00:00.00 66593 N 0 0 0
0:00:00.00 66892 N 0 0 0
0:00:00.00 66964 N 0 0 0
0:00:00.00 67277 N 0 0 0
0:00:00.00 67349 N 0 0 0
0:00:00.00 67664 N 0 0 0
0:00:00.00 67736 N 0 0 0
0:00:00.00 68044 N 0 0 0
0:00:00.00 68116 N 0 0 0
0:00:00.00 68441 N 0 0 0
0:00:00.00 68513 N 0 0 0
0:00:00.00 68803 N 0 0 0
0:00:00.00 69142 N 0 0 0
0:00:00.00 69217 N 0 0 0
0:00:00.00 69530 N 0 0 0
0:00:00.00 69885 N 0 0 0
0:00:00.00 69957 N 0 0 0
0:00:00.00 70267 N 0 0 0
0:00:00.00 70339 N 0 0 0
0:00:00.00 70677 N 0 0 0
0:00:00.00 70754 N 0 0 0
0:00:00.00 71140 N 0 0 0
0:00:00.00 71212 N 0 0 0
0:00:00.00 71597 N 0 0 0
0:00:00.00 71672 N 0 0 0
0:00:00.00 72038 N 0 0 0
0:00:00.00 72110 N 0 0 0
0:00:00.00 72430 N 0 0 0
0:00:00.00 72502 N 0 0 0
0:00:00.00 72810 N 0 0 0
0:00:00.00 72882 N 0 0 0
0:00:00.00 73190 N 0 0 0
0:00:00.00 73262 N 0 0 0
0:00:00.00 73570 N 0 0 0
0:00:00.00 73642 N 0 0 0
0:00:00.00 73975 N 0 0 0
0:00:00.00 74047 N 0 0 0
0:00:00.00 74362 N 0 0 0
0:00:00.00 74437 N 0 0 0
0:00:00.00 74747 N 0 0 0
0:00:00.00 74819 N 0 0 0
0:00:00.00 75136 N 0 0 0
0:00:00.00 75449 N 0 0 0
0:00:00.00 75530 N 0 0 0
0:00:00.00 75861 N 0 0 0
0:00:00.00 75933 N 0 0 0
0:00:00.00 76286 N 0 0 0
0:00:00.00 76358 N 0 0 0
0:00:00.00 76675 N 0 0 0
0:00:00.00 76747 N 0 0 0
0:00:00.00 77067 N 0 0 0
0:00:00.00 77414 N 0 0 0
0:00:00.00 77486 N 0 0 0
0:00:00.00 77803 N 0 0 0
0:00:00.00 77875 N 0 0 0
0:00:00.00 78188 N 0 0 0
0:00:00.00 78260 N 0 0 0
0:00:00.00 78572 N 0 0 0
0:00:00.00 78644 N 0 0 0
0:00:00.00 78957 N 0 0 0
0:00:00.00 79029 N 0 0 0
0:00:00.00 79342 N 0 0 0
0:00:00.00 79693 N 0 0 0
0:00:00.00 79767 N 0 0 0
0:00:00.00 80077 N 0 0 0
0:00:00.00 80149 N 0 0 0
0:00:00.00 80458 N 0 0 0
0:00:00.00 80530 N 0 0 0
0:00:00.00 80793 N 0 0 0
0:00:00.00 80865 N 0 0 0
0:00:00.00 81169 N 0 0 0
0:00:00.00 81245 N 0 0 0
0:00:00.00 81562 N 0 0 0
0:00:00.00 81882 N 0 0 0
0:00:00.00 81954 N 0 0 0
0:00:00.00 82258 N 0 0 0
0:00:00.00 82330 N 0 0 0
0:00:00.00 82656 N 0 0 0
0:00:00.00 82728 N 0 0 0
0:00:00.00 83102 N 0 0 0
0:00:00.00 83176 N 0 0 0
0:00:00.00 83515 N 0 0 0
0:00:00.00 83826 N 0 0 0
0:00:00.00 84326 N 0 0 0
0:00:00.00 84402 N 0 0 0
0:00:00.00 84775 N 0 0 0
0:00:00.00 84847 N 0 0 0
0:00:00.00 85154 N 0 0 0
0:00:00.00 85228 N 0 0 0
0:00:00.00 85520 N 0 0 0
0:00:00.00 85599 N 0 0 0
0:00:00.00 85909 N 0 0 0
0:00:00.00 85982 N 0 0 0
0:00:00.00 86296 N 0 0 0
0:00:00.00 86368 N 0 0 0
0:00:00.00 86681 N 0 0 0
0:00:00.00 86755 N 0 0 0
0:00:00.00 87064 N 0 0 0
0:00:00.00 87136 N 0 0 0
0:00:00.00 87410 N 0 0 0
0:00:00.00 87484 N 0 0 0
0:00:00.00 87797 N 0 0 0
0:00:00.00 87869 N 0 0 0
0:00:00.00 88169 N 0 0 0
0:00:00.00 88247 N 0 0 0
0:00:00.00 88574 N 0 0 0
0:00:00.00 88648 N 0 0 0
0:00:00.00 88963 N 0 0 0
0:00:00.00 89039 N 0 0 0
0:00:00.00 89339 N 0 0 0
0:00:00.00 89417 N 0 0 0
0:00:00.00 89735 N 0 0 0
0:00:00.00 89825 N 0 0 0
0:00:00.00 90131 N 0 0 0
0:00:00.00 90212 N 0 0 0
0:00:00.00 90522 N 0 0 0
0:00:00.00 90599 N 0 0 0
0:00:00.00 90895 N 0 0 0
0:00:00.00 90967 N 0 0 0
0:00:00.00 91040 N 0 0 0
0:00:00.00 91276 N 0 0 0
0:00:00.00 91348 N 0 0 0
0:00:00.00 91674 N 0 0 0
0:00:00.00 91759 N 0 0 0
0:00:00.00 92070 N 0 0 0
0:00:00.00 92146 N 0 0 0
0:00:00.00 92448 N 0 0 0
0:00:00.00 92520 N 0 0 0
0:00:00.00 92835 N 0 0 0
0:00:00.00 92909 N 0 0 0
0:00:00.00 93222 N 0 0 0
0:00:00.00 93299 N 0 0 0
0:00:00.00 93613 N 0 0 0
0:00:00.00 93685 N 0 0 0
0:00:00.00 93992 N 0 0 0
0:00:00.00 94064 N 0 0 0
0:00:00.00 94372 N 0 0 0
0:00:00.00 94703 N 0 0 0
0:00:00.00 94775 N 0 0 0
0:00:00.00 95065 N 0 0 0
0:00:00.00 95416 N 0 0 0
0:00:00.00 95488 N 0 0 0
0:00:00.00 95830 N 0 0 0
0:00:00.00 95902 N 0 0 0
0:00:00.00 96273 N 0 0 0
0:00:00.00 96350 N 0 0 0
0:00:00.00 96698 N 0 0 0
0:00:00.00 96770 N 0 0 0
0:00:00.00 97133 N 0 0 0
0:00:00.00 97205 N 0 0 0
0:00:00.00 97529 N 0 0 0
0:00:00.00 97603 N 0 0 0
0:00:00.00 97945 N 0 0 0
0:00:00.00 98023 N 0 0 0
0:00:00.00 98334 N 0 0 0
0:00:00.00 98406 N 0 0 0
0:00:00.00 98710 N 0 0 0
0:00:00.00 99050 N 0 0 0
0:00:00.00 99122 N 0 0 0
0:00:00.00 99434 N 0 0 0
0:00:00.00 99506 N 0 0 0
0:00:00.00 99814 N 0 0 0
0:00:00.00 99886 N 0 0 0
0:00:00.00 100193 N 0 0 0
0:00:00.00 100265 N 0 0 0
0:00:00.00 100586 N 0 0 0
0:00:00.00 100933 N 0 0 0
0:00:00.00 101005 N 0 0 0
0:00:00.00 101309 N 0 0 0
0:00:00.00 101648 N 0 0 0
0:00:00.00 101720 N 0 0 0
0:00:00.00 102028 N 0 0 0
0:00:00.00 102100 N 0 0 0
0:00:00.00 102406 N 0 0 0
0:00:00.00 102755 N 0 0 0
0:00:00.00 102827 N 0 0 0
0:00:00.00 103199 N 0 0 0
0:00:00.00 103271 N 0 0 0
0:00:00.00 103604 N 0 0 0
0:00:00.00 103676 N 0 0 0
0:00:00.00 104020 N 0 0 0
0:00:00.00 104092 N 0 0 0
0:00:00.00 104440 N 0 0 0
0:00:00.00 104512 N 0 0 0
0:00:00.00 104832 N 0 0 0
0:00:00.00 104904 N 0 0 0
0:00:00.00 105232 N 0 0 0
0:00:00.00 105583 N 0 0 0
0:00:00.00 105655 N 0 0 0
0:00:00.00 105964 N 0 0 0
0:00:00.00 106036 N 0 0 0
0:00:00.00 106351 N 0 0 0
0:00:00.00 106423 N 0 0 0
0:00:00.00 106767 N 0 0 0
0:00:00.00 106839 N 0 0 0
0:00:00.00 107149 N 0 0 0
0:00:00.00 107307 N 0 0 0
0:00:00.00 107599 N 0 0 0
0:00:00.00 107928 N 0 0 0
0:00:00.00 108000 N 0 0 0
0:00:00.00 108324 N 0 0 0
0:00:00.00 108396 N 0 0 0
0:00:00.00 108718 N 0 0 0
0:00:00.00 108790 N 0 0 0
0:00:00.00 109112 N 0 0 0
0:00:00.00 109184 N 0 0 0
0:00:00.00 109503 N 0 0 0
0:00:00.00 109575 N 0 0 0
0:00:00.00 109894 N 0 0 0
0:00:00.00 110282 N 0 0 0
0:00:00.00 110354 N 0 0 0
0:00:00.00 110693 N 0 0 0
0:00:00.00 110765 N 0 0 0
0:00:00.00 111073 N 0 0 0
0:00:00.00 111145 N 0 0 0
0:00:00.00 111470 N 0 0 0
0:00:00.00 111542 N 0 0 0
0:00:00.00 111852 N 0 0 0
0:00:00.00 111924 N 0 0 0
0:00:00.00 112252 N 0 0 0
0:00:00.00 112635 N 0 0 0
0:00:00.00 112707 N 0 0 0
0:00:00.00 113027 N 0 0 0
0:00:00.00 113099 N 0 0 0
0:00:00.00 113425 N 0 0 0
0:00:00.00 113497 N 0 0 0
0:00:00.00 113805 N 0 0 0
0:00:00.00 113877 N 0 0 0
0:00:00.00 114185 N 0 0 0
0:00:00.00 114257 N 0 0 0
0:00:00.00 114577 N 0 0 0
0:00:00.00 114973 N 0 0 0
0:00:00.00 115045 N 0 0 0
0:00:00.00 115364 N 0 0 0
0:00:00.00 115436 N 0 0 0
0:00:00.00 115751 N 0 0 0
0:00:00.00 115823 N 0 0 0
0:00:00.00 116132 N 0 0 0
0:00:00.00 116204 N 0 0 0
0:00:00.00 116512 N 0 0 0
0:00:00.00 116584 N 0 0 0
0:00:00.00 116899 N 0 0 0
0:00:00.00 117293 N 0 0 0
0:00:00.00 117365 N 0 0 0
0:00:00.00 117684 N 0 0 0
0:00:00.00 117756 N 0 0 0
0:00:00.00 118087 N 0 0 0
0:00:00.00 118159 N 0 0 0
0:00:00.00 118481 N 0 0 0
0:00:00.00 118863 N 0 0 0
0:00:00.00 118935 N 0 0 0
0:00:00.00 119252 N 0 0 0
0:00:00.00 119324 N 0 0 0
0:00:00.00 119657 N 0 0 0
0:00:00.00 119729 N 0 0 0
0:00:00.00 120042 N 0 0 0
0:00:00.00 120114 N 0 0 0
0:00:00.00 120411 N 0 0 0
0:00:00.00 120483 N 0 0 0
0:00:00.00 120794 N 0 0 0
0:00:00.00 120866 N 0 0 0
0:00:00.00 121187 N 0 0 0
0:00:00.00 121259 N 0 0 0
0:00:00.00 121563 N 0 0 0
0:00:00.00 121637 N 0 0 0
0:00:00.00 121990 N 0 0 0
0:00:00.00 122062 N 0 0 0
0:00:00.00 122378 N 0 0 0
0:00:00.00 122450 N 0 0 0
0:00:00.00 122747 N 0 0 0
0:00:00.00 123093 N 0 0 0
0:00:00.00 123165 N 0 0 0
0:00:00.00 123471 N 0 0 0
0:00:00.00 123543 N 0 0 0
0:00:00.00 123858 N 0 0 0
0:00:00.00 123930 N 0 0 0
0:00:00.00 124256 N 0 0 0
0:00:00.00 124328 N 0 0 0
0:00:00.00 124645 N 0 0 0
0:00:00.00 124987 N 0 0 0
0:00:00.00 125059 N 0 0 0
0:00:00.00 125384 N 0 0 0
0:00:00.00 125750 N 0 0 0
0:00:00.00 125822 N 0 0 0
0:00:00.00 126140 N 0 0 0
0:00:00.00 126212 N 0 0 0
0:00:00.00 126527 N 0 0 0
0:00:00.00 126599 N 0 0 0
0:00:00.00 126907 N 0 0 0
0:00:00.00 126979 N 0 0 0
0:00:00.00 127292 N 0 0 0
0:00:00.00 127364 N 0 0 0
0:00:00.00 127688 N 0 0 0
0:00:00.00 128065 N 0 0 0
0:00:00.00 128137 N 0 0 0
0:00:00.00 128466 N 0 0 0
0:00:00.00 128545 N 0 0 0
0:00:00.00 128862 N 0 0 0
0:00:00.00 129222 N 0 0 0
0:00:00.00 129298 N 0 0 0
0:00:00.00 129609 N 0 0 0
0:00:00.00 129681 N 0 0 0
0:00:00.00 129998 N 0 0 0
0:00:00.00 130070 N 0 0 0
0:00:00.00 130392 N 0 0 0
0:00:00.00 130464 N 0 0 0
0:00:00.00 130779 N 0 0 0
0:00:00.00 130851 N 0 0 0
0:00:00.00 131193 N 0 0 0
0:00:00.00 131537 N 0 0 0
0:00:00.00 131609 N 0 0 0
0:00:00.00 131920 N 0 0 0
0:00:00.00 131992 N 0 0 0
0:00:00.00 132313 N 0 0 0
0:00:00.00 132392 N 0 0 0
0:00:00.00 132703 N 0 0 0
0:00:00.00 132782 N 0 0 0
0:00:00.00 133087 N 0 0 0
0:00:00.00 133159 N 0 0 0
0:00:00.00 133461 N 0 0 0
0:00:00.00 133785 N 0 0 0
0:00:00.00 133857 N 0 0 0
0:00:00.00 134165 N 0 0 0
0:00:00.00 134532 N 0 0 0
0:00:00.00 134604 N 0 0 0
0:00:00.00 134917 N 0 0 0
0:00:00.00 134989 N 0 0 0
0:00:00.00 135391 N 0 0 0
0:00:00.00 135463 N 0 0 0
0:00:00.00 135837 N 0 0 0
0:00:00.00 135909 N 0 0 0
0:00:00.00 136262 N 0 0 0
0:00:00.00 136634 N 0 0 0
0:00:00.00 136706 N 0 0 0
0:00:00.00 137056 N 0 0 0
0:00:00.00 137128 N 0 0 0
0:00:00.00 137437 N 0 0 0
0:00:00.00 137509 N 0 0 0
0:00:00.00 137833 N 0 0 0
0:00:00.00 138220 N 0 0 0
0:00:00.00 138589 N 0 0 0
0:00:00.00 138661 N 0 0 0
0:00:00.00 138991 N 0 0 0
0:00:00.00 139063 N 0 0 0
0:00:00.00 139379 N 0 0 0
0:00:00.00 139451 N 0 0 0
0:00:00.00 139763 N 0 0 0
0:00:00.00 139835 N 0 0 0
0:00:00.00 140152 N 0 0 0
0:00:00.00 140542 N 0 0 0
0:00:00.00 140944 N 0 0 0
0:00:00.00 141320 N 0 0 0
0:00:00.00 141392 N 0 0 0
0:00:00.00 141701 N 0 0 0
0:00:00.00 141773 N 0 0 0
0:00:00.00 142097 N 0 0 0
0:00:00.00 142474 N 0 0 0
0:00:00.00 142888 N 0 0 0
0:00:00.00 143278 N 0 0 0
0:00:00.00 143350 N 0 0 0
0:00:00.00 143672 N 0 0 0
0:00:00.00 143744 N 0 0 0
0:00:00.00 144085 N 0 0 0
0:00:00.00 144455 N 0 0 0
0:00:00.00 144527 N 0 0 0
0:00:00.00 144851 N 0 0 0
0:00:00.00 145273 N 0 0 0
0:00:00.00 145674 N 0 0 0
0:00:00.00 146039 N 0 0 0
0:00:00.00 146111 N 0 0 0
0:00:00.00 146430 N 0 0 0
0:00:00.00 146502 N 0 0 0
0:00:00.00 146819 N 0 0 0
0:00:00.00 146891 N 0 0 0
0:00:00.00 147256 N 0 0 0
0:00:00.00 147654 N 0 0 0
0:00:00.00 147726 N 0 0 0
0:00:00.00 148054 N 0 0 0
0:00:00.00 148126 N 0 0 0
0:00:00.00 148430 N 0 0 0
0:00:00.00 148502 N 0 0 0
0:00:00.00 148826 N 0 0 0
0:00:00.00 148898 N 0 0 0
0:00:00.00 149216 N 0 0 0
0:00:00.00 149288 N 0 0 0
0:00:00.00 149630 N 0 0 0
0:00:00.00 149702 N 0 0 0
0:00:00.00 150035 N 0 0 0
0:00:00.00 150107 N 0 0 0
0:00:00.00 150426 N 0 0 0
0:00:00.00 150498 N 0 0 0
0:00:00.00 150806 N 0 0 0
0:00:00.00 150878 N 0 0 0
0:00:00.00 151189 N 0 0 0
0:00:00.00 151261 N 0 0 0
0:00:00.00 151592 N 0 0 0
0:00:00.00 151664 N 0 0 0
0:00:00.00 151988 N 0 0 0
0:00:00.00 152060 N 0 0 0
0:00:00.00 152386 N 0 0 0
0:00:00.00 152458 N 0 0 0
0:00:00.00 152768 N 0 0 0
0:00:00.00 152840 N 0 0 0
0:00:00.00 153148 N 0 0 0
0:00:00.00 153542 N 0 0 0
0:00:00.00 153904 N 0 0 0
0:00:00.00 153976 N 0 0 0
0:00:00.00 154283 N 0 0 0
0:00:00.00 154355 N 0 0 0
0:00:00.00 154663 N 0 0 0
0:00:00.00 154735 N 0 0 0
0:00:00.00 155047 N 0 0 0
0:00:00.00 155399 N 0 0 0
0:00:00.00 155471 N 0 0 0
0:00:00.00 155776 N 0 0 0
0:00:00.00 155848 N 0 0 0
0:00:00.00 156177 N 0 0 0
0:00:00.00 156249 N 0 0 0
0:00:00.00 156573 N 0 0 0
0:00:00.00 156645 N 0 0 0
0:00:00.00 156949 N 0 0 0
0:00:00.00 157309 N 0 0 0
0:00:00.00 157691 N 0 0 0
0:00:00.00 157763 N 0 0 0
0:00:00.00 158083 N 0 0 0
0:00:00.00 158477 N 0 0 0
0:00:00.00 158825 N 0 0 0
0:00:00.00 158897 N 0 0 0
0:00:00.00 159205 N 0 0 0
0:00:00.00 159538 N 0 0 0
0:00:00.00 159610 N 0 0 0
0:00:00.00 159941 N 0 0 0
0:00:00.00 160013 N 0 0 0
0:00:00.00 160412 N 0 0 0
0:00:00.00 160484 N 0 0 0
0:00:00.00 160862 N 0 0 0
0:00:00.00 160936 N 0 0 0
0:00:00.00 161273 N 0 0 0
0:00:00.00 161345 N 0 0 0
0:00:00.00 161667 N 0 0 0
0:00:00.00 161739 N 0 0 0
0:00:00.00 162047 N 0 0 0
0:00:00.00 162119 N 0 0 0
0:00:00.00 162430 N 0 0 0
0:00:00.00 162502 N 0 0 0
0:00:00.00 162578 N 0 0 0
0:00:00.00 162830 N 0 0 0
0:00:00.00 163152 N 0 0 0
0:00:00.00 163242 N 0 0 0
0:00:00.00 163508 N 0 0 0
0:00:00.00 163584 N 0 0 0
0:00:00.00 163883 N 0 0 0
0:00:00.00 163957 N 0 0 0
0:00:00.00 164259 N 0 0 0
0:00:00.00 164331 N 0 0 0
0:00:00.00 164641 N 0 0 0
0:00:00.00 164734 N 0 0 0
0:00:00.00 165038 N 0 0 0
0:00:00.00 165114 N 0 0 0
0:00:00.00 165425 N 0 0 0
0:00:00.00 165506 N 0 0 0
0:00:00.00 165796 N 0 0 0
0:00:00.00 165884 N 0 0 0
0:00:00.00 166172 N 0 0 0
0:00:00.00 166262 N 0 0 0
0:00:00.00 166558 N 0 0 0
0:00:00.00 166633 N 0 0 0
0:00:00.00 166772 N 0 0 0
0:00:00.00 166954 N 0 0 0
0:00:00.00 167035 N 0 0 0
0:00:00.00 167344 N 0 0 0
0:00:00.00 167434 N 0 0 0
0:00:00.00 167708 N 0 0 0
0:00:00.00 167785 N 0 0 0
0:00:00.00 168116 N 0 0 0
0:00:00.00 168188 N 0 0 0
0:00:00.00 168525 N 0 0 0
0:00:00.00 168881 N 0 0 0
0:00:00.00 168953 N 0 0 0
0:00:00.00 169285 N 0 0 0
0:00:00.00 169357 N 0 0 0
0:00:00.00 169690 N 0 0 0
0:00:00.00 170033 N 0 0 0
0:00:00.00 170105 N 0 0 0
0:00:00.00 170429 N 0 0 0
0:00:00.00 170780 N 0 0 0
0:00:00.00 170852 N 0 0 0
0:00:00.00 171193 N 0 0 0
0:00:00.00 171562 N 0 0 0
0:00:00.00 171634 N 0 0 0
0:00:00.00 171958 N 0 0 0
0:00:00.00 172316 N 0 0 0
0:00:00.00 172388 N 0 0 0
0:00:00.00 172687 N 0 0 0
0:00:00.00 173054 N 0 0 0
0:00:00.00 173126 N 0 0 0
0:00:00.00 173430 N 0 0 0
0:00:00.00 173502 N 0 0 0
0:00:00.00 173830 N 0 0 0
0:00:00.00 174170 N 0 0 0
0:00:00.00 174244 N 0 0 0
0:00:00.00 174541 N 0 0 0
0:00:00.00 174879 N 0 0 0
0:00:00.00 175232 N 0 0 0
0:00:00.00 175304 N 0 0 0
0:00:00.00 175660 N 0 0 0
0:00:00.00 175732 N 0 0 0
0:00:00.00 176101 N 0 0 0
0:00:00.00 176175 N 0 0 0
0:00:00.00 176517 N 0 0 0
0:00:00.00 176589 N 0 0 0
0:00:00.00 176915 N 0 0 0
0:00:00.00 177266 N 0 0 0
0:00:00.00 177338 N 0 0 0
0:00:00.00 177673 N 0 0 0
0:00:00.00 177745 N 0 0 0
0:00:00.00 178078 N 0 0 0
0:00:00.00 178427 N 0 0 0
0:00:00.00 178499 N 0 0 0
0:00:00.00 178765 N 0 0 0
0:00:00.00 178837 N 0 0 0
0:00:00.00 179158 N 0 0 0
0:00:00.00 179503 N 0 0 0
0:00:00.00 179834 N 0 0 0
0:00:00.00 180043 N 0 0 0
0:00:00.00 180589 N 0 0 0
0:00:00.00 180661 N 0 0 0
0:00:00.00 181017 N 0 0 0
0:00:00.00 181382 N 0 0 0
0:00:00.00 181454 N 0 0 0
0:00:00.00 181795 N 0 0 0
0:00:00.00 182140 N 0 0 0
0:00:00.00 182212 N 0 0 0
0:00:00.00 182560 N 0 0 0
0:00:00.00 182909 N 0 0 0
0:00:00.00 182981 N 0 0 0
0:00:00.00 183278 N 0 0 0
0:00:00.00 183627 N 0 0 0
0:00:00.00 183699 N 0 0 0
0:00:00.00 184043 N 0 0 0
0:00:00.00 184408 N 0 0 0
0:00:00.00 184480 N 0 0 0
0:00:00.00 184799 N 0 0 0
0:00:00.00 185146 N 0 0 0
0:00:00.00 185218 N 0 0 0
0:00:00.00 185512 N 0 0 0
0:00:00.00 185855 N 0 0 0
0:00:00.00 185927 N 0 0 0
0:00:00.00 186336 N 0 0 0
0:00:00.00 186408 N 0 0 0
0:00:00.00 186779 N 0 0 0
0:00:00.00 186851 N 0 0 0
0:00:00.00 187193 N 0 0 0
0:00:00.00 187265 N 0 0 0
0:00:00.00 187605 N 0 0 0
0:00:00.00 187969 N 0 0 0
0:00:00.00 188041 N 0 0 0
0:00:00.00 188372 N 0 0 0
0:00:00.00 188753 N 0 0 0
0:00:00.00 188825 N 0 0 0
0:00:00.00 189151 N 0 0 0
0:00:00.00 189493 N 0 0 0
0:00:00.00 189866 N 0 0 0
0:00:00.00 189938 N 0 0 0
0:00:00.00 190240 N 0 0 0
0:00:00.00 190609 N 0 0 0
0:00:00.00 190681 N 0 0 0
0:00:00.00 190984 N 0 0 0
0:00:00.00 191056 N 0 0 0
0:00:00.00 191365 N 0 0 0
0:00:00.00 191686 N 0 0 0
0:00:00.00 191758 N 0 0 0
0:00:00.00 192064 N 0 0 0
0:00:00.00 192407 N 0 0 0
0:00:00.00 192479 N 0 0 0
0:00:00.00 192884 N 0 0 0
0:00:00.00 193322 N 0 0 0
0:00:00.00 193556 N 0 0 0
0:00:00.00 194123 N 0 0 0
0:00:00.00 194557 N 0 0 0
0:00:00.00 194927 N 0 0 0
0:00:00.00 194999 N 0 0 0
0:00:00.00 195322 N 0 0 0
0:00:00.00 195683 N 0 0 0
0:00:00.00 195755 N 0 0 0
0:00:00.00 196078 N 0 0 0
0:00:00.00 196412 N 0 0 0
0:00:00.00 196484 N 0 0 0
0:00:00.00 196792 N 0 0 0
0:00:00.00 197159 N 0 0 0
0:00:00.00 197231 N 0 0 0
0:00:00.00 197534 N 0 0 0
0:00:00.00 197606 N 0 0 0
0:00:00.00 197887 N 0 0 0
0:00:00.00 197959 N 0 0 0
0:00:00.00 198342 N 0 0 0
0:00:00.00 198414 N 0 0 0
0:00:00.00 198761 N 0 0 0
0:00:00.00 198842 N 0 0 0
0:00:00.00 199222 N 0 0 0
0:00:00.00 199294 N 0 0 0
0:00:00.00 199631 N 0 0 0
0:00:00.00 199703 N 0 0 0
0:00:00.00 200029 N 0 0 0
0:00:00.00 200101 N 0 0 0
0:00:00.00 200419 N 0 0 0
0:00:00.00 200776 N 0 0 0
0:00:00.00 200848 N 0 0 0
0:00:00.00 201166 N 0 0 0
0:00:00.00 201238 N 0 0 0
0:00:00.00 201553 N 0 0 0
0:00:00.00 201625 N 0 0 0
0:00:00.00 201942 N 0 0 0
0:00:00.00 202014 N 0 0 0
0:00:00.00 202347 N 0 0 0
0:00:00.00 202675 N 0 0 0
0:00:00.00 202747 N 0 0 0
0:00:00.00 203078 N 0 0 0
0:00:00.00 203436 N 0 0 0
0:00:00.00 203508 N 0 0 0
0:00:00.00 203839 N 0 0 0
0:00:00.00 204194 N 0 0 0
0:00:00.00 204266 N 0 0 0
0:00:00.00 204599 N 0 0 0
0:00:00.00 204671 N 0 0 0
0:00:00.00 205033 N 0 0 0
0:00:00.00 205106 N 0 0 0
0:00:00.00 205474 N 0 0 0
0:00:00.00 205720 N 0 0 0
0:00:00.00 206289 N 0 0 0
0:00:00.00 206361 N 0 0 0
0:00:00.00 206683 N 0 0 0
0:00:00.00 206755 N 0 0 0
0:00:00.00 207070 N 0 0 0
0:00:00.00 207437 N 0 0 0
0:00:00.00 207790 N 0 0 0
0:00:00.00 207862 N 0 0 0
0:00:00.00 208183 N 0 0 0
0:00:00.00 208255 N 0 0 0
0:00:00.00 208579 N 0 0 0
0:00:00.00 208908 N 0 0 0
0:00:00.00 208980 N 0 0 0
0:00:00.00 209297 N 0 0 0
0:00:00.00 209617 N 0 0 0
0:00:00.00 209689 N 0 0 0
0:00:00.00 210020 N 0 0 0
0:00:00.00 210438 N 0 0 0
0:00:00.00 210510 N 0 0 0
0:00:00.00 210857 N 0 0 0
0:00:00.00 210929 N 0 0 0
0:00:00.00 211248 N 0 0 0
0:00:00.00 211320 N 0 0 0
0:00:00.00 211642 N 0 0 0
0:00:00.00 211997 N 0 0 0
0:00:00.00 212069 N 0 0 0
0:00:00.00 212395 N 0 0 0
0:00:00.00 212467 N 0 0 0
0:00:00.00 212791 N 0 0 0
0:00:00.00 212863 N 0 0 0
0:00:00.00 213194 N 0 0 0
0:00:00.00 213529 N 0 0 0
0:00:00.00 213601 N 0 0 0
0:00:00.00 213925 N 0 0 0
0:00:00.00 213997 N 0 0 0
0:00:00.00 214335 N 0 0 0
0:00:00.00 214690 N 0 0 0
0:00:00.00 214762 N 0 0 0
0:00:00.00 215084 N 0 0 0
0:00:00.00 215156 N 0 0 0
0:00:00.00 215473 N 0 0 0
0:00:00.00 215820 N 0 0 0
0:00:00.00 215892 N 0 0 0
0:00:00.00 216220 N 0 0 0
0:00:00.00 216598 N 0 0 0
0:00:00.00 216670 N 0 0 0
0:00:00.00 216997 N 0 0 0
0:00:00.00 217337 N 0 0 0
0:00:00.00 217409 N 0 0 0
0:00:00.00 217732 N 0 0 0
0:00:00.00 218056 N 0 0 0
0:00:00.00 218128 N 0 0 0
0:00:00.00 218444 N 0 0 0
0:00:00.00 218887 N 0 0 0
0:00:00.00 218959 N 0 0 0
0:00:00.00 219370 N 0 0 0
0:00:00.00 219442 N 0 0 0
0:00:00.00 219775 N 0 0 0
0:00:00.00 219847 N 0 0 0
0:00:00.00 220210 N 0 0 0
0:00:00.00 220577 N 0 0 0
0:00:00.00 220649 N 0 0 0
0:00:00.00 220966 N 0 0 0
0:00:00.00 221209 N 0 0 0
0:00:00.00 221742 N 0 0 0
0:00:00.00 222075 N 0 0 0
0:00:00.00 222147 N 0 0 0
0:00:00.00 222449 N 0 0 0
0:00:00.00 222782 N 0 0 0
0:00:00.00 222854 N 0 0 0
0:00:00.00 223193 N 0 0 0
0:00:00.00 223265 N 0 0 0
0:00:00.00 223654 N 0 0 0
0:00:00.00 223726 N 0 0 0
0:00:00.00 224033 N 0 0 0
0:00:00.00 224105 N 0 0 0
0:00:00.00 224426 N 0 0 0
0:00:00.00 224498 N 0 0 0
0:00:00.00 224825 N 0 0 0
0:00:00.00 225205 N 0 0 0
0:00:00.00 225277 N 0 0 0
0:00:00.00 225590 N 0 0 0
0:00:00.00 225662 N 0 0 0
0:00:00.00 225983 N 0 0 0
0:00:00.00 226055 N 0 0 0
0:00:00.00 226373 N 0 0 0
0:00:00.00 226721 N 0 0 0
0:00:00.00 226793 N 0 0 0
0:00:00.00 227119 N 0 0 0
0:00:00.00 227191 N 0 0 0
0:00:00.00 227511 N 0 0 0
0:00:00.00 227583 N 0 0 0
0:00:00.00 227903 N 0 0 0
0:00:00.00 228253 N 0 0 0
0:00:00.00 228325 N 0 0 0
0:00:00.00 228638 N 0 0 0
0:00:00.00 228985 N 0 0 0
0:00:00.00 229057 N 0 0 0
0:00:00.00 229383 N 0 0 0
0:00:00.00 229759 N 0 0 0
0:00:00.00 230125 N 0 0 0
0:00:00.00 230197 N 0 0 0
0:00:00.00 230485 N 0 0 0
0:00:00.00 230931 N 0 0 0
0:00:00.00 231003 N 0 0 0
0:00:00.00 231338 N 0 0 0
0:00:00.00 231410 N 0 0 0
0:00:00.00 231761 N 0 0 0
0:00:00.00 231833 N 0 0 0
0:00:00.00 232151 N 0 0 0
0:00:00.00 232223 N 0 0 0
0:00:00.00 232576 N 0 0 0
0:00:00.00 232648 N 0 0 0
0:00:00.00 232967 N 0 0 0
0:00:00.00 233363 N 0 0 0
0:00:00.00 233435 N 0 0 0
0:00:00.00 233752 N 0 0 0
0:00:00.00 234115 N 0 0 0
0:00:00.00 234187 N 0 0 0
0:00:00.00 234520 N 0 0 0
0:00:00.00 234857 N 0 0 0
0:00:00.00 234929 N 0 0 0
0:00:00.00 235233 N 0 0 0
0:00:00.00 235571 N 0 0 0
0:00:00.00 235643 N 0 0 0
0:00:00.00 235978 N 0 0 0
0:00:00.00 236050 N 0 0 0
0:00:00.00 236383 N 0 0 0
0:00:00.00 236740 N 0 0 0
0:00:00.00 236812 N 0 0 0
0:00:00.00 237127 N 0 0 0
0:00:00.00 237467 N 0 0 0
0:00:00.00 237539 N 0 0 0
0:00:00.00 237843 N 0 0 0
0:00:00.00 238284 N 0 0 0
0:00:00.00 238356 N 0 0 0
0:00:00.00 238784 N 0 0 0
0:00:00.00 238856 N 0 0 0
0:00:00.00 239188 N 0 0 0
0:00:00.00 239260 N 0 0 0
0:00:00.00 239620 N 0 0 0
0:00:00.00 239692 N 0 0 0
0:00:00.00 240028 N 0 0 0
0:00:00.00 240422 N 0 0 0
0:00:00.00 240494 N 0 0 0
0:00:00.00 240836 N 0 0 0
0:00:00.00 240908 N 0 0 0
0:00:00.00 241223 N 0 0 0
0:00:00.00 241576 N 0 0 0
0:00:00.00 241648 N 0 0 0
0:00:00.00 241963 N 0 0 0
0:00:00.00 242035 N 0 0 0
0:00:00.00 242375 N 0 0 0
0:00:00.00 242447 N 0 0 0
0:00:00.00 242766 N 0 0 0
0:00:00.00 242838 N 0 0 0
0:00:00.00 243166 N 0 0 0
0:00:00.00 243500 N 0 0 0
0:00:00.00 243572 N 0 0 0
0:00:00.00 243886 N 0 0 0
0:00:00.00 244231 N 0 0 0
0:00:00.00 244303 N 0 0 0
0:00:00.00 244634 N 0 0 0
0:00:00.00 244706 N 0 0 0
0:00:00.00 245016 N 0 0 0
0:00:00.00 245088 N 0 0 0
0:00:00.00 245417 N 0 0 0
0:00:00.00 245489 N 0 0 0
0:00:00.00 245786 N 0 0 0
0:00:00.00 246155 N 0 0 0
0:00:00.00 246532 N 0 0 0
0:00:00.00 246604 N 0 0 0
0:00:00.00 246929 N 0 0 0
0:00:00.00 247001 N 0 0 0
0:00:00.00 247345 N 0 0 0
0:00:00.00 247712 N 0 0 0
0:00:00.00 247784 N 0 0 0
0:00:00.00 248119 N 0 0 0
0:00:00.00 248483 N 0 0 0
0:00:00.00 248555 N 0 0 0
0:00:00.00 248888 N 0 0 0
0:00:00.00 248960 N 0 0 0
0:00:00.00 249282 N 0 0 0
0:00:00.00 249354 N 0 0 0
0:00:00.00 249691 N 0 0 0
0:00:00.00 250033 N 0 0 0
0:00:00.00 250105 N 0 0 0
0:00:00.00 250425 N 0 0 0
0:00:00.00 250497 N 0 0 0
0:00:00.00 250825 N 0 0 0
0:00:00.00 251195 N 0 0 0
0:00:00.00 251267 N 0 0 0
0:00:00.00 251586 N 0 0 0
0:00:00.00 251658 N 0 0 0
0:00:00.00 251975 N 0 0 0
0:00:00.00 252311 N 0 0 0
0:00:00.00 252682 N 0 0 0
0:00:00.00 253008 N 0 0 0
0:00:00.00 253082 N 0 0 0
0:00:00.00 253409 N 0 0 0
0:00:00.00 253481 N 0 0 0
0:00:00.00 253854 N 0 0 0
0:00:00.00 253926 N 0 0 0
0:00:00.00 254243 N 0 0 0
0:00:00.00 254315 N 0 0 0
0:00:00.00 254626 N 0 0 0
0:00:00.00 255006 N 0 0 0
0:00:00.00 255078 N 0 0 0
0:00:00.00 255400 N 0 0 0
0:00:00.00 255472 N 0 0 0
0:00:00.00 255802 N 0 0 0
0:00:00.00 256142 N 0 0 0
0:00:00.00 256214 N 0 0 0
0:00:00.00 256489 N 0 0 0
0:00:00.00 256561 N 0 0 0
0:00:00.00 256824 N 0 0 0
0:00:00.00 256896 N 0 0 0
0:00:00.00 257191 N 0 0 0
0:00:00.00 257598 N 0 0 0
0:00:00.00 257670 N 0 0 0
0:00:00.00 257960 N 0 0 0
0:00:00.00 258291 N 0 0 0
0:00:00.00 258613 N 0 0 0
0:00:00.00 258685 N 0 0 0
0:00:00.00 259072 N 0 0 0
0:00:00.00 259144 N 0 0 0
0:00:00.00 259470 N 0 0 0
0:00:00.00 259542 N 0 0 0
0:00:00.00 259864 N 0 0 0
0:00:00.00 259936 N 0 0 0
0:00:00.00 260284 N 0 0 0
0:00:00.00 260356 N 0 0 0
0:00:00.00 260671 N 0 0 0
0:00:00.00 261007 N 0 0 0
0:00:00.00 261079 N 0 0 0
0:00:00.00 261369 N 0 0 0
0:00:00.00 261441 N 0 0 0
0:00:00.00 261749 N 0 0 0
0:00:00.00 262091 N 0 0 0
0:00:00.00 262163 N 0 0 0
0:00:00.00 262478 N 0 0 0
0:00:00.00 262940 N 0 0 0
0:00:00.00 263196 N 0 0 0
0:00:00.00 263648 N 0 0 0
0:00:00.00 263720 N 0 0 0
0:00:00.00 264168 N 0 0 0
0:00:00.00 264240 N 0 0 0
0:00:00.00 264533 N 0 0 0
0:00:00.00 264605 N 0 0 0
0:00:00.00 264931 N 0 0 0
0:00:00.00 265003 N 0 0 0
0:00:00.00 265318 N 0 0 0
0:00:00.00 265660 N 0 0 0
0:00:00.00 265732 N 0 0 0
0:00:00.00 266058 N 0 0 0
0:00:00.00 266130 N 0 0 0
0:00:00.00 266452 N 0 0 0
0:00:00.00 266524 N 0 0 0
0:00:00.00 266852 N 0 0 0
0:00:00.00 267201 N 0 0 0
0:00:00.00 267273 N 0 0 0
0:00:00.00 267561 N 0 0 0
0:00:00.00 267935 N 0 0 0
0:00:00.00 268515 N 0 0 0
0:00:00.00 268699 N 0 0 0
0:00:00.00 268979 N 0 0 0
0:00:00.00 269372 N 0 0 0
0:00:00.00 269773 N 0 0 0
0:00:00.00 269845 N 0 0 0
0:00:00.00 270180 N 0 0 0
0:00:00.00 270553 N 0 0 0
0:00:00.00 270625 N 0 0 0
0:00:00.00 270967 N 0 0 0
0:00:00.00 271039 N 0 0 0
0:00:00.00 271377 N 0 0 0
0:00:00.00 271753 N 0 0 0
0:00:00.00 272110 N 0 0 0
0:00:00.00 272182 N 0 0 0
0:00:00.00 272498 N 0 0 0
0:00:00.00 272570 N 0 0 0
0:00:00.00 272896 N 0 0 0
0:00:00.00 272968 N 0 0 0
0:00:00.00 273280 N 0 0 0
0:00:00.00 273623 N 0 0 0
0:00:00.00 273695 N 0 0 0
0:00:00.00 273994 N 0 0 0
0:00:00.00 274433 N 0 0 0
0:00:00.00 274505 N 0 0 0
0:00:00.00 274876 N 0 0 0
0:00:00.00 274948 N 0 0 0
0:00:00.00 275290 N 0 0 0
0:00:00.00 275362 N 0 0 0
0:00:00.00 275670 N 0 0 0
0:00:00.00 275742 N 0 0 0
0:00:00.00 276055 N 0 0 0
0:00:00.00 276397 N 0 0 0
0:00:00.00 276469 N 0 0 0
0:00:00.00 276800 N 0 0 0
0:00:00.00 277175 N 0 0 0
0:00:00.00 277247 N 0 0 0
0:00:00.00 277499 N 0 0 0
0:00:00.00 277580 N 0 0 0
0:00:00.00 277907 N 0 0 0
0:00:00.00 278280 N 0 0 0
0:00:00.00 278352 N 0 0 0
0:00:00.00 278640 N 0 0 0
0:00:00.00 278712 N 0 0 0
0:00:00.00 279052 N 0 0 0
0:00:00.00 279412 N 0 0 0
0:00:00.00 279484 N 0 0 0
0:00:00.00 279796 N 0 0 0
0:00:00.00 280134 N 0 0 0
0:00:00.00 280206 N 0 0 0
0:00:00.00 280503 N 0 0 0
0:00:00.00 280948 N 0 0 0
0:00:00.00 281398 N 0 0 0
0:00:00.00 281470 N 0 0 0
0:00:00.00 281869 N 0 0 0
0:00:00.00 282242 N 0 0 0
0:00:00.00 282314 N 0 0 0
0:00:00.00 282638 N 0 0 0
0:00:00.00 283019 N 0 0 0
0:00:00.00 283091 N 0 0 0
0:00:00.00 283417 N 0 0 0
0:00:00.00 283489 N 0 0 0
0:00:00.00 283810 N 0 0 0
0:00:00.00 283882 N 0 0 0
0:00:00.00 284225 N 0 0 0
0:00:00.00 284582 N 0 0 0
0:00:00.00 284654 N 0 0 0
0:00:00.00 284960 N 0 0 0
0:00:00.00 285354 N 0 0 0
0:00:00.00 285730 N 0 0 0
0:00:00.00 285802 N 0 0 0
0:00:00.00 286132 N 0 0 0
0:00:00.00 286484 N 0 0 0
0:00:00.00 286556 N 0 0 0
0:00:00.00 286866 N 0 0 0
0:00:00.00 287219 N 0 0 0
0:00:00.00 287291 N 0 0 0
0:00:00.00 287618 N 0 0 0
0:00:00.00 287964 N 0 0 0
0:00:00.00 288036 N 0 0 0
0:00:00.00 288353 N 0 0 0
0:00:00.00 288745 N 0 0 0
0:00:00.00 289150 N 0 0 0
0:00:00.00 289222 N 0 0 0
0:00:00.00 289570 N 0 0 0
0:00:00.00 289926 N 0 0 0
0:00:00.00 289998 N 0 0 0
0:00:00.00 290309 N 0 0 0
0:00:00.00 290381 N 0 0 0
0:00:00.00 290680 N 0 0 0
0:00:00.00 291015 N 0 0 0
0:00:00.00 291087 N 0 0 0
0:00:00.00 291362 N 0 0 0
0:00:00.00 291434 N 0 0 0
0:00:00.00 291735 N 0 0 0
0:00:00.00 292097 N 0 0 0
0:00:00.00 292169 N 0 0 0
0:00:00.00 292487 N 0 0 0
0:00:00.00 292837 N 0 0 0
0:00:00.00 292909 N 0 0 0
0:00:00.00 293202 N 0 0 0
0:00:00.00 293539 N 0 0 0
0:00:00.00 293611 N 0 0 0
0:00:00.00 293931 N 0 0 0
0:00:00.00 294273 N 0 0 0
0:00:00.00 294345 N 0 0 0
0:00:00.00 294656 N 0 0 0
0:00:00.00 294966 N 0 0 0
0:00:00.00 295042 N 0 0 0
0:00:00.00 295321 N 0 0 0
0:00:00.00 295394 N 0 0 0
0:00:00.00 295672 N 0 0 0
0:00:00.00 295744 N 0 0 0
0:00:00.00 296055 N 0 0 0
0:00:00.00 296129 N 0 0 0
0:00:00.00 296456 N 0 0 0
0:00:00.00 296528 N 0 0 0
0:00:00.00 296842 N 0 0 0
0:00:00.00 296915 N 0 0 0
0:00:00.00 297250 N 0 0 0
0:00:00.00 297572 N 0 0 0
0:00:00.00 297646 N 0 0 0
0:00:00.00 297972 N 0 0 0
0:00:00.00 298296 N 0 0 0
0:00:00.00 298370 N 0 0 0
0:00:00.00 298676 N 0 0 0
0:00:00.00 298750 N 0 0 0
0:00:00.00 299097 N 0 0 0
0:00:00.00 299169 N 0 0 0
0:00:00.00 299522 N 0 0 0
0:00:00.00 299597 N 0 0 0
0:00:00.00 299923 N 0 0 0
0:00:00.00 299997 N 0 0 0
0:00:00.00 300325 N 0 0 0
0:00:00.00 300397 N 0 0 0
0:00:00.00 300715 N 0 0 0
0:00:00.00 300796 N 0 0 0
0:00:00.00 301115 N 0 0 0
0:00:00.00 301194 N 0 0 0
0:00:00.00 301507 N 0 0 0
0:00:00.00 301581 N 0 0 0
0:00:00.00 301878 N 0 0 0
0:00:00.00 301950 N 0 0 0
0:00:00.00 302283 N 0 0 0
0:00:00.00 302355 N 0 0 0
0:00:00.00 302699 N 0 0 0
0:00:00.00 302771 N 0 0 0
0:00:00.00 303093 N 0 0 0
0:00:00.00 303165 N 0 0 0
0:00:00.00 303491 N 0 0 0
0:00:00.00 303563 N 0 0 0
0:00:00.00 303869 N 0 0 0
0:00:00.00 303941 N 0 0 0
0:00:00.00 304254 N 0 0 0
0:00:00.00 304621 N 0 0 0
0:00:00.00 304693 N 0 0 0
0:00:00.00 305017 N 0 0 0
0:00:00.00 305352 N 0 0 0
0:00:00.00 305424 N 0 0 0
0:00:00.00 305755 N 0 0 0
0:00:00.00 306112 N 0 0 0
0:00:00.00 306184 N 0 0 0
0:00:00.00 306668 N 0 0 0
0:00:00.00 306967 N 0 0 0
0:00:00.00 307361 N 0 0 0
0:00:00.00 307433 N 0 0 0
0:00:00.00 307762 N 0 0 0
0:00:00.00 307834 N 0 0 0
0:00:00.00 308171 N 0 0 0
0:00:00.00 308243 N 0 0 0
0:00:00.00 308552 N 0 0 0
0:00:00.00 308909 N 0 0 0
0:00:00.00 308981 N 0 0 0
0:00:00.00 309307 N 0 0 0
0:00:00.00 309379 N 0 0 0
0:00:00.00 309715 N 0 0 0
0:00:00.00 310063 N 0 0 0
0:00:00.00 310136 N 0 0 0
0:00:00.00 310450 N 0 0 0
0:00:00.00 310786 N 0 0 0
0:00:00.00 310858 N 0 0 0
0:00:00.00 311168 N 0 0 0
0:00:00.00 311513 N 0 0 0
0:00:00.00 311585 N 0 0 0
0:00:00.00 311967 N 0 0 0
0:00:00.00 312039 N 0 0 0
0:00:00.00 312192 N 0 0 0
0:00:00.00 312426 N 0 0 0
0:00:00.00 312646 N 0 0 0
0:00:00.00 312842 N 0 0 0
0:00:00.00 313178 N 0 0 0
0:00:00.00 313250 N 0 0 0
0:00:00.00 313578 N 0 0 0
0:00:00.00 313654 N 0 0 0
0:00:00.00 314012 N 0 0 0
0:00:00.00 314084 N 0 0 0
0:00:00.00 314413 N 0 0 0
0:00:00.00 314485 N 0 0 0
0:00:00.00 314806 N 0 0 0
0:00:00.00 315131 N 0 0 0
0:00:00.00 315205 N 0 0 0
0:00:00.00 315533 N 0 0 0
0:00:00.00 315612 N 0 0 0
0:00:00.00 315929 N 0 0 0
0:00:00.00 316004 N 0 0 0
0:00:00.00 316343 N 0 0 0
0:00:00.00 316415 N 0 0 0
0:00:00.00 316744 N 0 0 0
0:00:00.00 316816 N 0 0 0
0:00:00.00 317126 N 0 0 0
0:00:00.00 317457 N 0 0 0
0:00:00.00 317533 N 0 0 0
0:00:00.00 317864 N 0 0 0
0:00:00.00 317943 N 0 0 0
0:00:00.00 318280 N 0 0 0
0:00:00.00 318352 N 0 0 0
0:00:00.00 318676 N 0 0 0
0:00:00.00 318748 N 0 0 0
0:00:00.00 319084 N 0 0 0
0:00:00.00 319403 N 0 0 0
0:00:00.00 319480 N 0 0 0
0:00:00.00 319793 N 0 0 0
0:00:00.00 319867 N 0 0 0
0:00:00.00 320200 N 0 0 0
0:00:00.00 320285 N 0 0 0
0:00:00.00 320602 N 0 0 0
0:00:00.00 320677 N 0 0 0
0:00:00.00 321005 N 0 0 0
0:00:00.00 321077 N 0 0 0
0:00:00.00 321399 N 0 0 0
0:00:00.00 321727 N 0 0 0
0:00:00.00 321799 N 0 0 0
0:00:00.00 322133 N 0 0 0
0:00:00.00 322205 N 0 0 0
0:00:00.00 322537 N 0 0 0
0:00:00.00 322610 N 0 0 0
0:00:00.00 322942 N 0 0 0
0:00:00.00 323267 N 0 0 0
0:00:00.00 323341 N 0 0 0
0:00:00.00 323667 N 0 0 0
0:00:00.00 323739 N 0 0 0
0:00:00.00 324011 N 0 0 0
0:00:00.00 324085 N 0 0 0
0:00:00.00 324410 N 0 0 0
0:00:00.00 324484 N 0 0 0
0:00:00.00 324805 N 0 0 0
0:00:00.00 324878 N 0 0 0
0:00:00.00 325192 N 0 0 0
0:00:00.00 325264 N 0 0 0
0:00:00.00 325593 N 0 0 0
0:00:00.00 325665 N 0 0 0
0:00:00.00 325985 N 0 0 0
0:00:00.00 326311 N 0 0 0
0:00:00.00 326387 N 0 0 0
0:00:00.00 326574 N 0 0 0
0:00:00.00 326646 N 0 0 0
0:00:00.00 326725 N 0 0 0
0:00:00.00 327085 N 0 0 0
0:00:00.00 327164 N 0 0 0
0:00:00.00 327479 N 0 0 0
0:00:00.00 327551 N 0 0 0
0:00:00.00 327890 N 0 0 0
0:00:00.00 328205 N 0 0 0
0:00:00.00 328277 N 0 0 0
0:00:00.00 328604 N 0 0 0
0:00:00.00 328680 N 0 0 0
0:00:00.00 329004 N 0 0 0
0:00:00.00 329076 N 0 0 0
0:00:00.00 329391 N 0 0 0
0:00:00.00 329715 N 0 0 0
0:00:00.00 329787 N 0 0 0
0:00:00.00 330106 N 0 0 0
0:00:00.00 330426 N 0 0 0
0:00:00.00 330498 N 0 0 0
0:00:00.00 330925 N 0 0 0
0:00:00.00 331006 N 0 0 0
0:00:00.00 331393 N 0 0 0
0:00:00.00 331472 N 0 0 0
0:00:00.00 331803 N 0 0 0
0:00:00.00 331877 N 0 0 0
0:00:00.00 332204 N 0 0 0
0:00:00.00 332284 N 0 0 0
0:00:00.00 332615 N 0 0 0
0:00:00.00 332687 N 0 0 0
0:00:00.00 333009 N 0 0 0
0:00:00.00 333081 N 0 0 0
0:00:00.00 333412 N 0 0 0
0:00:00.00 333484 N 0 0 0
0:00:00.00 333769 N 0 0 0
0:00:00.00 333842 N 0 0 0
0:00:00.00 334179 N 0 0 0
0:00:00.00 334541 N 0 0 0
0:00:00.00 334618 N 0 0 0
0:00:00.00 334944 N 0 0 0
0:00:00.00 335324 N 0 0 0
0:00:00.00 335657 N 0 0 0
0:00:00.00 335729 N 0 0 0
0:00:00.00 336019 N 0 0 0
0:00:00.00 336098 N 0 0 0
0:00:00.00 336436 N 0 0 0
0:00:00.00 336782 N 0 0 0
0:00:00.00 337147 N 0 0 0
0:00:00.00 337219 N 0 0 0
0:00:00.00 337608 N 0 0 0
0:00:00.00 337680 N 0 0 0
0:00:00.00 338053 N 0 0 0
0:00:00.00 338125 N 0 0 0
0:00:00.00 338458 N 0 0 0
0:00:00.00 338530 N 0 0 0
0:00:00.00 338879 N 0 0 0
0:00:00.00 338951 N 0 0 0
0:00:00.00 339280 N 0 0 0
0:00:00.00 339352 N 0 0 0
0:00:00.00 339689 N 0 0 0
0:00:00.00 339761 N 0 0 0
0:00:00.00 340090 N 0 0 0
0:00:00.00 340162 N 0 0 0
0:00:00.00 340483 N 0 0 0
0:00:00.00 340834 N 0 0 0
0:00:00.00 340906 N 0 0 0
0:00:00.00 341237 N 0 0 0
0:00:00.00 341590 N 0 0 0
0:00:00.00 341662 N 0 0 0
0:00:00.00 342005 N 0 0 0
0:00:00.00 342077 N 0 0 0
0:00:00.00 342365 N 0 0 0
0:00:00.00 342437 N 0 0 0
0:00:00.00 342738 N 0 0 0
0:00:00.00 342810 N 0 0 0
0:00:00.00 343096 N 0 0 0
0:00:00.00 343168 N 0 0 0
0:00:00.00 343472 N 0 0 0
0:00:00.00 343544 N 0 0 0
0:00:00.00 343854 N 0 0 0
0:00:00.00 343926 N 0 0 0
0:00:00.00 344255 N 0 0 0
0:00:00.00 344632 N 0 0 0
0:00:00.00 344704 N 0 0 0
0:00:00.00 345182 N 0 0 0
0:00:00.00 345604 N 0 0 0
0:00:00.00 345676 N 0 0 0
0:00:00.00 346032 N 0 0 0
0:00:00.00 346104 N 0 0 0
0:00:00.00 346426 N 0 0 0
0:00:00.00 346498 N 0 0 0
0:00:00.00 346824 N 0 0 0
0:00:00.00 346896 N 0 0 0
0:00:00.00 347220 N 0 0 0
0:00:00.00 347575 N 0 0 0
0:00:00.00 347647 N 0 0 0
0:00:00.00 347980 N 0 0 0
0:00:00.00 348345 N 0 0 0
0:00:00.00 348417 N 0 0 0
0:00:00.00 348743 N 0 0 0
0:00:00.00 348815 N 0 0 0
0:00:00.00 349133 N 0 0 0
0:00:00.00 349481 N 0 0 0
0:00:00.00 349553 N 0 0 0
0:00:00.00 349859 N 0 0 0
0:00:00.00 350221 N 0 0 0
0:00:00.00 350293 N 0 0 0
0:00:00.00 350640 N 0 0 0
0:00:00.00 351014 N 0 0 0
0:00:00.00 351389 N 0 0 0
0:00:00.00 351461 N 0 0 0
0:00:00.00 351769 N 0 0 0
0:00:00.00 352118 N 0 0 0
0:00:00.00 352190 N 0 0 0
0:00:00.00 352535 N 0 0 0
0:00:00.00 352901 N 0 0 0
0:00:00.00 352973 N 0 0 0
0:00:00.00 353299 N 0 0 0
0:00:00.00 353639 N 0 0 0
0:00:00.00 353711 N 0 0 0
0:00:00.00 354042 N 0 0 0
0:00:00.00 354406 N 0 0 0
0:00:00.00 354478 N 0 0 0
0:00:00.00 354805 N 0 0 0
0:00:00.00 354877 N 0 0 0
0:00:00.00 355208 N 0 0 0
0:00:00.00 355280 N 0 0 0
0:00:00.00 355608 N 0 0 0
0:00:00.00 355961 N 0 0 0
0:00:00.00 356033 N 0 0 0
0:00:00.00 356368 N 0 0 0
0:00:00.00 356740 N 0 0 0
0:00:00.00 356812 N 0 0 0
0:00:00.00 357133 N 0 0 0
0:00:00.00 357205 N 0 0 0
0:00:00.00 357529 N 0 0 0
0:00:00.00 357889 N 0 0 0
0:00:00.00 357961 N 0 0 0
0:00:00.00 358292 N 0 0 0
0:00:00.00 358664 N 0 0 0
0:00:00.00 358736 N 0 0 0
0:00:00.00 359091 N 0 0 0
0:00:00.00 359480 N 0 0 0
0:00:00.00 359552 N 0 0 0
0:00:00.00 359878 N 0 0 0
0:00:00.00 360250 N 0 0 0
0:00:00.00 360322 N 0 0 0
0:00:00.00 360650 N 0 0 0
0:00:00.00 360722 N 0 0 0
0:00:00.00 361055 N 0 0 0
0:00:00.00 361433 N 0 0 0
0:00:00.00 361505 N 0 0 0
0:00:00.00 361858 N 0 0 0
0:00:00.00 362239 N 0 0 0
0:00:00.00 362632 N 0 0 0
0:00:00.00 363002 N 0 0 0
0:00:00.00 363397 N 0 0 0
0:00:00.00 363469 N 0 0 0
0:00:00.00 363798 N 0 0 0
0:00:00.00 363870 N 0 0 0
0:00:00.00 364185 N 0 0 0
0:00:00.00 364545 N 0 0 0
0:00:00.00 364617 N 0 0 0
0:00:00.00 364936 N 0 0 0
0:00:00.00 365297 N 0 0 0
0:00:00.00 365369 N 0 0 0
0:00:00.00 365702 N 0 0 0
0:00:00.00 366095 N 0 0 0
0:00:00.00 366442 N 0 0 0
0:00:00.00 366514 N 0 0 0
0:00:00.00 366813 N 0 0 0
0:00:00.00 367155 N 0 0 0
0:00:00.00 367227 N 0 0 0
0:00:00.00 367551 N 0 0 0
0:00:00.00 367880 N 0 0 0
0:00:00.00 367952 N 0 0 0
0:00:00.00 368291 N 0 0 0
0:00:00.00 368635 N 0 0 0
0:00:00.00 368707 N 0 0 0
0:00:00.00 368987 N 0 0 0
0:00:00.00 369059 N 0 0 0
0:00:00.00 369443 N 0 0 0
0:00:00.00 369515 N 0 0 0
0:00:00.00 369850 N 0 0 0
0:00:00.00 369922 N 0 0 0
0:00:00.00 370247 N 0 0 0
0:00:00.00 370321 N 0 0 0
0:00:00.00 370651 N 0 0 0
0:00:00.00 370723 N 0 0 0
0:00:00.00 371030 N 0 0 0
0:00:00.00 371108 N 0 0 0
0:00:00.00 371401 N 0 0 0
0:00:00.00 371477 N 0 0 0
0:00:00.00 371727 N 0 0 0
0:00:00.00 371810 N 0 0 0
0:00:00.00 371891 N 0 0 0
0:00:00.00 372191 N 0 0 0
0:00:00.00 372263 N 0 0 0
0:00:00.00 372596 N 0 0 0
0:00:00.00 372722 N 0 0 0
0:00:00.00 372857 N 0 0 0
0:00:00.00 372969 N 0 0 0
0:00:00.00 373277 N 0 0 0
0:00:00.00 373363 N 0 0 0
0:00:00.00 373684 N 0 0 0
0:00:00.00 373759 N 0 0 0
0:00:00.00 374090 N 0 0 0
0:00:00.00 374409 N 0 0 0
0:00:00.00 374499 N 0 0 0
0:00:00.00 374783 N 0 0 0
0:00:00.00 374863 N 0 0 0
0:00:00.00 375188 N 0 0 0
0:00:00.00 375478 N 0 0 0
0:00:00.00 375572 N 0 0 0
0:00:00.00 375871 N 0 0 0
0:00:00.00 375946 N 0 0 0
0:00:00.00 376281 N 0 0 0
0:00:00.00 376366 N 0 0 0
0:00:00.00 376661 N 0 0 0
0:00:00.00 376753 N 0 0 0
0:00:00.00 377037 N 0 0 0
0:00:00.00 377116 N 0 0 0
0:00:00.00 377379 N 0 0 0
0:00:00.00 377458 N 0 0 0
0:00:00.00 377779 N 0 0 0
0:00:00.00 378072 N 0 0 0
0:00:00.00 378157 N 0 0 0
0:00:00.00 378486 N 0 0 0
0:00:00.00 378814 N 0 0 0
0:00:00.00 379112 N 0 0 0
0:00:00.00 379193 N 0 0 0
0:00:00.00 379458 N 0 0 0
0:00:00.00 379535 N 0 0 0
0:00:00.00 379784 N 0 0 0
0:00:00.00 379868 N 0 0 0
0:00:00.00 379948 N 0 0 0
0:00:00.00 380043 N 0 0 0
0:00:00.00 380124 N 0 0 0
0:00:00.00 380210 N 0 0 0
0:00:00.00 380477 N 0 0 0
0:00:00.00 380560 N 0 0 0
0:00:00.00 380887 N 0 0 0
0:00:00.00 381222 N 0 0 0
0:00:00.00 381553 N 0 0 0
0:00:00.00 381875 N 0 0 0
0:00:00.00 382201 N 0 0 0
0:00:00.00 382514 N 0 0 0
0:00:00.00 382590 N 0 0 0
0:00:00.00 382901 N 0 0 0
0:00:00.00 383229 N 0 0 0
0:00:00.00 383303 N 0 0 0
0:00:00.00 383591 N 0 0 0
0:00:00.00 383922 N 0 0 0
0:00:00.00 384251 N 0 0 0
0:00:00.00 384323 N 0 0 0
0:00:00.00 384608 N 0 0 0
0:00:00.00 384934 N 0 0 0
0:00:00.00 385006 N 0 0 0
0:00:00.00 385310 N 0 0 0
0:00:00.00 385637 N 0 0 0
0:00:00.00 385960 N 0 0 0
0:00:00.00 386284 N 0 0 0
0:00:00.00 386620 N 0 0 0
0:00:00.00 386955 N 0 0 0
0:00:00.00 387295 N 0 0 0
0:00:00.00 387614 N 0 0 0
0:00:00.00 387686 N 0 0 0
0:00:00.00 387952 N 0 0 0
0:00:00.00 388256 N 0 0 0
0:00:00.00 388570 N 0 0 0
0:00:00.00 388899 N 0 0 0
0:00:00.00 389221 N 0 0 0
0:00:00.00 389524 N 0 0 0
0:00:00.00 389596 N 0 0 0
0:00:00.00 389853 N 0 0 0
0:00:00.00 390193 N 0 0 0
0:00:00.00 390505 N 0 0 0
0:00:00.00 390836 N 0 0 0
0:00:00.00 391163 N 0 0 0
0:00:00.00 391235 N 0 0 0
0:00:00.00 391543 N 0 0 0
0:00:00.00 391865 N 0 0 0
0:00:00.00 391937 N 0 0 0
0:00:00.00 392200 N 0 0 0
0:00:00.00 392521 N 0 0 0
0:00:00.00 392837 N 0 0 0
0:00:00.00 393046 N 0 0 0
0:00:00.00 393118 N 0 0 0
0:00:00.00 393475 N 0 0 0
0:00:00.00 393548 N 0 0 0
0:00:00.00 393840 N 0 0 0
0:00:00.00 394148 N 0 0 0
0:00:00.00 394445 N 0 0 0
0:00:00.00 394756 N 0 0 0
0:00:00.00 395055 N 0 0 0
0:00:00.00 395359 N 0 0 0
0:00:00.00 395678 N 0 0 0
0:00:00.00 395995 N 0 0 0
0:00:00.00 396319 N 0 0 0
0:00:00.00 396621 N 0 0 0
0:00:00.00 396920 N 0 0 0
0:00:00.00 397238 N 0 0 0
0:00:00.00 397564 N 0 0 0
0:00:00.00 397885 N 0 0 0
0:00:00.00 397957 N 0 0 0
0:00:00.00 398248 N 0 0 0
0:00:00.00 398569 N 0 0 0
0:00:00.00 398641 N 0 0 0
0:00:00.00 398921 N 0 0 0
0:00:00.00 399236 N 0 0 0
0:00:00.00 399571 N 0 0 0
0:00:00.00 399915 N 0 0 0
0:00:00.00 400235 N 0 0 0
0:00:00.00 400568 N 0 0 0
0:00:00.00 400640 N 0 0 0
0:00:00.00 400916 N 0 0 0
0:00:00.00 400988 N 0 0 0
0:00:00.00 401258 N 0 0 0
0:00:00.00 401589 N 0 0 0
0:00:00.00 401661 N 0 0 0
0:00:00.00 401972 N 0 0 0
0:00:00.00 402304 N 0 0 0
0:00:00.00 402376 N 0 0 0
0:00:00.00 402682 N 0 0 0
0:00:00.00 403006 N 0 0 0
0:00:00.00 403078 N 0 0 0
0:00:00.00 403340 N 0 0 0
0:00:00.00 403412 N 0 0 0
0:00:00.00 403684 N 0 0 0
0:00:00.00 403756 N 0 0 0
0:00:00.00 404032 N 0 0 0
0:00:00.00 404104 N 0 0 0
0:00:00.00 404424 N 0 0 0
0:00:00.00 404771 N 0 0 0
0:00:00.00 405099 N 0 0 0
0:00:00.00 405171 N 0 0 0
0:00:00.00 405439 N 0 0 0
0:00:00.00 405778 N 0 0 0
0:00:00.00 406109 N 0 0 0
0:00:00.00 406537 N 0 0 0
0:00:00.00 406609 N 0 0 0
0:00:00.00 406910 N 0 0 0
0:00:00.00 406982 N 0 0 0
0:00:00.00 407273 N 0 0 0
0:00:00.00 407345 N 0 0 0
0:00:00.00 407614 N 0 0 0
0:00:00.00 407686 N 0 0 0
0:00:00.00 408109 N 0 0 0
0:00:00.00 408181 N 0 0 0
0:00:00.00 408505 N 0 0 0
0:00:00.00 408577 N 0 0 0
0:00:00.00 408913 N 0 0 0
0:00:00.00 409252 N 0 0 0
0:00:00.00 409324 N 0 0 0
0:00:00.00 409622 N 0 0 0
0:00:00.00 409948 N 0 0 0
0:00:00.00 410274 N 0 0 0
0:00:00.00 410346 N 0 0 0
0:00:00.00 410681 N 0 0 0
0:00:00.00 411026 N 0 0 0
0:00:00.00 411098 N 0 0 0
0:00:00.00 411458 N 0 0 0
0:00:00.00 411530 N 0 0 0
0:00:00.00 411815 N 0 0 0
0:00:00.00 411887 N 0 0 0
0:00:00.00 412196 N 0 0 0
0:00:00.00 412535 N 0 0 0
0:00:00.00 412607 N 0 0 0
0:00:00.00 412933 N 0 0 0
0:00:00.00 413005 N 0 0 0
0:00:00.00 413518 N 0 0 0
0:00:00.00 413924 N 0 0 0
0:00:00.00 413996 N 0 0 0
0:00:00.00 414329 N 0 0 0
0:00:00.00 414401 N 0 0 0
0:00:00.00 414729 N 0 0 0
0:00:00.00 414801 N 0 0 0
0:00:00.00 415116 N 0 0 0
0:00:00.00 415188 N 0 0 0
0:00:00.00 415501 N 0 0 0
0:00:00.00 415573 N 0 0 0
0:00:00.00 415876 N 0 0 0
0:00:00.00 416218 N 0 0 0
0:00:00.00 416290 N 0 0 0
0:00:00.00 416635 N 0 0 0
0:00:00.00 416709 N 0 0 0
0:00:00.00 416988 N 0 0 0
0:00:00.00 417062 N 0 0 0
0:00:00.00 417382 N 0 0 0
0:00:00.00 417454 N 0 0 0
0:00:00.00 417782 N 0 0 0
0:00:00.00 417861 N 0 0 0
0:00:00.00 418187 N 0 0 0
0:00:00.00 418547 N 0 0 0
0:00:00.00 418619 N 0 0 0
0:00:00.00 418955 N 0 0 0
0:00:00.00 419297 N 0 0 0
0:00:00.00 419375 N 0 0 0
0:00:00.00 419639 N 0 0 0
0:00:00.00 419753 N 0 0 0
0:00:00.00 420102 N 0 0 0
0:00:00.00 420178 N 0 0 0
0:00:00.00 420505 N 0 0 0
0:00:00.00 420833 N 0 0 0
0:00:00.00 420905 N 0 0 0
0:00:00.00 421222 N 0 0 0
0:00:00.00 421294 N 0 0 0
0:00:00.00 421639 N 0 0 0
0:00:00.00 421711 N 0 0 0
0:00:00.00 422123 N 0 0 0
0:00:00.00 422195 N 0 0 0
0:00:00.00 422514 N 0 0 0
0:00:00.00 422892 N 0 0 0
0:00:00.00 422964 N 0 0 0
0:00:00.00 423292 N 0 0 0
0:00:00.00 423364 N 0 0 0
0:00:00.00 423693 N 0 0 0
0:00:00.00 423765 N 0 0 0
0:00:00.00 424091 N 0 0 0
0:00:00.00 424163 N 0 0 0
0:00:00.00 424496 N 0 0 0
0:00:00.00 424831 N 0 0 0
0:00:00.00 424903 N 0 0 0
0:00:00.00 425236 N 0 0 0
0:00:00.00 425594 N 0 0 0
0:00:00.00 425666 N 0 0 0
0:00:00.00 426011 N 0 0 0
0:00:00.00 426433 N 0 0 0
0:00:00.00 426506 N 0 0 0
0:00:00.00 427037 N 0 0 0
0:00:00.00 427109 N 0 0 0
0:00:00.00 427419 N 0 0 0
0:00:00.00 427806 N 0 0 0
0:00:00.00 427878 N 0 0 0
0:00:00.00 428209 N 0 0 0
0:00:00.00 428281 N 0 0 0
0:00:00.00 428629 N 0 0 0
0:00:00.00 428701 N 0 0 0
0:00:00.00 429028 N 0 0 0
0:00:00.00 429385 N 0 0 0
0:00:00.00 429457 N 0 0 0
0:00:00.00 429748 N 0 0 0
0:00:00.00 429820 N 0 0 0
0:00:00.00 430144 N 0 0 0
0:00:00.00 430218 N 0 0 0
0:00:00.00 430555 N 0 0 0
0:00:00.00 430942 N 0 0 0
0:00:00.00 431014 N 0 0 0
0:00:00.00 431478 N 0 0 0
0:00:00.00 431550 N 0 0 0
0:00:00.00 431944 N 0 0 0
0:00:00.00 432016 N 0 0 0
0:00:00.00 432376 N 0 0 0
0:00:00.00 432454 N 0 0 0
0:00:00.00 432783 N 0 0 0
0:00:00.00 432855 N 0 0 0
0:00:00.00 433184 N 0 0 0
0:00:00.00 433544 N 0 0 0
0:00:00.00 433616 N 0 0 0
0:00:00.00 433926 N 0 0 0
0:00:00.00 434281 N 0 0 0
0:00:00.00 434353 N 0 0 0
0:00:00.00 434677 N 0 0 0
0:00:00.00 434749 N 0 0 0
0:00:00.00 435083 N 0 0 0
0:00:00.00 435640 N 0 0 0
0:00:00.00 435712 N 0 0 0
0:00:00.00 436039 N 0 0 0
0:00:00.00 436111 N 0 0 0
0:00:00.00 436453 N 0 0 0
0:00:00.00 436525 N 0 0 0
0:00:00.00 436853 N 0 0 0
0:00:00.00 436925 N 0 0 0
0:00:00.00 437261 N 0 0 0
0:00:00.00 437333 N 0 0 0
0:00:00.00 437656 N 0 0 0
0:00:00.00 437965 N 0 0 0
0:00:00.00 438037 N 0 0 0
0:00:00.00 438169 N 0 0 0
0:00:00.00 438269 N 0 0 0
0:00:00.00 438401 N 0 0 0
0:00:00.00 438727 N 0 0 0
0:00:00.00 438802 N 0 0 0
0:00:00.00 439123 N 0 0 0
0:00:00.00 439450 N 0 0 0
0:00:00.00 439537 N 0 0 0
0:00:00.00 439778 N 0 0 0
0:00:00.00 439916 N 0 0 0
0:00:00.00 439994 N 0 0 0
0:00:00.00 440120 N 0 0 0
0:00:00.00 440350 N 0 0 0
0:00:00.00 440428 N 0 0 0
0:00:00.00 440782 N 0 0 0
0:00:00.00 440869 N 0 0 0
0:00:00.00 441187 N 0 0 0
0:00:00.00 441272 N 0 0 0
0:00:00.00 441571 N 0 0 0
0:00:00.00 441661 N 0 0 0
0:00:00.00 441954 N 0 0 0
0:00:00.00 442039 N 0 0 0
0:00:00.00 442292 N 0 0 0
0:00:00.00 442366 N 0 0 0
0:00:00.00 442440 N 0 0 0
0:00:00.00 442687 N 0 0 0
0:00:00.00 442762 N 0 0 0
0:00:00.00 443061 N 0 0 0
0:00:00.00 443146 N 0 0 0
0:00:00.00 443437 N 0 0 0
0:00:00.00 443525 N 0 0 0
0:00:00.00 443597 N 0 0 0
0:00:00.00 443734 N 0 0 0
0:00:00.00 443808 N 0 0 0
0:00:00.00 443889 N 0 0 0
0:00:00.00 443965 N 0 0 0
0:00:00.00 444038 N 0 0 0
0:00:00.00 444193 N 0 0 0
0:00:00.00 444267 N 0 0 0
0:00:00.00 444587 N 0 0 0
0:00:00.00 444913 N 0 0 0
0:00:00.00 444987 N 0 0 0
0:00:00.00 445307 N 0 0 0
0:00:00.00 445383 N 0 0 0
0:00:00.00 445671 N 0 0 0
0:00:00.00 445763 N 0 0 0
0:00:00.00 446053 N 0 0 0
0:00:00.00 446130 N 0 0 0
0:00:00.00 446449 N 0 0 0
0:00:00.00 446522 N 0 0 0
0:00:00.00 446762 N 0 0 0
0:00:00.00 446850 N 0 0 0
0:00:00.00 447183 N 0 0 0
0:00:00.00 447509 N 0 0 0
0:00:00.00 447581 N 0 0 0
0:00:00.00 447737 N 0 0 0
0:00:00.00 447982 N 0 0 0
0:00:00.00 448067 N 0 0 0
0:00:00.00 448391 N 0 0 0
0:00:00.00 448681 N 0 0 0
0:00:00.00 448771 N 0 0 0
0:00:00.00 449060 N 0 0 0
0:00:00.00 449140 N 0 0 0
0:00:00.00 449480 N 0 0 0
0:00:00.00 449789 N 0 0 0
0:00:00.00 449874 N 0 0 0
0:00:00.00 450212 N 0 0 0
0:00:00.00 450538 N 0 0 0
0:00:00.00 450612 N 0 0 0
0:00:00.00 450853 N 0 0 0
0:00:00.00 450927 N 0 0 0
0:00:00.00 451238 N 0 0 0
0:00:00.00 451312 N 0 0 0
0:00:00.00 451384 N 0 0 0
0:00:00.00 451537 N 0 0 0
0:00:00.00 451615 N 0 0 0
0:00:00.00 451894 N 0 0 0
0:00:00.00 451982 N 0 0 0
0:00:00.00 452214 N 0 0 0
0:00:00.00 452311 N 0 0 0
0:00:00.00 452630 N 0 0 0
0:00:00.00 452702 N 0 0 0
0:00:00.00 452979 N 0 0 0
0:00:00.00 453317 N 0 0 0
0:00:00.00 453656 N 0 0 0
0:00:00.00 453992 N 0 0 0
0:00:00.00 454064 N 0 0 0
0:00:00.00 454365 N 0 0 0
0:00:00.00 454685 N 0 0 0
0:00:00.00 454757 N 0 0 0
0:00:00.00 455040 N 0 0 0
0:00:00.00 455369 N 0 0 0
0:00:00.00 455683 N 0 0 0
0:00:00.00 455760 N 0 0 0
0:00:00.00 456052 N 0 0 0
0:00:00.00 456386 N 0 0 0
0:00:00.00 456458 N 0 0 0
0:00:00.00 456750 N 0 0 0
0:00:00.00 457070 N 0 0 0
0:00:00.00 457245 N 0 0 0
0:00:00.00 457317 N 0 0 0
0:00:00.00 457720 N 0 0 0
0:00:00.00 457792 N 0 0 0
0:00:00.00 458086 N 0 0 0
0:00:00.00 458420 N 0 0 0
0:00:00.00 458492 N 0 0 0
0:00:00.00 458797 N 0 0 0
0:00:00.00 459126 N 0 0 0
0:00:00.00 459455 N 0 0 0
0:00:00.00 459790 N 0 0 0
0:00:00.00 460127 N 0 0 0
0:00:00.00 460199 N 0 0 0
0:00:00.00 460501 N 0 0 0
0:00:00.00 460820 N 0 0 0
0:00:00.00 460892 N 0 0 0
0:00:00.00 461218 N 0 0 0
0:00:00.00 461545 N 0 0 0
0:00:00.00 461869 N 0 0 0
0:00:00.00 461941 N 0 0 0
0:00:00.00 462220 N 0 0 0
0:00:00.00 462292 N 0 0 0
0:00:00.00 462593 N 0 0 0
0:00:00.00 462929 N 0 0 0
0:00:00.00 463252 N 0 0 0
0:00:00.00 463324 N 0 0 0
0:00:00.00 463615 N 0 0 0
0:00:00.00 463934 N 0 0 0
0:00:00.00 464263 N 0 0 0
0:00:00.00 464611 N 0 0 0
0:00:00.00 464944 N 0 0 0
0:00:00.00 465016 N 0 0 0
0:00:00.00 465302 N 0 0 0
0:00:00.00 465642 N 0 0 0
0:00:00.00 465970 N 0 0 0
0:00:00.00 466042 N 0 0 0
0:00:00.00 466308 N 0 0 0
0:00:00.00 466645 N 0 0 0
0:00:00.00 466976 N 0 0 0
0:00:00.00 467048 N 0 0 0
0:00:00.00 467336 N 0 0 0
0:00:00.00 467658 N 0 0 0
0:00:00.00 467975 N 0 0 0
0:00:00.00 468293 N 0 0 0
0:00:00.00 468619 N 0 0 0
0:00:00.00 468950 N 0 0 0
0:00:00.00 469301 N 0 0 0
0:00:00.00 469627 N 0 0 0
0:00:00.00 469951 N 0 0 0
0:00:00.00 470023 N 0 0 0
0:00:00.00 470288 N 0 0 0
0:00:00.00 470365 N 0 0 0
0:00:00.00 470644 N 0 0 0
0:00:00.00 470972 N 0 0 0
0:00:00.00 471319 N 0 0 0
0:00:00.00 471645 N 0 0 0
0:00:00.00 471989 N 0 0 0
0:00:00.00 472295 N 0 0 0
0:00:00.00 472606 N 0 0 0
0:00:00.00 472921 N 0 0 0
0:00:00.00 473251 N 0 0 0
0:00:00.00 473567 N 0 0 0
0:00:00.00 473881 N 0 0 0
0:00:00.00 474208 N 0 0 0
0:00:00.00 474525 N 0 0 0
0:00:00.00 474835 N 0 0 0
0:00:00.00 475162 N 0 0 0
0:00:00.00 475483 N 0 0 0
0:00:00.00 475555 N 0 0 0
0:00:00.00 475839 N 0 0 0
0:00:00.00 476165 N 0 0 0
0:00:00.00 476485 N 0 0 0
0:00:00.00 476804 N 0 0 0
0:00:00.00 477115 N 0 0 0
0:00:00.00 477437 N 0 0 0
0:00:00.00 477781 N 0 0 0
0:00:00.00 478107 N 0 0 0
0:00:00.00 478179 N 0 0 0
0:00:00.00 478467 N 0 0 0
0:00:00.00 478784 N 0 0 0
0:00:00.00 479108 N 0 0 0
0:00:00.00 479182 N 0 0 0
0:00:00.00 479448 N 0 0 0
0:00:00.00 479783 N 0 0 0
0:00:00.00 480134 N 0 0 0
0:00:00.00 480206 N 0 0 0
0:00:00.00 480494 N 0 0 0
0:00:00.00 480816 N 0 0 0
0:00:00.00 481154 N 0 0 0
0:00:00.00 481487 N 0 0 0
0:00:00.00 481559 N 0 0 0
0:00:00.00 481840 N 0 0 0
0:00:00.00 482180 N 0 0 0
0:00:00.00 482524 N 0 0 0
0:00:00.00 482596 N 0 0 0
0:00:00.00 482873 N 0 0 0
0:00:00.00 483188 N 0 0 0
0:00:00.00 483514 N 0 0 0
0:00:00.00 483853 N 0 0 0
0:00:00.00 484186 N 0 0 0
0:00:00.00 484513 N 0 0 0
0:00:00.00 484837 N 0 0 0
0:00:00.00 484909 N 0 0 0
0:00:00.00 485183 N 0 0 0
0:00:00.00 485507 N 0 0 0
0:00:00.00 485831 N 0 0 0
0:00:00.00 486175 N 0 0 0
0:00:00.00 486522 N 0 0 0
0:00:00.00 486846 N 0 0 0
0:00:00.00 486918 N 0 0 0
0:00:00.00 487183 N 0 0 0
0:00:00.00 487516 N 0 0 0
0:00:00.00 487840 N 0 0 0
0:00:00.00 488164 N 0 0 0
0:00:00.00 488236 N 0 0 0
0:00:00.00 488545 N 0 0 0
0:00:00.00 488866 N 0 0 0
0:00:00.00 489190 N 0 0 0
0:00:00.00 489262 N 0 0 0
0:00:00.00 489568 N 0 0 0
0:00:00.00 489893 N 0 0 0
0:00:00.00 489967 N 0 0 0
0:00:00.00 490264 N 0 0 0
0:00:00.00 490595 N 0 0 0
0:00:00.00 490784 N 0 0 0
0:00:00.00 490912 N 0 0 0
0:00:00.00 491260 N 0 0 0
0:00:00.00 491339 N 0 0 0
0:00:00.00 491652 N 0 0 0
0:00:00.00 491971 N 0 0 0
0:00:00.00 492291 N 0 0 0
0:00:00.00 492615 N 0 0 0
0:00:00.00 492950 N 0 0 0
0:00:00.00 493283 N 0 0 0
0:00:00.00 493601 N 0 0 0
0:00:00.00 493904 N 0 0 0
0:00:00.00 494203 N 0 0 0
0:00:00.00 494514 N 0 0 0
0:00:00.00 494831 N 0 0 0
0:00:00.00 494903 N 0 0 0
0:00:00.00 495187 N 0 0 0
0:00:00.00 495524 N 0 0 0
0:00:00.00 495859 N 0 0 0
0:00:00.00 496174 N 0 0 0
0:00:00.00 496481 N 0 0 0
0:00:00.00 496800 N 0 0 0
0:00:00.00 497128 N 0 0 0
0:00:00.00 497200 N 0 0 0
0:00:00.00 497484 N 0 0 0
0:00:00.00 497817 N 0 0 0
0:00:00.00 498141 N 0 0 0
0:00:00.00 498461 N 0 0 0
0:00:00.00 498780 N 0 0 0
0:00:00.00 499109 N 0 0 0
0:00:00.00 499442 N 0 0 0
0:00:00.00 499765 N 0 0 0
0:00:00.00 499837 N 0 0 0
0:00:00.00 500108 N 0 0 0
0:00:00.00 500416 N 0 0 0
0:00:00.00 500740 N 0 0 0
0:00:00.00 501055 N 0 0 0
0:00:00.00 501367 N 0 0 0
0:00:00.00 501440 N 0 0 0
0:00:00.00 501743 N 0 0 0
0:00:00.00 502070 N 0 0 0
0:00:00.00 502398 N 0 0 0
0:00:00.00 502729 N 0 0 0
0:00:00.00 503057 N 0 0 0
0:00:00.00 503129 N 0 0 0
0:00:00.00 503431 N 0 0 0
0:00:00.00 503768 N 0 0 0
0:00:00.00 504108 N 0 0 0
0:00:00.00 504180 N 0 0 0
0:00:00.00 504479 N 0 0 0
0:00:00.00 504803 N 0 0 0
0:00:00.00 505125 N 0 0 0
0:00:00.00 505469 N 0 0 0
0:00:00.00 505541 N 0 0 0
0:00:00.00 505838 N 0 0 0
0:00:00.00 506176 N 0 0 0
0:00:00.00 506524 N 0 0 0
0:00:00.00 506853 N 0 0 0
0:00:00.00 506925 N 0 0 0
0:00:00.00 507190 N 0 0 0
0:00:00.00 507550 N 0 0 0
0:00:00.00 507924 N 0 0 0
0:00:00.00 508270 N 0 0 0
0:00:00.00 508615 N 0 0 0
0:00:00.00 508941 N 0 0 0
0:00:00.00 509013 N 0 0 0
0:00:00.00 509296 N 0 0 0
0:00:00.00 509621 N 0 0 0
0:00:00.00 509791 N 0 0 0
0:00:00.00 510298 N 0 0 0
0:00:00.00 510370 N 0 0 0
0:00:00.00 510683 N 0 0 0
0:00:00.00 510995 N 0 0 0
0:00:00.00 511328 N 0 0 0
0:00:00.00 511654 N 0 0 0
0:00:00.00 511992 N 0 0 0
0:00:00.00 512330 N 0 0 0
0:00:00.00 512402 N 0 0 0
0:00:00.00 512716 N 0 0 0
0:00:00.00 513047 N 0 0 0
0:00:00.00 513378 N 0 0 0
0:00:00.00 513718 N 0 0 0
0:00:00.00 514073 N 0 0 0
0:00:00.00 514145 N 0 0 0
0:00:00.00 514467 N 0 0 0
0:00:00.00 514800 N 0 0 0
0:00:00.00 514872 N 0 0 0
0:00:00.00 515189 N 0 0 0
0:00:00.00 515513 N 0 0 0
0:00:00.00 515585 N 0 0 0
0:00:00.00 515876 N 0 0 0
0:00:00.00 516208 N 0 0 0
0:00:00.00 516580 N 0 0 0
0:00:00.00 516652 N 0 0 0
0:00:00.00 516964 N 0 0 0
0:00:00.00 517313 N 0 0 0
0:00:00.00 517639 N 0 0 0
0:00:00.00 517711 N 0 0 0
0:00:00.00 518027 N 0 0 0
0:00:00.00 518357 N 0 0 0
0:00:00.00 518724 N 0 0 0
0:00:00.00 518796 N 0 0 0
0:00:00.00 519088 N 0 0 0
0:00:00.00 519430 N 0 0 0
0:00:00.00 519766 N 0 0 0
0:00:00.00 520114 N 0 0 0
0:00:00.00 520447 N 0 0 0
0:00:00.00 520789 N 0 0 0
0:00:00.00 521161 N 0 0 0
0:00:00.00 521233 N 0 0 0
0:00:00.00 521519 N 0 0 0
0:00:00.00 521860 N 0 0 0
0:00:00.00 521932 N 0 0 0
0:00:00.00 522236 N 0 0 0
0:00:00.00 522567 N 0 0 0
0:00:00.00 522970 N 0 0 0
0:00:00.00 523334 N 0 0 0
0:00:00.00 523406 N 0 0 0
0:00:00.00 523719 N 0 0 0
0:00:00.00 524086 N 0 0 0
0:00:00.00 524158 N 0 0 0
0:00:00.00 524464 N 0 0 0
0:00:00.00 524794 N 0 0 0
0:00:00.00 524866 N 0 0 0
0:00:00.00 525173 N 0 0 0
0:00:00.00 525499 N 0 0 0
0:00:00.00 525571 N 0 0 0
0:00:00.00 525902 N 0 0 0
0:00:00.00 526234 N 0 0 0
0:00:00.00 526419 N 0 0 0
0:00:00.00 526943 N 0 0 0
0:00:00.00 527303 N 0 0 0
0:00:00.00 527375 N 0 0 0
0:00:00.00 527656 N 0 0 0
0:00:00.00 528030 N 0 0 0
0:00:00.00 528250 N 0 0 0
0:00:00.00 528739 N 0 0 0
0:00:00.00 528962 N 0 0 0
0:00:00.00 529380 N 0 0 0
0:00:00.00 529742 N 0 0 0
0:00:00.00 529814 N 0 0 0
0:00:00.00 530104 N 0 0 0
0:00:00.00 530456 N 0 0 0
0:00:00.00 530528 N 0 0 0
0:00:00.00 530827 N 0 0 0
0:00:00.00 531148 N 0 0 0
0:00:00.00 531499 N 0 0 0
0:00:00.00 531571 N 0 0 0
0:00:00.00 531900 N 0 0 0
0:00:00.00 532244 N 0 0 0
0:00:00.00 532613 N 0 0 0
0:00:00.00 532962 N 0 0 0
0:00:00.00 533315 N 0 0 0
0:00:00.00 533387 N 0 0 0
0:00:00.00 533702 N 0 0 0
0:00:00.00 534049 N 0 0 0
0:00:00.00 534121 N 0 0 0
0:00:00.00 534431 N 0 0 0
0:00:00.00 534791 N 0 0 0
0:00:00.00 534863 N 0 0 0
0:00:00.00 535169 N 0 0 0
0:00:00.00 535502 N 0 0 0
0:00:00.00 535883 N 0 0 0
0:00:00.00 536213 N 0 0 0
0:00:00.00 536285 N 0 0 0
0:00:00.00 536593 N 0 0 0
0:00:00.00 536944 N 0 0 0
0:00:00.00 537284 N 0 0 0
0:00:00.00 537638 N 0 0 0
0:00:00.00 537710 N 0 0 0
0:00:00.00 538025 N 0 0 0
0:00:00.00 538371 N 0 0 0
0:00:00.00 538756 N 0 0 0
0:00:00.00 539098 N 0 0 0
0:00:00.00 539447 N 0 0 0
0:00:00.00 539779 N 0 0 0
0:00:00.00 539851 N 0 0 0
0:00:00.00 540137 N 0 0 0
0:00:00.00 540482 N 0 0 0
0:00:00.00 540554 N 0 0 0
0:00:00.00 540880 N 0 0 0
0:00:00.00 541226 N 0 0 0
0:00:00.00 541562 N 0 0 0
0:00:00.00 541904 N 0 0 0
0:00:00.00 541976 N 0 0 0
0:00:00.00 542281 N 0 0 0
0:00:00.00 542630 N 0 0 0
0:00:00.00 542977 N 0 0 0
0:00:00.00 543049 N 0 0 0
0:00:00.00 543370 N 0 0 0
0:00:00.00 543701 N 0 0 0
0:00:00.00 544072 N 0 0 0
0:00:00.00 544144 N 0 0 0
0:00:00.00 544457 N 0 0 0
0:00:00.00 544813 N 0 0 0
0:00:00.00 544885 N 0 0 0
0:00:00.00 545216 N 0 0 0
0:00:00.00 545555 N 0 0 0
0:00:00.00 545904 N 0 0 0
0:00:00.00 545976 N 0 0 0
0:00:00.00 546269 N 0 0 0
0:00:00.00 546649 N 0 0 0
0:00:00.00 546721 N 0 0 0
0:00:00.00 547020 N 0 0 0
0:00:00.00 547387 N 0 0 0
0:00:00.00 547459 N 0 0 0
0:00:00.00 547753 N 0 0 0
0:00:00.00 548098 N 0 0 0
0:00:00.00 548170 N 0 0 0
0:00:00.00 548453 N 0 0 0
0:00:00.00 548851 N 0 0 0
0:00:00.00 548923 N 0 0 0
0:00:00.00 549254 N 0 0 0
0:00:00.00 549326 N 0 0 0
0:00:00.00 549659 N 0 0 0
0:00:00.00 550010 N 0 0 0
0:00:00.00 550082 N 0 0 0
0:00:00.00 550406 N 0 0 0
0:00:00.00 550742 N 0 0 0
0:00:00.00 551140 N 0 0 0
0:00:00.00 551212 N 0 0 0
0:00:00.00 551542 N 0 0 0
0:00:00.00 551878 N 0 0 0
0:00:00.00 551950 N 0 0 0
0:00:00.00 552296 N 0 0 0
0:00:00.00 552625 N 0 0 0
0:00:00.00 553095 N 0 0 0
0:00:00.00 553541 N 0 0 0
0:00:00.00 553613 N 0 0 0
0:00:00.00 553945 N 0 0 0
0:00:00.00 554017 N 0 0 0
0:00:00.00 554333 N 0 0 0
0:00:00.00 554681 N 0 0 0
0:00:00.00 554753 N 0 0 0
0:00:00.00 555079 N 0 0 0
0:00:00.00 555431 N 0 0 0
0:00:00.00 555503 N 0 0 0
0:00:00.00 555831 N 0 0 0
0:00:00.00 555903 N 0 0 0
0:00:00.00 556213 N 0 0 0
0:00:00.00 556551 N 0 0 0
0:00:00.00 556623 N 0 0 0
0:00:00.00 556978 N 0 0 0
0:00:00.00 557050 N 0 0 0
0:00:00.00 557437 N 0 0 0
0:00:00.00 557509 N 0 0 0
0:00:00.00 557851 N 0 0 0
0:00:00.00 557928 N 0 0 0
0:00:00.00 558270 N 0 0 0
0:00:00.00 558342 N 0 0 0
0:00:00.00 558653 N 0 0 0
0:00:00.00 558725 N 0 0 0
0:00:00.00 559055 N 0 0 0
0:00:00.00 559390 N 0 0 0
0:00:00.00 559462 N 0 0 0
0:00:00.00 559813 N 0 0 0
0:00:00.00 559885 N 0 0 0
0:00:00.00 560216 N 0 0 0
0:00:00.00 560288 N 0 0 0
0:00:00.00 560630 N 0 0 0
0:00:00.00 560965 N 0 0 0
0:00:00.00 561037 N 0 0 0
0:00:00.00 561366 N 0 0 0
0:00:00.00 561730 N 0 0 0
0:00:00.00 562145 N 0 0 0
0:00:00.00 562217 N 0 0 0
0:00:00.00 562563 N 0 0 0
0:00:00.00 562928 N 0 0 0
0:00:00.00 563000 N 0 0 0
0:00:00.00 563321 N 0 0 0
0:00:00.00 563675 N 0 0 0
0:00:00.00 563747 N 0 0 0
0:00:00.00 564077 N 0 0 0
0:00:00.00 564431 N 0 0 0
0:00:00.00 564503 N 0 0 0
0:00:00.00 564835 N 0 0 0
0:00:00.00 564907 N 0 0 0
0:00:00.00 565216 N 0 0 0
0:00:00.00 565576 N 0 0 0
0:00:00.00 565918 N 0 0 0
0:00:00.00 565990 N 0 0 0
0:00:00.00 566311 N 0 0 0
0:00:00.00 566640 N 0 0 0
0:00:00.00 566712 N 0 0 0
0:00:00.00 567027 N 0 0 0
0:00:00.00 567358 N 0 0 0
0:00:00.00 567430 N 0 0 0
0:00:00.00 567743 N 0 0 0
0:00:00.00 568075 N 0 0 0
0:00:00.00 568147 N 0 0 0
0:00:00.00 568512 N 0 0 0
0:00:00.00 568584 N 0 0 0
0:00:00.00 568944 N 0 0 0
0:00:00.00 569016 N 0 0 0
0:00:00.00 569327 N 0 0 0
0:00:00.00 569693 N 0 0 0
0:00:00.00 569765 N 0 0 0
0:00:00.00 570085 N 0 0 0
0:00:00.00 570424 N 0 0 0
0:00:00.00 570496 N 0 0 0
0:00:00.00 570825 N 0 0 0
0:00:00.00 571153 N 0 0 0
0:00:00.00 571225 N 0 0 0
0:00:00.00 571511 N 0 0 0
0:00:00.00 571889 N 0 0 0
0:00:00.00 572240 N 0 0 0
0:00:00.00 572654 N 0 0 0
0:00:00.00 573003 N 0 0 0
0:00:00.00 573075 N 0 0 0
0:00:00.00 573359 N 0 0 0
0:00:00.00 573703 N 0 0 0
0:00:00.00 573775 N 0 0 0
0:00:00.00 574058 N 0 0 0
0:00:00.00 574394 N 0 0 0
0:00:00.00 574754 N 0 0 0
0:00:00.00 574826 N 0 0 0
0:00:00.00 575156 N 0 0 0
0:00:00.00 575230 N 0 0 0
0:00:00.00 575516 N 0 0 0
0:00:00.00 575878 N 0 0 0
0:00:00.00 575950 N 0 0 0
0:00:00.00 576268 N 0 0 0
0:00:00.00 576610 N 0 0 0
0:00:00.00 577001 N 0 0 0
0:00:00.00 577073 N 0 0 0
0:00:00.00 577382 N 0 0 0
0:00:00.00 577760 N 0 0 0
0:00:00.00 577832 N 0 0 0
0:00:00.00 578108 N 0 0 0
0:00:00.00 578462 N 0 0 0
0:00:00.00 578534 N 0 0 0
0:00:00.00 578840 N 0 0 0
0:00:00.00 579184 N 0 0 0
0:00:00.00 579515 N 0 0 0
0:00:00.00 579593 N 0 0 0
0:00:00.00 579926 N 0 0 0
0:00:00.00 580261 N 0 0 0
0:00:00.00 580333 N 0 0 0
0:00:00.00 580622 N 0 0 0
0:00:00.00 580781 N 0 0 0
0:00:00.00 580982 N 0 0 0
0:00:00.00 581182 N 0 0 0
0:00:00.00 581265 N 0 0 0
0:00:00.00 581337 N 0 0 0
0:00:00.00 581648 N 0 0 0
0:00:00.00 581967 N 0 0 0
0:00:00.00 582314 N 0 0 0
0:00:00.00 582649 N 0 0 0
0:00:00.00 582986 N 0 0 0
0:00:00.00 583326 N 0 0 0
0:00:00.00 583718 N 0 0 0
0:00:00.00 584068 N 0 0 0
0:00:00.00 584399 N 0 0 0
0:00:00.00 584755 N 0 0 0
0:00:00.00 585095 N 0 0 0
0:00:00.00 585437 N 0 0 0
0:00:00.00 585774 N 0 0 0
0:00:00.00 585857 N 0 0 0
0:00:00.00 586197 N 0 0 0
0:00:00.00 586543 N 0 0 0
0:00:00.00 586903 N 0 0 0
0:00:00.00 586976 N 0 0 0
0:00:00.00 587288 N 0 0 0
0:00:00.00 587621 N 0 0 0
0:00:00.00 587984 N 0 0 0
0:00:00.00 588058 N 0 0 0
0:00:00.00 588375 N 0 0 0
0:00:00.00 588717 N 0 0 0
0:00:00.00 589050 N 0 0 0
0:00:00.00 589403 N 0 0 0
0:00:00.00 589750 N 0 0 0
0:00:00.00 590107 N 0 0 0
0:00:00.00 590179 N 0 0 0
0:00:00.00 590483 N 0 0 0
0:00:00.00 590825 N 0 0 0
0:00:00.00 591160 N 0 0 0
0:00:00.00 591496 N 0 0 0
0:00:00.00 591838 N 0 0 0
0:00:00.00 592204 N 0 0 0
0:00:00.00 592276 N 0 0 0
0:00:00.00 592565 N 0 0 0
0:00:00.00 592916 N 0 0 0
0:00:00.00 592988 N 0 0 0
0:00:00.00 593271 N 0 0 0
0:00:00.00 593606 N 0 0 0
0:00:00.00 593678 N 0 0 0
0:00:00.00 593986 N 0 0 0
0:00:00.00 594329 N 0 0 0
0:00:00.00 594691 N 0 0 0
0:00:00.00 594765 N 0 0 0
0:00:00.00 595060 N 0 0 0
0:00:00.00 595139 N 0 0 0
0:00:00.00 595413 N 0 0 0
0:00:00.00 595737 N 0 0 0
0:00:00.00 596072 N 0 0 0
0:00:00.00 596158 N 0 0 0
0:00:00.00 596232 N 0 0 0
0:00:00.00 596304 N 0 0 0
0:00:00.00 596376 N 0 0 0
0:00:00.00 596452 N 0 0 0
0:00:00.00 596731 N 0 0 0
0:00:00.00 596810 N 0 0 0
0:00:00.00 597146 N 0 0 0
0:00:00.00 597321 N 0 0 0
0:00:00.00 597395 N 0 0 0
0:00:00.00 597467 N 0 0 0
0:00:00.00 597539 N 0 0 0
0:00:00.00 597830 N 0 0 0
0:00:00.00 598010 N 0 0 0
0:00:00.00 598088 N 0 0 0
0:00:00.00 598160 N 0 0 0
0:00:00.00 598232 N 0 0 0
0:00:00.00 598527 N 0 0 0
0:00:00.00 598837 N 0 0 0
0:00:00.00 598909 N 0 0 0
0:00:00.00 598997 N 0 0 0
0:00:00.00 599072 N 0 0 0
0:00:00.00 599207 N 0 0 0
0:00:00.00 599283 N 0 0 0
0:00:00.00 599569 N 0 0 0
0:00:00.00 599648 N 0 0 0
0:00:00.00 599929 N 0 0 0
0:00:00.00 600001 N 0 0 0
0:00:00.00 600284 N 0 0 0
0:00:00.00 600363 N 0 0 0
0:00:00.00 600671 N 0 0 0
0:00:00.00 600754 N 0 0 0
0:00:00.00 600863 N 0 0 0
0:00:00.00 601033 N 0 0 0
0:00:00.00 601123 N 0 0 0
0:00:00.00 601403 N 0 0 0
0:00:00.00 601477 N 0 0 0
0:00:00.00 601758 N 0 0 0
0:00:00.00 601832 N 0 0 0
0:00:00.00 602104 N 0 0 0
0:00:00.00 602177 N 0 0 0
0:00:00.00 602455 N 0 0 0
0:00:00.00 602534 N 0 0 0
0:00:00.00 602834 N 0 0 0
0:00:00.00 602906 N 0 0 0
0:00:00.00 602982 N 0 0 0
0:00:00.00 603202 N 0 0 0
0:00:00.00 603277 N 0 0 0
0:00:00.00 603553 N 0 0 0
0:00:00.00 603635 N 0 0 0
0:00:00.00 603904 N 0 0 0
0:00:00.00 603985 N 0 0 0
0:00:00.00 604139 N 0 0 0
0:00:00.00 604215 N 0 0 0
0:00:00.00 604287 N 0 0 0
0:00:00.00 604579 N 0 0 0
0:00:00.00 604656 N 0 0 0
0:00:00.00 604735 N 0 0 0
0:00:00.00 605025 N 0 0 0
0:00:00.00 605313 N 0 0 0
0:00:00.00 605389 N 0 0 0
0:00:00.00 605561 N 0 0 0
0:00:00.00 605671 N 0 0 0
0:00:00.00 605761 N 0 0 0
0:00:00.00 606006 N 0 0 0
0:00:00.00 606082 N 0 0 0
0:00:00.00 606350 N 0 0 0
0:00:00.00 606422 N 0 0 0
0:00:00.00 606674 N 0 0 0
0:00:00.00 606755 N 0 0 0
0:00:00.00 607021 N 0 0 0
0:00:00.00 607093 N 0 0 0
0:00:00.00 607376 N 0 0 0
0:00:00.00 607455 N 0 0 0
0:00:00.00 607725 N 0 0 0
0:00:00.00 607799 N 0 0 0
0:00:00.00 608051 N 0 0 0
0:00:00.00 608130 N 0 0 0
0:00:00.00 608366 N 0 0 0
0:00:00.00 608449 N 0 0 0
0:00:00.00 608684 N 0 0 0
0:00:00.00 608764 N 0 0 0
0:00:00.00 608935 N 0 0 0
0:00:00.00 609010 N 0 0 0
0:00:00.00 609082 N 0 0 0
0:00:00.00 609394 N 0 0 0
0:00:00.00 609656 N 0 0 0
0:00:00.00 609728 N 0 0 0
0:00:00.00 609989 N 0 0 0
0:00:00.00 610074 N 0 0 0
0:00:00.00 610369 N 0 0 0
0:00:00.00 610610 N 0 0 0
0:00:00.00 610684 N 0 0 0
0:00:00.00 610929 N 0 0 0
0:00:00.00 611019 N 0 0 0
0:00:00.00 611240 N 0 0 0
0:00:00.00 611312 N 0 0 0
0:00:00.00 611572 N 0 0 0
0:00:00.00 611656 N 0 0 0
0:00:00.00 611896 N 0 0 0
0:00:00.00 611969 N 0 0 0
0:00:00.00 612041 N 0 0 0
0:00:00.00 612211 N 0 0 0
0:00:00.00 612290 N 0 0 0
0:00:00.00 612520 N 0 0 0
0:00:00.00 612601 N 0 0 0
0:00:00.00 612819 N 0 0 0
0:00:00.00 612896 N 0 0 0
0:00:00.00 613177 N 0 0 0
0:00:00.00 613429 N 0 0 0
0:00:00.00 613505 N 0 0 0
0:00:00.00 613816 N 0 0 0
0:00:00.00 614124 N 0 0 0
0:00:00.00 614349 N 0 0 0
0:00:00.00 614423 N 0 0 0
0:00:00.00 614650 N 0 0 0
0:00:00.00 614723 N 0 0 0
0:00:00.00 614878 N 0 0 0
0:00:00.00 614952 N 0 0 0
0:00:00.00 615029 N 0 0 0
0:00:00.00 615251 N 0 0 0
0:00:00.00 615326 N 0 0 0
0:00:00.00 615555 N 0 0 0
0:00:00.00 615641 N 0 0 0
0:00:00.00 615883 N 0 0 0
0:00:00.00 615965 N 0 0 0
0:00:00.00 616203 N 0 0 0
0:00:00.00 616275 N 0 0 0
0:00:00.00 616397 N 0 0 0
0:00:00.00 616469 N 0 0 0
0:00:00.00 616541 N 0 0 0
0:00:00.00 616613 N 0 0 0
0:00:00.00 616833 N 0 0 0
0:00:00.00 616918 N 0 0 0
0:00:00.00 617150 N 0 0 0
0:00:00.00 617234 N 0 0 0
0:00:00.00 617459 N 0 0 0
0:00:00.00 617540 N 0 0 0
0:00:00.00 617767 N 0 0 0
0:00:00.00 617848 N 0 0 0
0:00:00.00 618089 N 0 0 0
0:00:00.00 618161 N 0 0 0
0:00:00.00 618383 N 0 0 0
0:00:00.00 618455 N 0 0 0
0:00:00.00 618527 N 0 0 0
0:00:00.00 618779 N 0 0 0
0:00:00.00 618878 N 0 0 0
0:00:00.00 618993 N 0 0 0
0:00:00.00 619074 N 0 0 0
0:00:00.00 619211 N 0 0 0
0:00:00.00 619283 N 0 0 0
0:00:00.00 619587 N 0 0 0
0:00:00.00 619938 N 0 0 0
0:00:00.00 620228 N 0 0 0
0:00:00.00 620458 N 0 0 0
0:00:00.00 620545 N 0 0 0
0:00:00.00 620755 N 0 0 0
0:00:00.00 620831 N 0 0 0
0:00:00.00 621040 N 0 0 0
0:00:00.00 621122 N 0 0 0
0:00:00.00 621313 N 0 0 0
0:00:00.00 621400 N 0 0 0
0:00:00.00 621497 N 0 0 0
0:00:00.00 621598 N 0 0 0
0:00:00.00 621670 N 0 0 0
0:00:00.00 621970 N 0 0 0
0:00:00.00 622183 N 0 0 0
0:00:00.00 622265 N 0 0 0
0:00:00.00 622379 N 0 0 0
0:00:00.00 622453 N 0 0 0
0:00:00.00 622537 N 0 0 0
0:00:00.00 622683 N 0 0 0
0:00:00.00 622755 N 0 0 0
0:00:00.00 622840 N 0 0 0
0:00:00.00 622913 N 0 0 0
0:00:00.00 623086 N 0 0 0
0:00:00.00 623165 N 0 0 0
0:00:00.00 623363 N 0 0 0
0:00:00.00 623450 N 0 0 0
0:00:00.00 623525 N 0 0 0
0:00:00.00 623635 N 0 0 0
0:00:00.00 623707 N 0 0 0
0:00:00.00 623779 N 0 0 0
0:00:00.00 623905 N 0 0 0
0:00:00.00 623981 N 0 0 0
0:00:00.00 624053 N 0 0 0
0:00:00.00 624245 N 0 0 0
0:00:00.00 624332 N 0 0 0
0:00:00.00 624568 N 0 0 0
0:00:00.00 624641 N 0 0 0
0:00:00.00 624863 N 0 0 0
0:00:00.00 624940 N 0 0 0
0:00:00.00 625165 N 0 0 0
0:00:00.00 625237 N 0 0 0
0:00:00.00 625464 N 0 0 0
0:00:00.00 625543 N 0 0 0
0:00:00.00 625739 N 0 0 0
0:00:00.00 625828 N 0 0 0
0:00:00.00 626031 N 0 0 0
0:00:00.00 626110 N 0 0 0
0:00:00.00 626321 N 0 0 0
0:00:00.00 626393 N 0 0 0
0:00:00.00 626519 N 0 0 0
0:00:00.00 626593 N 0 0 0
0:00:00.00 626701 N 0 0 0
0:00:00.00 626803 N 0 0 0
0:00:00.00 626909 N 0 0 0
0:00:00.00 626983 N 0 0 0
0:00:00.00 627066 N 0 0 0
0:00:00.00 627251 N 0 0 0
0:00:00.00 627635 N 0 0 0
0:00:00.00 627844 N 0 0 0
0:00:00.00 627923 N 0 0 0
0:00:00.00 628214 N 0 0 0
0:00:00.00 628501 N 0 0 0
0:00:00.00 628763 N 0 0 0
0:00:00.00 628839 N 0 0 0
0:00:00.00 629032 N 0 0 0
0:00:00.00 629120 N 0 0 0
0:00:00.00 629334 N 0 0 0
0:00:00.00 629406 N 0 0 0
0:00:00.00 629640 N 0 0 0
0:00:00.00 629719 N 0 0 0
0:00:00.00 629939 N 0 0 0
0:00:00.00 630020 N 0 0 0
0:00:00.00 630227 N 0 0 0
0:00:00.00 630310 N 0 0 0
0:00:00.00 630612 N 0 0 0
0:00:00.00 630844 N 0 0 0
0:00:00.00 630918 N 0 0 0
0:00:00.00 631138 N 0 0 0
0:00:00.00 631210 N 0 0 0
0:00:00.00 631285 N 0 0 0
0:00:00.00 631359 N 0 0 0
0:00:00.00 631438 N 0 0 0
0:00:00.00 631832 N 0 0 0
0:00:00.00 632054 N 0 0 0
0:00:00.00 632129 N 0 0 0
0:00:00.00 632356 N 0 0 0
0:00:00.00 632437 N 0 0 0
0:00:00.00 632655 N 0 0 0
0:00:00.00 632736 N 0 0 0
0:00:00.00 632961 N 0 0 0
0:00:00.00 633040 N 0 0 0
0:00:00.00 633269 N 0 0 0
0:00:00.00 633350 N 0 0 0
0:00:00.00 633578 N 0 0 0
0:00:00.00 633654 N 0 0 0
0:00:00.00 633892 N 0 0 0
0:00:00.00 633974 N 0 0 0
0:00:00.00 634189 N 0 0 0
0:00:00.00 634268 N 0 0 0
0:00:00.00 634478 N 0 0 0
0:00:00.00 634554 N 0 0 0
0:00:00.00 634775 N 0 0 0
0:00:00.00 634858 N 0 0 0
0:00:00.00 635083 N 0 0 0
0:00:00.00 635168 N 0 0 0
0:00:00.00 635377 N 0 0 0
0:00:00.00 635463 N 0 0 0
0:00:00.00 635711 N 0 0 0
0:00:00.00 635789 N 0 0 0
0:00:00.00 636017 N 0 0 0
0:00:00.00 636100 N 0 0 0
0:00:00.00 636325 N 0 0 0
0:00:00.00 636404 N 0 0 0
0:00:00.00 636683 N 0 0 0
0:00:00.00 636977 N 0 0 0
0:00:00.00 637240 N 0 0 0
0:00:00.00 637324 N 0 0 0
0:00:00.00 637564 N 0 0 0
0:00:00.00 637645 N 0 0 0
0:00:00.00 637879 N 0 0 0
0:00:00.00 637963 N 0 0 0
0:00:00.00 638201 N 0 0 0
0:00:00.00 638280 N 0 0 0
0:00:00.00 638501 N 0 0 0
0:00:00.00 638582 N 0 0 0
0:00:00.00 638813 N 0 0 0
0:00:00.00 638892 N 0 0 0
0:00:00.00 639117 N 0 0 0
0:00:00.00 639194 N 0 0 0
0:00:00.00 639427 N 0 0 0
0:00:00.00 639513 N 0 0 0
0:00:00.00 639763 N 0 0 0
0:00:00.00 639844 N 0 0 0
0:00:00.00 640109 N 0 0 0
0:00:00.00 640183 N 0 0 0
0:00:00.00 640399 N 0 0 0
0:00:00.00 640478 N 0 0 0
0:00:00.00 640705 N 0 0 0
0:00:00.00 640778 N 0 0 0
0:00:00.00 641012 N 0 0 0
0:00:00.00 641088 N 0 0 0
0:00:00.00 641333 N 0 0 0
0:00:00.00 641414 N 0 0 0
0:00:00.00 641669 N 0 0 0
0:00:00.00 641750 N 0 0 0
0:00:00.00 642017 N 0 0 0
0:00:00.00 642101 N 0 0 0
0:00:00.00 642371 N 0 0 0
0:00:00.00 642454 N 0 0 0
0:00:00.00 642758 N 0 0 0
0:00:00.00 643019 N 0 0 0
0:00:00.00 643095 N 0 0 0
0:00:00.00 643406 N 0 0 0
0:00:00.00 643732 N 0 0 0
0:00:00.00 643999 N 0 0 0
0:00:00.00 644080 N 0 0 0
0:00:00.00 644351 N 0 0 0
0:00:00.00 644423 N 0 0 0
0:00:00.00 644677 N 0 0 0
0:00:00.00 644749 N 0 0 0
0:00:00.00 644967 N 0 0 0
0:00:00.00 645043 N 0 0 0
0:00:00.00 645120 N 0 0 0
0:00:00.00 645194 N 0 0 0
0:00:00.00 645268 N 0 0 0
0:00:00.00 645341 N 0 0 0
0:00:00.00 645415 N 0 0 0
0:00:00.00 645487 N 0 0 0
0:00:00.00 645559 N 0 0 0
0:00:00.00 645637 N 0 0 0
0:00:00.00 645709 N 0 0 0
0:00:00.00 645865 N 0 0 0
0:00:00.00 645937 N 0 0 0
0:00:00.00 646009 N 0 0 0
0:00:00.00 646090 N 0 0 0
0:00:00.00 646195 N 0 0 0
0:00:00.00 646283 N 0 0 0
0:00:00.00 646517 N 0 0 0
0:00:00.00 646601 N 0 0 0
0:00:00.00 646861 N 0 0 0
0:00:00.00 646933 N 0 0 0
0:00:00.00 647212 N 0 0 0
0:00:00.00 647480 N 0 0 0
0:00:00.00 647555 N 0 0 0
0:00:00.00 647795 N 0 0 0
0:00:00.00 647878 N 0 0 0
0:00:00.00 648124 N 0 0 0
0:00:00.00 648207 N 0 0 0
0:00:00.00 648459 N 0 0 0
0:00:00.00 648536 N 0 0 0
0:00:00.00 648781 N 0 0 0
0:00:00.00 648866 N 0 0 0
0:00:00.00 649096 N 0 0 0
0:00:00.00 649179 N 0 0 0
0:00:00.00 649402 N 0 0 0
0:00:00.00 649480 N 0 0 0
0:00:00.00 649737 N 0 0 0
0:00:00.00 649811 N 0 0 0
