0:00:00.00 352 N 0 0 0
0:00:00.00 563 N 0 0 0
0:00:00.00 581 N 0 0 0
0:00:00.00 818 N 0 0 0
0:00:00.00 1057 N 0 0 0
0:00:00.00 1297 N 0 0 0
0:00:00.00 1532 N 0 0 0
0:00:00.00 1776 N 0 0 0
0:00:00.00 2005 N 0 0 0
0:00:00.00 2228 N 0 0 0
0:00:00.00 2440 N 0 0 0
0:00:00.00 2670 N 0 0 0
0:00:00.00 2893 N 0 0 0
0:00:00.00 3126 N 0 0 0
0:00:00.00 3361 N 0 0 0
0:00:00.00 3596 N 0 0 0
0:00:00.00 3822 N 0 0 0
0:00:00.00 4051 N 0 0 0
0:00:00.00 4270 N 0 0 0
0:00:00.00 4490 N 0 0 0
0:00:00.00 4700 N 0 0 0
0:00:00.00 4918 N 0 0 0
0:00:00.00 5133 N 0 0 0
0:00:00.00 5369 N 0 0 0
0:00:00.00 5603 N 0 0 0
0:00:00.00 5830 N 0 0 0
0:00:00.00 6057 N 0 0 0
0:00:00.00 6259 N 0 0 0
0:00:00.00 6492 N 0 0 0
0:00:00.00 6706 N 0 0 0
0:00:00.00 6928 N 0 0 0
0:00:00.00 7144 N 0 0 0
0:00:00.00 7368 N 0 0 0
0:00:00.00 7594 N 0 0 0
0:00:00.00 7834 N 0 0 0
0:00:00.00 8077 N 0 0 0
0:00:00.00 8302 N 0 0 0
0:00:00.00 8516 N 0 0 0
0:00:00.00 8748 N 0 0 0
0:00:00.00 8981 N 0 0 0
0:00:00.00 9207 N 0 0 0
0:00:00.00 9434 N 0 0 0
0:00:00.00 9671 N 0 0 0
0:00:00.00 9913 N 0 0 0
0:00:00.00 10158 N 0 0 0
0:00:00.00 10401 N 0 0 0
0:00:00.00 10630 N 0 0 0
0:00:00.00 10850 N 0 0 0
0:00:00.00 11085 N 0 0 0
0:00:00.00 11310 N 0 0 0
0:00:00.00 11559 N 0 0 0
0:00:00.00 11789 N 0 0 0
0:00:00.00 12041 N 0 0 0
0:00:00.00 12281 N 0 0 0
0:00:00.00 12533 N 0 0 0
0:00:00.00 12776 N 0 0 0
0:00:00.00 13002 N 0 0 0
0:00:00.00 13232 N 0 0 0
0:00:00.00 13469 N 0 0 0
0:00:00.00 13726 N 0 0 0
0:00:00.00 13926 N 0 0 0
0:00:00.00 14222 N 0 0 0
0:00:00.00 14473 N 0 0 0
0:00:00.00 14724 N 0 0 0
0:00:00.00 14963 N 0 0 0
0:00:00.00 15205 N 0 0 0
0:00:00.00 15441 N 0 0 0
0:00:00.00 15674 N 0 0 0
0:00:00.00 15929 N 0 0 0
0:00:00.00 16187 N 0 0 0
0:00:00.00 16448 N 0 0 0
0:00:00.00 16691 N 0 0 0
0:00:00.00 16946 N 0 0 0
0:00:00.00 17188 N 0 0 0
0:00:00.00 17434 N 0 0 0
0:00:00.00 17668 N 0 0 0
0:00:00.00 17907 N 0 0 0
0:00:00.00 18165 N 0 0 0
0:00:00.00 18433 N 0 0 0
0:00:00.00 18690 N 0 0 0
0:00:00.00 18940 N 0 0 0
0:00:00.00 19180 N 0 0 0
0:00:00.00 19419 N 0 0 0
0:00:00.00 19664 N 0 0 0
0:00:00.00 19911 N 0 0 0
0:00:00.00 20162 N 0 0 0
0:00:00.00 20411 N 0 0 0
0:00:00.00 20679 N 0 0 0
0:00:00.00 20934 N 0 0 0
0:00:00.00 21185 N 0 0 0
0:00:00.00 21431 N 0 0 0
0:00:00.00 21671 N 0 0 0
0:00:00.00 21915 N 0 0 0
0:00:00.00 22170 N 0 0 0
0:00:00.00 22418 N 0 0 0
0:00:00.00 22671 N 0 0 0
0:00:00.00 22933 N 0 0 0
0:00:00.00 23194 N 0 0 0
0:00:00.00 23444 N 0 0 0
0:00:00.00 23682 N 0 0 0
0:00:00.00 23929 N 0 0 0
0:00:00.00 24168 N 0 0 0
0:00:00.00 24418 N 0 0 0
0:00:00.00 24669 N 0 0 0
0:00:00.00 24933 N 0 0 0
0:00:00.00 25190 N 0 0 0
0:00:00.00 25459 N 0 0 0
0:00:00.00 25710 N 0 0 0
0:00:00.00 25948 N 0 0 0
0:00:00.00 26183 N 0 0 0
0:00:00.00 26433 N 0 0 0
0:00:00.00 26689 N 0 0 0
0:00:00.00 26944 N 0 0 0
0:00:00.00 27204 N 0 0 0
0:00:00.00 27460 N 0 0 0
0:00:00.00 27658 N 0 0 0
0:00:00.00 27975 N 0 0 0
0:00:00.00 28208 N 0 0 0
0:00:00.00 28462 N 0 0 0
0:00:00.00 28703 N 0 0 0
0:00:00.00 28965 N 0 0 0
0:00:00.00 29240 N 0 0 0
0:00:00.00 29500 N 0 0 0
0:00:00.00 29753 N 0 0 0
0:00:00.00 30015 N 0 0 0
0:00:00.00 30259 N 0 0 0
0:00:00.00 30503 N 0 0 0
0:00:00.00 30747 N 0 0 0
0:00:00.00 31001 N 0 0 0
0:00:00.00 31270 N 0 0 0
0:00:00.00 31542 N 0 0 0
0:00:00.00 31802 N 0 0 0
0:00:00.00 32046 N 0 0 0
0:00:00.00 32306 N 0 0 0
0:00:00.00 32555 N 0 0 0
0:00:00.00 32804 N 0 0 0
0:00:00.00 33047 N 0 0 0
0:00:00.00 33245 N 0 0 0
0:00:00.00 33572 N 0 0 0
0:00:00.00 33836 N 0 0 0
0:00:00.00 34098 N 0 0 0
0:00:00.00 34340 N 0 0 0
0:00:00.00 34590 N 0 0 0
0:00:00.00 34841 N 0 0 0
0:00:00.00 35091 N 0 0 0
0:00:00.00 35342 N 0 0 0
0:00:00.00 35602 N 0 0 0
0:00:00.00 35863 N 0 0 0
0:00:00.00 36130 N 0 0 0
0:00:00.00 36382 N 0 0 0
0:00:00.00 36632 N 0 0 0
0:00:00.00 36880 N 0 0 0
0:00:00.00 37141 N 0 0 0
0:00:00.00 37394 N 0 0 0
0:00:00.00 37649 N 0 0 0
0:00:00.00 37913 N 0 0 0
0:00:00.00 38175 N 0 0 0
0:00:00.00 38441 N 0 0 0
0:00:00.00 38695 N 0 0 0
0:00:00.00 38941 N 0 0 0
0:00:00.00 39182 N 0 0 0
0:00:00.00 39444 N 0 0 0
0:00:00.00 39701 N 0 0 0
0:00:00.00 39955 N 0 0 0
0:00:00.00 40217 N 0 0 0
0:00:00.00 40477 N 0 0 0
0:00:00.00 40734 N 0 0 0
0:00:00.00 40994 N 0 0 0
0:00:00.00 41238 N 0 0 0
0:00:00.00 41474 N 0 0 0
0:00:00.00 41731 N 0 0 0
0:00:00.00 41999 N 0 0 0
0:00:00.00 42261 N 0 0 0
0:00:00.00 42514 N 0 0 0
0:00:00.00 42774 N 0 0 0
0:00:00.00 43023 N 0 0 0
0:00:00.00 43274 N 0 0 0
0:00:00.00 43516 N 0 0 0
0:00:00.00 43764 N 0 0 0
0:00:00.00 44016 N 0 0 0
0:00:00.00 44294 N 0 0 0
0:00:00.00 44557 N 0 0 0
0:00:00.00 44804 N 0 0 0
0:00:00.00 45059 N 0 0 0
0:00:00.00 45306 N 0 0 0
0:00:00.00 45553 N 0 0 0
0:00:00.00 45777 N 0 0 0
0:00:00.00 46056 N 0 0 0
0:00:00.00 46302 N 0 0 0
0:00:00.00 46567 N 0 0 0
0:00:00.00 46830 N 0 0 0
0:00:00.00 47087 N 0 0 0
0:00:00.00 47320 N 0 0 0
0:00:00.00 47562 N 0 0 0
0:00:00.00 47807 N 0 0 0
0:00:00.00 48049 N 0 0 0
0:00:00.00 48296 N 0 0 0
0:00:00.00 48557 N 0 0 0
0:00:00.00 48815 N 0 0 0
0:00:00.00 49084 N 0 0 0
0:00:00.00 49339 N 0 0 0
0:00:00.00 49572 N 0 0 0
0:00:00.00 49819 N 0 0 0
0:00:00.00 50059 N 0 0 0
0:00:00.00 50310 N 0 0 0
0:00:00.00 50561 N 0 0 0
0:00:00.00 50821 N 0 0 0
0:00:00.00 51073 N 0 0 0
0:00:00.00 51340 N 0 0 0
0:00:00.00 51586 N 0 0 0
0:00:00.00 51824 N 0 0 0
0:00:00.00 52062 N 0 0 0
0:00:00.00 52305 N 0 0 0
0:00:00.00 52556 N 0 0 0
0:00:00.00 52822 N 0 0 0
0:00:00.00 53079 N 0 0 0
0:00:00.00 53324 N 0 0 0
0:00:00.00 53589 N 0 0 0
0:00:00.00 53837 N 0 0 0
0:00:00.00 54078 N 0 0 0
0:00:00.00 54312 N 0 0 0
0:00:00.00 54560 N 0 0 0
0:00:00.00 54804 N 0 0 0
0:00:00.00 55060 N 0 0 0
0:00:00.00 55317 N 0 0 0
0:00:00.00 55571 N 0 0 0
0:00:00.00 55815 N 0 0 0
0:00:00.00 56067 N 0 0 0
0:00:00.00 56307 N 0 0 0
0:00:00.00 56542 N 0 0 0
0:00:00.00 56783 N 0 0 0
0:00:00.00 57032 N 0 0 0
0:00:00.00 57289 N 0 0 0
0:00:00.00 57555 N 0 0 0
0:00:00.00 57813 N 0 0 0
0:00:00.00 58059 N 0 0 0
0:00:00.00 58304 N 0 0 0
0:00:00.00 58550 N 0 0 0
0:00:00.00 58797 N 0 0 0
0:00:00.00 59041 N 0 0 0
0:00:00.00 59300 N 0 0 0
0:00:00.00 59571 N 0 0 0
0:00:00.00 59840 N 0 0 0
0:00:00.00 60088 N 0 0 0
0:00:00.00 60333 N 0 0 0
0:00:00.00 60585 N 0 0 0
0:00:00.00 60837 N 0 0 0
0:00:00.00 61085 N 0 0 0
0:00:00.00 61338 N 0 0 0
0:00:00.00 61602 N 0 0 0
0:00:00.00 61870 N 0 0 0
0:00:00.00 62136 N 0 0 0
0:00:00.00 62382 N 0 0 0
0:00:00.00 62623 N 0 0 0
0:00:00.00 62869 N 0 0 0
0:00:00.00 63125 N 0 0 0
0:00:00.00 63375 N 0 0 0
0:00:00.00 63630 N 0 0 0
0:00:00.00 63889 N 0 0 0
0:00:00.00 64142 N 0 0 0
0:00:00.00 64399 N 0 0 0
0:00:00.00 64641 N 0 0 0
0:00:00.00 64879 N 0 0 0
0:00:00.00 65113 N 0 0 0
0:00:00.00 65368 N 0 0 0
0:00:00.00 65620 N 0 0 0
0:00:00.00 65866 N 0 0 0
0:00:00.00 66123 N 0 0 0
0:00:00.00 66374 N 0 0 0
0:00:00.00 66630 N 0 0 0
0:00:00.00 66882 N 0 0 0
0:00:00.00 67128 N 0 0 0
0:00:00.00 67360 N 0 0 0
0:00:00.00 67613 N 0 0 0
0:00:00.00 67876 N 0 0 0
0:00:00.00 68143 N 0 0 0
0:00:00.00 68398 N 0 0 0
0:00:00.00 68656 N 0 0 0
0:00:00.00 68906 N 0 0 0
0:00:00.00 69150 N 0 0 0
0:00:00.00 69391 N 0 0 0
0:00:00.00 69634 N 0 0 0
0:00:00.00 69891 N 0 0 0
0:00:00.00 70159 N 0 0 0
0:00:00.00 70419 N 0 0 0
0:00:00.00 70673 N 0 0 0
0:00:00.00 70927 N 0 0 0
0:00:00.00 71164 N 0 0 0
0:00:00.00 71411 N 0 0 0
0:00:00.00 71660 N 0 0 0
0:00:00.00 71907 N 0 0 0
0:00:00.00 72160 N 0 0 0
0:00:00.00 72428 N 0 0 0
0:00:00.00 72691 N 0 0 0
0:00:00.00 72942 N 0 0 0
0:00:00.00 73189 N 0 0 0
0:00:00.00 73435 N 0 0 0
0:00:00.00 73681 N 0 0 0
0:00:00.00 73940 N 0 0 0
0:00:00.00 74190 N 0 0 0
0:00:00.00 74442 N 0 0 0
0:00:00.00 74708 N 0 0 0
0:00:00.00 74980 N 0 0 0
0:00:00.00 75230 N 0 0 0
0:00:00.00 75472 N 0 0 0
0:00:00.00 75722 N 0 0 0
0:00:00.00 75958 N 0 0 0
0:00:00.00 76210 N 0 0 0
0:00:00.00 76468 N 0 0 0
0:00:00.00 76730 N 0 0 0
0:00:00.00 76995 N 0 0 0
0:00:00.00 77267 N 0 0 0
0:00:00.00 77522 N 0 0 0
0:00:00.00 77758 N 0 0 0
0:00:00.00 78004 N 0 0 0
0:00:00.00 78258 N 0 0 0
0:00:00.00 78516 N 0 0 0
0:00:00.00 78775 N 0 0 0
0:00:00.00 79042 N 0 0 0
0:00:00.00 79298 N 0 0 0
0:00:00.00 79561 N 0 0 0
0:00:00.00 79808 N 0 0 0
0:00:00.00 80053 N 0 0 0
0:00:00.00 80294 N 0 0 0
0:00:00.00 80543 N 0 0 0
0:00:00.00 80807 N 0 0 0
0:00:00.00 81076 N 0 0 0
0:00:00.00 81334 N 0 0 0
0:00:00.00 81588 N 0 0 0
0:00:00.00 81845 N 0 0 0
0:00:00.00 82092 N 0 0 0
0:00:00.00 82340 N 0 0 0
0:00:00.00 82581 N 0 0 0
0:00:00.00 82839 N 0 0 0
0:00:00.00 83096 N 0 0 0
0:00:00.00 83365 N 0 0 0
0:00:00.00 83626 N 0 0 0
0:00:00.00 83872 N 0 0 0
0:00:00.00 84129 N 0 0 0
0:00:00.00 84384 N 0 0 0
0:00:00.00 84632 N 0 0 0
0:00:00.00 85125 N 0 0 0
0:00:00.00 85373 N 0 0 0
0:00:00.00 85647 N 0 0 0
0:00:00.00 85906 N 0 0 0
0:00:00.00 86147 N 0 0 0
0:00:00.00 86385 N 0 0 0
0:00:00.00 86639 N 0 0 0
0:00:00.00 87602 N 0 0 0
0:00:00.00 87851 N 0 0 0
0:00:00.00 88096 N 0 0 0
0:00:00.00 88331 N 0 0 0
0:00:00.00 88560 N 0 0 0
0:00:00.00 88786 N 0 0 0
0:00:00.00 89030 N 0 0 0
0:00:00.00 89265 N 0 0 0
0:00:00.00 89501 N 0 0 0
0:00:00.00 89743 N 0 0 0
0:00:00.00 89990 N 0 0 0
0:00:00.00 90240 N 0 0 0
0:00:00.00 90483 N 0 0 0
0:00:00.00 90713 N 0 0 0
0:00:00.00 90941 N 0 0 0
0:00:00.00 91185 N 0 0 0
0:00:00.00 91428 N 0 0 0
0:00:00.00 91678 N 0 0 0
0:00:00.00 91930 N 0 0 0
0:00:00.00 92183 N 0 0 0
0:00:00.00 92435 N 0 0 0
0:00:00.00 92687 N 0 0 0
0:00:00.00 92924 N 0 0 0
0:00:00.00 93164 N 0 0 0
0:00:00.00 93415 N 0 0 0
0:00:00.00 93681 N 0 0 0
0:00:00.00 93943 N 0 0 0
0:00:00.00 94200 N 0 0 0
0:00:00.00 94465 N 0 0 0
0:00:00.00 94723 N 0 0 0
0:00:00.00 94974 N 0 0 0
0:00:00.00 95226 N 0 0 0
0:00:00.00 95478 N 0 0 0
0:00:00.00 95736 N 0 0 0
0:00:00.00 96014 N 0 0 0
0:00:00.00 96286 N 0 0 0
0:00:00.00 96550 N 0 0 0
0:00:00.00 96815 N 0 0 0
0:00:00.00 97066 N 0 0 0
0:00:00.00 97324 N 0 0 0
0:00:00.00 97579 N 0 0 0
0:00:00.00 97835 N 0 0 0
0:00:00.00 98101 N 0 0 0
0:00:00.00 98383 N 0 0 0
0:00:00.00 98655 N 0 0 0
0:00:00.00 98912 N 0 0 0
0:00:00.00 99168 N 0 0 0
0:00:00.00 99411 N 0 0 0
0:00:00.00 99671 N 0 0 0
0:00:00.00 99923 N 0 0 0
0:00:00.00 100182 N 0 0 0
0:00:00.00 100451 N 0 0 0
0:00:00.00 100732 N 0 0 0
0:00:00.00 100993 N 0 0 0
0:00:00.00 101245 N 0 0 0
0:00:00.00 101493 N 0 0 0
0:00:00.00 101732 N 0 0 0
0:00:00.00 101984 N 0 0 0
0:00:00.00 102246 N 0 0 0
0:00:00.00 102503 N 0 0 0
0:00:00.00 102762 N 0 0 0
0:00:00.00 103035 N 0 0 0
0:00:00.00 103294 N 0 0 0
0:00:00.00 103536 N 0 0 0
0:00:00.00 103790 N 0 0 0
0:00:00.00 104031 N 0 0 0
0:00:00.00 104287 N 0 0 0
0:00:00.00 104538 N 0 0 0
0:00:00.00 104827 N 0 0 0
0:00:00.00 105087 N 0 0 0
0:00:00.00 105357 N 0 0 0
0:00:00.00 105611 N 0 0 0
0:00:00.00 105857 N 0 0 0
0:00:00.00 106102 N 0 0 0
0:00:00.00 106355 N 0 0 0
0:00:00.00 106615 N 0 0 0
0:00:00.00 106883 N 0 0 0
0:00:00.00 107148 N 0 0 0
0:00:00.00 107400 N 0 0 0
0:00:00.00 107667 N 0 0 0
0:00:00.00 107924 N 0 0 0
0:00:00.00 108174 N 0 0 0
0:00:00.00 108417 N 0 0 0
0:00:00.00 108680 N 0 0 0
0:00:00.00 108943 N 0 0 0
0:00:00.00 109214 N 0 0 0
0:00:00.00 109482 N 0 0 0
0:00:00.00 109738 N 0 0 0
0:00:00.00 110001 N 0 0 0
0:00:00.00 110253 N 0 0 0
0:00:00.00 110504 N 0 0 0
0:00:00.00 110750 N 0 0 0
0:00:00.00 111012 N 0 0 0
0:00:00.00 111275 N 0 0 0
0:00:00.00 111547 N 0 0 0
0:00:00.00 111807 N 0 0 0
0:00:00.00 112062 N 0 0 0
0:00:00.00 112312 N 0 0 0
0:00:00.00 112576 N 0 0 0
0:00:00.00 112832 N 0 0 0
0:00:00.00 113085 N 0 0 0
0:00:00.00 113350 N 0 0 0
0:00:00.00 113617 N 0 0 0
0:00:00.00 113892 N 0 0 0
0:00:00.00 114151 N 0 0 0
0:00:00.00 114401 N 0 0 0
0:00:00.00 114647 N 0 0 0
0:00:00.00 114912 N 0 0 0
0:00:00.00 115171 N 0 0 0
0:00:00.00 115421 N 0 0 0
0:00:00.00 115694 N 0 0 0
0:00:00.00 115959 N 0 0 0
0:00:00.00 116222 N 0 0 0
0:00:00.00 116483 N 0 0 0
0:00:00.00 116733 N 0 0 0
0:00:00.00 116978 N 0 0 0
0:00:00.00 117251 N 0 0 0
0:00:00.00 117511 N 0 0 0
0:00:00.00 117771 N 0 0 0
0:00:00.00 118037 N 0 0 0
0:00:00.00 118299 N 0 0 0
0:00:00.00 126902 N 0 0 0
0:00:00.00 127585 N 0 0 0
0:00:00.00 127821 N 0 0 0
0:00:00.00 128061 N 0 0 0
0:00:00.00 128306 N 0 0 0
0:00:00.00 128549 N 0 0 0
0:00:00.00 128804 N 0 0 0
0:00:00.00 129052 N 0 0 0
0:00:00.00 129299 N 0 0 0
0:00:00.00 129529 N 0 0 0
0:00:00.00 129764 N 0 0 0
0:00:00.00 130000 N 0 0 0
0:00:00.00 130250 N 0 0 0
0:00:00.00 130493 N 0 0 0
0:00:00.00 130752 N 0 0 0
0:00:00.00 131004 N 0 0 0
0:00:00.00 131267 N 0 0 0
0:00:00.00 131516 N 0 0 0
0:00:00.00 131748 N 0 0 0
0:00:00.00 131985 N 0 0 0
0:00:00.00 132226 N 0 0 0
0:00:00.00 132480 N 0 0 0
0:00:00.00 132747 N 0 0 0
0:00:00.00 133002 N 0 0 0
0:00:00.00 133255 N 0 0 0
0:00:00.00 133526 N 0 0 0
0:00:00.00 133777 N 0 0 0
0:00:00.00 134021 N 0 0 0
0:00:00.00 134262 N 0 0 0
0:00:00.00 134513 N 0 0 0
0:00:00.00 134775 N 0 0 0
0:00:00.00 135044 N 0 0 0
0:00:00.00 135307 N 0 0 0
0:00:00.00 135559 N 0 0 0
0:00:00.00 135823 N 0 0 0
0:00:00.00 136076 N 0 0 0
0:00:00.00 136325 N 0 0 0
0:00:00.00 136567 N 0 0 0
0:00:00.00 136827 N 0 0 0
0:00:00.00 137086 N 0 0 0
0:00:00.00 137356 N 0 0 0
0:00:00.00 137620 N 0 0 0
0:00:00.00 137873 N 0 0 0
0:00:00.00 138119 N 0 0 0
0:00:00.00 138383 N 0 0 0
0:00:00.00 138629 N 0 0 0
0:00:00.00 138866 N 0 0 0
0:00:00.00 139124 N 0 0 0
0:00:00.00 139385 N 0 0 0
0:00:00.00 139654 N 0 0 0
0:00:00.00 139923 N 0 0 0
0:00:00.00 140172 N 0 0 0
0:00:00.00 140412 N 0 0 0
0:00:00.00 140669 N 0 0 0
0:00:00.00 140915 N 0 0 0
0:00:00.00 141166 N 0 0 0
0:00:00.00 141419 N 0 0 0
0:00:00.00 141682 N 0 0 0
0:00:00.00 141953 N 0 0 0
0:00:00.00 142214 N 0 0 0
0:00:00.00 142459 N 0 0 0
0:00:00.00 142693 N 0 0 0
0:00:00.00 142946 N 0 0 0
0:00:00.00 143194 N 0 0 0
0:00:00.00 143448 N 0 0 0
0:00:00.00 143706 N 0 0 0
0:00:00.00 143967 N 0 0 0
0:00:00.00 144221 N 0 0 0
0:00:00.00 144477 N 0 0 0
0:00:00.00 144717 N 0 0 0
0:00:00.00 144958 N 0 0 0
0:00:00.00 145205 N 0 0 0
0:00:00.00 145466 N 0 0 0
0:00:00.00 145723 N 0 0 0
0:00:00.00 145976 N 0 0 0
0:00:00.00 146241 N 0 0 0
0:00:00.00 146493 N 0 0 0
0:00:00.00 146746 N 0 0 0
0:00:00.00 147000 N 0 0 0
0:00:00.00 147246 N 0 0 0
0:00:00.00 147489 N 0 0 0
0:00:00.00 147762 N 0 0 0
0:00:00.00 148032 N 0 0 0
0:00:00.00 148286 N 0 0 0
0:00:00.00 148542 N 0 0 0
0:00:00.00 148796 N 0 0 0
0:00:00.00 149050 N 0 0 0
0:00:00.00 149303 N 0 0 0
0:00:00.00 149545 N 0 0 0
0:00:00.00 149791 N 0 0 0
0:00:00.00 150064 N 0 0 0
0:00:00.00 150335 N 0 0 0
0:00:00.00 150591 N 0 0 0
0:00:00.00 150840 N 0 0 0
0:00:00.00 151093 N 0 0 0
0:00:00.00 151341 N 0 0 0
0:00:00.00 151598 N 0 0 0
0:00:00.00 151840 N 0 0 0
0:00:00.00 152090 N 0 0 0
0:00:00.00 152364 N 0 0 0
0:00:00.00 152629 N 0 0 0
0:00:00.00 152889 N 0 0 0
0:00:00.00 153075 N 0 0 0
0:00:00.00 153382 N 0 0 0
0:00:00.00 153630 N 0 0 0
0:00:00.00 153887 N 0 0 0
0:00:00.00 154136 N 0 0 0
0:00:00.00 154323 N 0 0 0
0:00:00.00 154656 N 0 0 0
0:00:00.00 154920 N 0 0 0
0:00:00.00 155184 N 0 0 0
0:00:00.00 155427 N 0 0 0
0:00:00.00 155668 N 0 0 0
0:00:00.00 155902 N 0 0 0
0:00:00.00 156156 N 0 0 0
0:00:00.00 156410 N 0 0 0
0:00:00.00 156664 N 0 0 0
0:00:00.00 156915 N 0 0 0
0:00:00.00 157179 N 0 0 0
0:00:00.00 157426 N 0 0 0
0:00:00.00 157656 N 0 0 0
0:00:00.00 157900 N 0 0 0
0:00:00.00 158137 N 0 0 0
0:00:00.00 158388 N 0 0 0
0:00:00.00 158655 N 0 0 0
0:00:00.00 158918 N 0 0 0
0:00:00.00 159172 N 0 0 0
0:00:00.00 159436 N 0 0 0
0:00:00.00 159684 N 0 0 0
0:00:00.00 159926 N 0 0 0
0:00:00.00 160173 N 0 0 0
0:00:00.00 160415 N 0 0 0
0:00:00.00 160674 N 0 0 0
0:00:00.00 160948 N 0 0 0
0:00:00.00 161207 N 0 0 0
0:00:00.00 161463 N 0 0 0
0:00:00.00 161725 N 0 0 0
0:00:00.00 161972 N 0 0 0
0:00:00.00 162220 N 0 0 0
0:00:00.00 162462 N 0 0 0
0:00:00.00 162715 N 0 0 0
0:00:00.00 162980 N 0 0 0
0:00:00.00 163252 N 0 0 0
0:00:00.00 163507 N 0 0 0
0:00:00.00 163758 N 0 0 0
0:00:00.00 164015 N 0 0 0
0:00:00.00 164271 N 0 0 0
0:00:00.00 164519 N 0 0 0
0:00:00.00 164765 N 0 0 0
0:00:00.00 165026 N 0 0 0
0:00:00.00 165293 N 0 0 0
0:00:00.00 165565 N 0 0 0
0:00:00.00 165821 N 0 0 0
0:00:00.00 166071 N 0 0 0
0:00:00.00 166328 N 0 0 0
0:00:00.00 166580 N 0 0 0
0:00:00.00 166830 N 0 0 0
0:00:00.00 167083 N 0 0 0
0:00:00.00 167344 N 0 0 0
0:00:00.00 167608 N 0 0 0
0:00:00.00 167877 N 0 0 0
0:00:00.00 168133 N 0 0 0
0:00:00.00 168383 N 0 0 0
0:00:00.00 168631 N 0 0 0
0:00:00.00 168894 N 0 0 0
0:00:00.00 169150 N 0 0 0
0:00:00.00 169412 N 0 0 0
0:00:00.00 169680 N 0 0 0
0:00:00.00 169945 N 0 0 0
0:00:00.00 170215 N 0 0 0
0:00:00.00 170467 N 0 0 0
0:00:00.00 170720 N 0 0 0
0:00:00.00 170967 N 0 0 0
0:00:00.00 171235 N 0 0 0
0:00:00.00 171493 N 0 0 0
0:00:00.00 171754 N 0 0 0
0:00:00.00 172018 N 0 0 0
0:00:00.00 172274 N 0 0 0
0:00:00.00 172538 N 0 0 0
0:00:00.00 172794 N 0 0 0
0:00:00.00 173041 N 0 0 0
0:00:00.00 173282 N 0 0 0
0:00:00.00 173549 N 0 0 0
0:00:00.00 173806 N 0 0 0
0:00:00.00 174067 N 0 0 0
0:00:00.00 174323 N 0 0 0
0:00:00.00 174581 N 0 0 0
0:00:00.00 174830 N 0 0 0
0:00:00.00 175079 N 0 0 0
0:00:00.00 175319 N 0 0 0
0:00:00.00 175559 N 0 0 0
0:00:00.00 175823 N 0 0 0
0:00:00.00 176055 N 0 0 0
0:00:00.00 176344 N 0 0 0
0:00:00.00 176599 N 0 0 0
0:00:00.00 176856 N 0 0 0
0:00:00.00 177098 N 0 0 0
0:00:00.00 177346 N 0 0 0
0:00:00.00 177587 N 0 0 0
0:00:00.00 177835 N 0 0 0
0:00:00.00 178094 N 0 0 0
0:00:00.00 178367 N 0 0 0
0:00:00.00 178625 N 0 0 0
0:00:00.00 178866 N 0 0 0
0:00:00.00 179115 N 0 0 0
0:00:00.00 179355 N 0 0 0
0:00:00.00 179597 N 0 0 0
0:00:00.00 179846 N 0 0 0
0:00:00.00 180098 N 0 0 0
0:00:00.00 180346 N 0 0 0
0:00:00.00 180611 N 0 0 0
0:00:00.00 180878 N 0 0 0
0:00:00.00 181128 N 0 0 0
0:00:00.00 181366 N 0 0 0
0:00:00.00 181614 N 0 0 0
0:00:00.00 181862 N 0 0 0
0:00:00.00 182125 N 0 0 0
0:00:00.00 182380 N 0 0 0
0:00:00.00 182640 N 0 0 0
0:00:00.00 182914 N 0 0 0
0:00:00.00 183178 N 0 0 0
0:00:00.00 183435 N 0 0 0
0:00:00.00 183627 N 0 0 0
0:00:00.00 183933 N 0 0 0
0:00:00.00 184193 N 0 0 0
0:00:00.00 184468 N 0 0 0
0:00:00.00 184734 N 0 0 0
0:00:00.00 184997 N 0 0 0
0:00:00.00 185273 N 0 0 0
0:00:00.00 185533 N 0 0 0
0:00:00.00 185783 N 0 0 0
0:00:00.00 186032 N 0 0 0
0:00:00.00 186285 N 0 0 0
0:00:00.00 186543 N 0 0 0
0:00:00.00 186823 N 0 0 0
0:00:00.00 187089 N 0 0 0
0:00:00.00 187344 N 0 0 0
0:00:00.00 187611 N 0 0 0
0:00:00.00 187868 N 0 0 0
0:00:00.00 188118 N 0 0 0
0:00:00.00 188365 N 0 0 0
0:00:00.00 188622 N 0 0 0
0:00:00.00 188890 N 0 0 0
0:00:00.00 189169 N 0 0 0
0:00:00.00 189433 N 0 0 0
0:00:00.00 189689 N 0 0 0
0:00:00.00 189948 N 0 0 0
0:00:00.00 190201 N 0 0 0
0:00:00.00 190402 N 0 0 0
0:00:00.00 190696 N 0 0 0
0:00:00.00 190955 N 0 0 0
0:00:00.00 191237 N 0 0 0
0:00:00.00 191504 N 0 0 0
0:00:00.00 191766 N 0 0 0
0:00:00.00 192016 N 0 0 0
0:00:00.00 192280 N 0 0 0
0:00:00.00 192524 N 0 0 0
0:00:00.00 192770 N 0 0 0
0:00:00.00 193024 N 0 0 0
0:00:00.00 193291 N 0 0 0
0:00:00.00 193559 N 0 0 0
0:00:00.00 193824 N 0 0 0
0:00:00.00 194075 N 0 0 0
0:00:00.00 194322 N 0 0 0
0:00:00.00 194576 N 0 0 0
0:00:00.00 194819 N 0 0 0
0:00:00.00 195067 N 0 0 0
0:00:00.00 195328 N 0 0 0
0:00:00.00 195588 N 0 0 0
0:00:00.00 195860 N 0 0 0
0:00:00.00 196127 N 0 0 0
0:00:00.00 196378 N 0 0 0
0:00:00.00 196613 N 0 0 0
0:00:00.00 196863 N 0 0 0
0:00:00.00 197119 N 0 0 0
0:00:00.00 197382 N 0 0 0
0:00:00.00 197630 N 0 0 0
0:00:00.00 197896 N 0 0 0
0:00:00.00 198165 N 0 0 0
0:00:00.00 198427 N 0 0 0
0:00:00.00 198675 N 0 0 0
0:00:00.00 198913 N 0 0 0
0:00:00.00 199175 N 0 0 0
0:00:00.00 199435 N 0 0 0
0:00:00.00 199702 N 0 0 0
0:00:00.00 199971 N 0 0 0
0:00:00.00 200241 N 0 0 0
0:00:00.00 200508 N 0 0 0
0:00:00.00 200766 N 0 0 0
0:00:00.00 201013 N 0 0 0
0:00:00.00 201263 N 0 0 0
0:00:00.00 201529 N 0 0 0
0:00:00.00 201793 N 0 0 0
0:00:00.00 202061 N 0 0 0
0:00:00.00 202325 N 0 0 0
0:00:00.00 202593 N 0 0 0
0:00:00.00 202857 N 0 0 0
0:00:00.00 203118 N 0 0 0
0:00:00.00 203363 N 0 0 0
0:00:00.00 203616 N 0 0 0
0:00:00.00 203882 N 0 0 0
0:00:00.00 204162 N 0 0 0
0:00:00.00 204433 N 0 0 0
0:00:00.00 204699 N 0 0 0
0:00:00.00 204962 N 0 0 0
0:00:00.00 205217 N 0 0 0
0:00:00.00 205485 N 0 0 0
0:00:00.00 205735 N 0 0 0
0:00:00.00 205991 N 0 0 0
0:00:00.00 206271 N 0 0 0
0:00:00.00 206548 N 0 0 0
0:00:00.00 206816 N 0 0 0
0:00:00.00 207074 N 0 0 0
0:00:00.00 207334 N 0 0 0
0:00:00.00 207589 N 0 0 0
0:00:00.00 207848 N 0 0 0
0:00:00.00 208111 N 0 0 0
0:00:00.00 208369 N 0 0 0
0:00:00.00 208647 N 0 0 0
0:00:00.00 208918 N 0 0 0
0:00:00.00 209182 N 0 0 0
0:00:00.00 209428 N 0 0 0
0:00:00.00 209680 N 0 0 0
0:00:00.00 209930 N 0 0 0
0:00:00.00 210192 N 0 0 0
0:00:00.00 210451 N 0 0 0
0:00:00.00 210709 N 0 0 0
0:00:00.00 210981 N 0 0 0
0:00:00.00 211245 N 0 0 0
0:00:00.00 211501 N 0 0 0
0:00:00.00 211746 N 0 0 0
0:00:00.00 211993 N 0 0 0
0:00:00.00 212247 N 0 0 0
0:00:00.00 212512 N 0 0 0
0:00:00.00 212771 N 0 0 0
0:00:00.00 213034 N 0 0 0
0:00:00.00 213301 N 0 0 0
0:00:00.00 213571 N 0 0 0
0:00:00.00 213823 N 0 0 0
0:00:00.00 214066 N 0 0 0
0:00:00.00 214312 N 0 0 0
0:00:00.00 214570 N 0 0 0
0:00:00.00 214843 N 0 0 0
0:00:00.00 215112 N 0 0 0
0:00:00.00 215370 N 0 0 0
0:00:00.00 215639 N 0 0 0
0:00:00.00 215902 N 0 0 0
0:00:00.00 216154 N 0 0 0
0:00:00.00 216404 N 0 0 0
0:00:00.00 216590 N 0 0 0
0:00:00.00 216920 N 0 0 0
0:00:00.00 217192 N 0 0 0
0:00:00.00 217465 N 0 0 0
0:00:00.00 217725 N 0 0 0
0:00:00.00 217984 N 0 0 0
0:00:00.00 218240 N 0 0 0
0:00:00.00 218492 N 0 0 0
0:00:00.00 218739 N 0 0 0
0:00:00.00 219005 N 0 0 0
0:00:00.00 219273 N 0 0 0
0:00:00.00 219545 N 0 0 0
0:00:00.00 220060 N 0 0 0
0:00:00.00 220315 N 0 0 0
0:00:00.00 220583 N 0 0 0
0:00:00.00 220829 N 0 0 0
0:00:00.00 221083 N 0 0 0
0:00:00.00 221345 N 0 0 0
0:00:00.00 221619 N 0 0 0
0:00:00.00 221892 N 0 0 0
0:00:00.00 222145 N 0 0 0
0:00:00.00 222391 N 0 0 0
0:00:00.00 222644 N 0 0 0
0:00:00.00 222902 N 0 0 0
0:00:00.00 223157 N 0 0 0
0:00:00.00 223412 N 0 0 0
0:00:00.00 223681 N 0 0 0
0:00:00.00 223952 N 0 0 0
0:00:00.00 224219 N 0 0 0
0:00:00.00 224471 N 0 0 0
0:00:00.00 224715 N 0 0 0
0:00:00.00 224973 N 0 0 0
0:00:00.00 225232 N 0 0 0
0:00:00.00 225493 N 0 0 0
0:00:00.00 225755 N 0 0 0
0:00:00.00 226027 N 0 0 0
0:00:00.00 226295 N 0 0 0
0:00:00.00 226560 N 0 0 0
0:00:00.00 226809 N 0 0 0
0:00:00.00 227055 N 0 0 0
0:00:00.00 227319 N 0 0 0
0:00:00.00 227576 N 0 0 0
0:00:00.00 227843 N 0 0 0
0:00:00.00 228106 N 0 0 0
0:00:00.00 228374 N 0 0 0
0:00:00.00 228641 N 0 0 0
0:00:00.00 228900 N 0 0 0
0:00:00.00 229149 N 0 0 0
0:00:00.00 229396 N 0 0 0
0:00:00.00 229666 N 0 0 0
0:00:00.00 229936 N 0 0 0
0:00:00.00 230200 N 0 0 0
0:00:00.00 230461 N 0 0 0
0:00:00.00 230724 N 0 0 0
0:00:00.00 230985 N 0 0 0
0:00:00.00 231244 N 0 0 0
0:00:00.00 231491 N 0 0 0
0:00:00.00 231737 N 0 0 0
0:00:00.00 232014 N 0 0 0
0:00:00.00 232286 N 0 0 0
0:00:00.00 232544 N 0 0 0
0:00:00.00 232805 N 0 0 0
0:00:00.00 233060 N 0 0 0
0:00:00.00 233314 N 0 0 0
0:00:00.00 233575 N 0 0 0
0:00:00.00 233815 N 0 0 0
0:00:00.00 234062 N 0 0 0
0:00:00.00 234336 N 0 0 0
0:00:00.00 234608 N 0 0 0
0:00:00.00 234820 N 0 0 0
0:00:00.00 235119 N 0 0 0
0:00:00.00 235371 N 0 0 0
0:00:00.00 235624 N 0 0 0
0:00:00.00 235884 N 0 0 0
0:00:00.00 236140 N 0 0 0
0:00:00.00 236393 N 0 0 0
0:00:00.00 236668 N 0 0 0
0:00:00.00 236946 N 0 0 0
0:00:00.00 237212 N 0 0 0
0:00:00.00 237457 N 0 0 0
0:00:00.00 237710 N 0 0 0
0:00:00.00 237962 N 0 0 0
0:00:00.00 238227 N 0 0 0
0:00:00.00 238490 N 0 0 0
0:00:00.00 238755 N 0 0 0
0:00:00.00 239026 N 0 0 0
0:00:00.00 239296 N 0 0 0
0:00:00.00 239558 N 0 0 0
0:00:00.00 239802 N 0 0 0
0:00:00.00 240052 N 0 0 0
0:00:00.00 240310 N 0 0 0
0:00:00.00 240576 N 0 0 0
0:00:00.00 240843 N 0 0 0
0:00:00.00 241104 N 0 0 0
0:00:00.00 241374 N 0 0 0
0:00:00.00 241643 N 0 0 0
0:00:00.00 241896 N 0 0 0
0:00:00.00 242144 N 0 0 0
0:00:00.00 242398 N 0 0 0
0:00:00.00 242658 N 0 0 0
0:00:00.00 242931 N 0 0 0
0:00:00.00 243195 N 0 0 0
0:00:00.00 243460 N 0 0 0
0:00:00.00 243725 N 0 0 0
0:00:00.00 243991 N 0 0 0
0:00:00.00 244243 N 0 0 0
0:00:00.00 244491 N 0 0 0
0:00:00.00 244750 N 0 0 0
0:00:00.00 245018 N 0 0 0
0:00:00.00 245296 N 0 0 0
0:00:00.00 245500 N 0 0 0
0:00:00.00 245825 N 0 0 0
0:00:00.00 246083 N 0 0 0
0:00:00.00 246350 N 0 0 0
0:00:00.00 246606 N 0 0 0
0:00:00.00 246854 N 0 0 0
0:00:00.00 247121 N 0 0 0
0:00:00.00 247396 N 0 0 0
0:00:00.00 247672 N 0 0 0
0:00:00.00 247936 N 0 0 0
0:00:00.00 248184 N 0 0 0
0:00:00.00 248441 N 0 0 0
0:00:00.00 248701 N 0 0 0
0:00:00.00 248957 N 0 0 0
0:00:00.00 249209 N 0 0 0
0:00:00.00 249478 N 0 0 0
0:00:00.00 249752 N 0 0 0
0:00:00.00 250025 N 0 0 0
0:00:00.00 250279 N 0 0 0
0:00:00.00 250527 N 0 0 0
0:00:00.00 250787 N 0 0 0
0:00:00.00 251046 N 0 0 0
0:00:00.00 251307 N 0 0 0
0:00:00.00 251569 N 0 0 0
0:00:00.00 251840 N 0 0 0
0:00:00.00 252116 N 0 0 0
0:00:00.00 252393 N 0 0 0
0:00:00.00 252637 N 0 0 0
0:00:00.00 252881 N 0 0 0
0:00:00.00 253141 N 0 0 0
0:00:00.00 253404 N 0 0 0
0:00:00.00 253661 N 0 0 0
0:00:00.00 253923 N 0 0 0
0:00:00.00 254189 N 0 0 0
0:00:00.00 254456 N 0 0 0
0:00:00.00 254722 N 0 0 0
0:00:00.00 254978 N 0 0 0
0:00:00.00 255214 N 0 0 0
0:00:00.00 255481 N 0 0 0
0:00:00.00 255737 N 0 0 0
0:00:00.00 256002 N 0 0 0
0:00:00.00 256270 N 0 0 0
0:00:00.00 256536 N 0 0 0
0:00:00.00 256793 N 0 0 0
0:00:00.00 257049 N 0 0 0
0:00:00.00 257307 N 0 0 0
0:00:00.00 257554 N 0 0 0
0:00:00.00 257821 N 0 0 0
0:00:00.00 258090 N 0 0 0
0:00:00.00 258349 N 0 0 0
0:00:00.00 258621 N 0 0 0
0:00:00.00 258882 N 0 0 0
0:00:00.00 259138 N 0 0 0
0:00:00.00 259391 N 0 0 0
0:00:00.00 259641 N 0 0 0
0:00:00.00 259896 N 0 0 0
0:00:00.00 260175 N 0 0 0
0:00:00.00 260445 N 0 0 0
0:00:00.00 260704 N 0 0 0
0:00:00.00 260968 N 0 0 0
0:00:00.00 261220 N 0 0 0
0:00:00.00 261478 N 0 0 0
0:00:00.00 261731 N 0 0 0
0:00:00.00 261982 N 0 0 0
0:00:00.00 262239 N 0 0 0
0:00:00.00 262521 N 0 0 0
0:00:00.00 262789 N 0 0 0
0:00:00.00 263040 N 0 0 0
0:00:00.00 263302 N 0 0 0
0:00:00.00 263544 N 0 0 0
0:00:00.00 263800 N 0 0 0
0:00:00.00 264056 N 0 0 0
0:00:00.00 264313 N 0 0 0
0:00:00.00 264581 N 0 0 0
0:00:00.00 264864 N 0 0 0
0:00:00.00 265132 N 0 0 0
0:00:00.00 265381 N 0 0 0
0:00:00.00 265633 N 0 0 0
0:00:00.00 265882 N 0 0 0
0:00:00.00 266139 N 0 0 0
0:00:00.00 266398 N 0 0 0
0:00:00.00 266662 N 0 0 0
0:00:00.00 266935 N 0 0 0
0:00:00.00 267213 N 0 0 0
0:00:00.00 267476 N 0 0 0
0:00:00.00 267721 N 0 0 0
0:00:00.00 267970 N 0 0 0
0:00:00.00 268219 N 0 0 0
0:00:00.00 268482 N 0 0 0
0:00:00.00 268748 N 0 0 0
0:00:00.00 269017 N 0 0 0
0:00:00.00 269286 N 0 0 0
0:00:00.00 269559 N 0 0 0
0:00:00.00 269808 N 0 0 0
0:00:00.00 270053 N 0 0 0
0:00:00.00 270299 N 0 0 0
0:00:00.00 270548 N 0 0 0
0:00:00.00 270817 N 0 0 0
0:00:00.00 271087 N 0 0 0
0:00:00.00 271356 N 0 0 0
0:00:00.00 271607 N 0 0 0
0:00:00.00 271879 N 0 0 0
0:00:00.00 272127 N 0 0 0
0:00:00.00 272374 N 0 0 0
0:00:00.00 272615 N 0 0 0
0:00:00.00 272869 N 0 0 0
0:00:00.00 273133 N 0 0 0
0:00:00.00 273409 N 0 0 0
0:00:00.00 273672 N 0 0 0
0:00:00.00 273918 N 0 0 0
0:00:00.00 274177 N 0 0 0
0:00:00.00 274431 N 0 0 0
0:00:00.00 274679 N 0 0 0
0:00:00.00 274931 N 0 0 0
0:00:00.00 275190 N 0 0 0
0:00:00.00 275453 N 0 0 0
0:00:00.00 275721 N 0 0 0
0:00:00.00 275982 N 0 0 0
0:00:00.00 276228 N 0 0 0
0:00:00.00 276476 N 0 0 0
0:00:00.00 276730 N 0 0 0
0:00:00.00 276983 N 0 0 0
0:00:00.00 277235 N 0 0 0
0:00:00.00 277499 N 0 0 0
0:00:00.00 277765 N 0 0 0
0:00:00.00 278037 N 0 0 0
0:00:00.00 278298 N 0 0 0
0:00:00.00 278545 N 0 0 0
0:00:00.00 278802 N 0 0 0
0:00:00.00 279059 N 0 0 0
0:00:00.00 279319 N 0 0 0
0:00:00.00 279580 N 0 0 0
0:00:00.00 279850 N 0 0 0
0:00:00.00 280119 N 0 0 0
0:00:00.00 280392 N 0 0 0
0:00:00.00 280642 N 0 0 0
0:00:00.00 280889 N 0 0 0
0:00:00.00 281148 N 0 0 0
0:00:00.00 281409 N 0 0 0
0:00:00.00 281671 N 0 0 0
0:00:00.00 281935 N 0 0 0
0:00:00.00 282206 N 0 0 0
0:00:00.00 282475 N 0 0 0
0:00:00.00 282735 N 0 0 0
0:00:00.00 282987 N 0 0 0
0:00:00.00 283233 N 0 0 0
0:00:00.00 283494 N 0 0 0
0:00:00.00 283760 N 0 0 0
0:00:00.00 284028 N 0 0 0
0:00:00.00 284291 N 0 0 0
0:00:00.00 284562 N 0 0 0
0:00:00.00 284823 N 0 0 0
0:00:00.00 285081 N 0 0 0
0:00:00.00 285329 N 0 0 0
0:00:00.00 285576 N 0 0 0
0:00:00.00 285842 N 0 0 0
0:00:00.00 286107 N 0 0 0
0:00:00.00 286375 N 0 0 0
0:00:00.00 286636 N 0 0 0
0:00:00.00 286900 N 0 0 0
0:00:00.00 287158 N 0 0 0
0:00:00.00 287415 N 0 0 0
0:00:00.00 287664 N 0 0 0
0:00:00.00 287913 N 0 0 0
0:00:00.00 288187 N 0 0 0
0:00:00.00 288461 N 0 0 0
0:00:00.00 288722 N 0 0 0
0:00:00.00 288982 N 0 0 0
0:00:00.00 289239 N 0 0 0
0:00:00.00 289494 N 0 0 0
0:00:00.00 289752 N 0 0 0
0:00:00.00 290004 N 0 0 0
0:00:00.00 290254 N 0 0 0
0:00:00.00 290535 N 0 0 0
0:00:00.00 290806 N 0 0 0
0:00:00.00 291060 N 0 0 0
0:00:00.00 291328 N 0 0 0
0:00:00.00 291573 N 0 0 0
0:00:00.00 291828 N 0 0 0
0:00:00.00 292087 N 0 0 0
0:00:00.00 292345 N 0 0 0
0:00:00.00 292608 N 0 0 0
0:00:00.00 292887 N 0 0 0
0:00:00.00 293155 N 0 0 0
0:00:00.00 293407 N 0 0 0
0:00:00.00 293667 N 0 0 0
0:00:00.00 293910 N 0 0 0
0:00:00.00 294167 N 0 0 0
0:00:00.00 294425 N 0 0 0
0:00:00.00 294693 N 0 0 0
0:00:00.00 294957 N 0 0 0
0:00:00.00 295233 N 0 0 0
0:00:00.00 295501 N 0 0 0
0:00:00.00 295746 N 0 0 0
0:00:00.00 296000 N 0 0 0
0:00:00.00 296245 N 0 0 0
0:00:00.00 296509 N 0 0 0
0:00:00.00 296767 N 0 0 0
0:00:00.00 297033 N 0 0 0
0:00:00.00 297302 N 0 0 0
0:00:00.00 297580 N 0 0 0
0:00:00.00 297834 N 0 0 0
0:00:00.00 298081 N 0 0 0
0:00:00.00 298337 N 0 0 0
0:00:00.00 298584 N 0 0 0
0:00:00.00 298852 N 0 0 0
0:00:00.00 299116 N 0 0 0
0:00:00.00 299383 N 0 0 0
0:00:00.00 299648 N 0 0 0
0:00:00.00 299926 N 0 0 0
0:00:00.00 300173 N 0 0 0
0:00:00.00 300417 N 0 0 0
0:00:00.00 300668 N 0 0 0
0:00:00.00 300921 N 0 0 0
0:00:00.00 301190 N 0 0 0
0:00:00.00 301459 N 0 0 0
0:00:00.00 301731 N 0 0 0
0:00:00.00 301986 N 0 0 0
0:00:00.00 302249 N 0 0 0
0:00:00.00 302495 N 0 0 0
0:00:00.00 302742 N 0 0 0
0:00:00.00 302992 N 0 0 0
0:00:00.00 303254 N 0 0 0
0:00:00.00 303526 N 0 0 0
0:00:00.00 303802 N 0 0 0
0:00:00.00 304066 N 0 0 0
0:00:00.00 304319 N 0 0 0
0:00:00.00 304833 N 0 0 0
0:00:00.00 305084 N 0 0 0
0:00:00.00 305341 N 0 0 0
0:00:00.00 305610 N 0 0 0
0:00:00.00 305885 N 0 0 0
0:00:00.00 306164 N 0 0 0
0:00:00.00 306421 N 0 0 0
0:00:00.00 306671 N 0 0 0
0:00:00.00 306930 N 0 0 0
0:00:00.00 307186 N 0 0 0
0:00:00.00 307445 N 0 0 0
0:00:00.00 307708 N 0 0 0
0:00:00.00 307980 N 0 0 0
0:00:00.00 308254 N 0 0 0
0:00:00.00 308526 N 0 0 0
0:00:00.00 308779 N 0 0 0
0:00:00.00 309025 N 0 0 0
0:00:00.00 309284 N 0 0 0
0:00:00.00 309541 N 0 0 0
0:00:00.00 309806 N 0 0 0
0:00:00.00 310078 N 0 0 0
0:00:00.00 310340 N 0 0 0
0:00:00.00 310608 N 0 0 0
0:00:00.00 310873 N 0 0 0
0:00:00.00 311122 N 0 0 0
0:00:00.00 311367 N 0 0 0
0:00:00.00 311630 N 0 0 0
0:00:00.00 311891 N 0 0 0
0:00:00.00 312160 N 0 0 0
0:00:00.00 312421 N 0 0 0
0:00:00.00 312683 N 0 0 0
0:00:00.00 312939 N 0 0 0
0:00:00.00 313197 N 0 0 0
0:00:00.00 313442 N 0 0 0
0:00:00.00 313693 N 0 0 0
0:00:00.00 313956 N 0 0 0
0:00:00.00 314227 N 0 0 0
0:00:00.00 314487 N 0 0 0
0:00:00.00 314749 N 0 0 0
0:00:00.00 315011 N 0 0 0
0:00:00.00 315270 N 0 0 0
0:00:00.00 315525 N 0 0 0
0:00:00.00 315773 N 0 0 0
0:00:00.00 316024 N 0 0 0
0:00:00.00 316301 N 0 0 0
0:00:00.00 316571 N 0 0 0
0:00:00.00 316839 N 0 0 0
0:00:00.00 317096 N 0 0 0
0:00:00.00 317352 N 0 0 0
0:00:00.00 317609 N 0 0 0
0:00:00.00 317869 N 0 0 0
0:00:00.00 318122 N 0 0 0
0:00:00.00 318387 N 0 0 0
0:00:00.00 318666 N 0 0 0
0:00:00.00 318936 N 0 0 0
0:00:00.00 319193 N 0 0 0
0:00:00.00 319454 N 0 0 0
0:00:00.00 319702 N 0 0 0
0:00:00.00 319960 N 0 0 0
0:00:00.00 320218 N 0 0 0
0:00:00.00 320475 N 0 0 0
0:00:00.00 320743 N 0 0 0
0:00:00.00 321023 N 0 0 0
0:00:00.00 321284 N 0 0 0
0:00:00.00 321536 N 0 0 0
0:00:00.00 321788 N 0 0 0
0:00:00.00 322037 N 0 0 0
0:00:00.00 322292 N 0 0 0
0:00:00.00 322550 N 0 0 0
0:00:00.00 322811 N 0 0 0
0:00:00.00 323079 N 0 0 0
0:00:00.00 323357 N 0 0 0
0:00:00.00 323612 N 0 0 0
0:00:00.00 323859 N 0 0 0
0:00:00.00 324106 N 0 0 0
0:00:00.00 324353 N 0 0 0
0:00:00.00 324616 N 0 0 0
0:00:00.00 324867 N 0 0 0
0:00:00.00 325131 N 0 0 0
0:00:00.00 325400 N 0 0 0
0:00:00.00 325669 N 0 0 0
0:00:00.00 325926 N 0 0 0
0:00:00.00 326172 N 0 0 0
0:00:00.00 326423 N 0 0 0
0:00:00.00 326675 N 0 0 0
0:00:00.00 326938 N 0 0 0
0:00:00.00 327204 N 0 0 0
0:00:00.00 327464 N 0 0 0
0:00:00.00 327724 N 0 0 0
0:00:00.00 327995 N 0 0 0
0:00:00.00 328251 N 0 0 0
0:00:00.00 328486 N 0 0 0
0:00:00.00 328733 N 0 0 0
0:00:00.00 328981 N 0 0 0
0:00:00.00 329250 N 0 0 0
0:00:00.00 329515 N 0 0 0
0:00:00.00 329775 N 0 0 0
0:00:00.00 330038 N 0 0 0
0:00:00.00 330240 N 0 0 0
0:00:00.00 330554 N 0 0 0
0:00:00.00 330787 N 0 0 0
0:00:00.00 331040 N 0 0 0
0:00:00.00 331294 N 0 0 0
0:00:00.00 331564 N 0 0 0
0:00:00.00 331832 N 0 0 0
0:00:00.00 332088 N 0 0 0
0:00:00.00 332338 N 0 0 0
0:00:00.00 332598 N 0 0 0
0:00:00.00 332845 N 0 0 0
0:00:00.00 333084 N 0 0 0
0:00:00.00 333330 N 0 0 0
0:00:00.00 333587 N 0 0 0
0:00:00.00 333860 N 0 0 0
0:00:00.00 334129 N 0 0 0
0:00:00.00 334389 N 0 0 0
0:00:00.00 334632 N 0 0 0
0:00:00.00 334883 N 0 0 0
0:00:00.00 335134 N 0 0 0
0:00:00.00 335384 N 0 0 0
0:00:00.00 335579 N 0 0 0
0:00:00.00 335898 N 0 0 0
0:00:00.00 336165 N 0 0 0
0:00:00.00 336437 N 0 0 0
0:00:00.00 336689 N 0 0 0
0:00:00.00 336929 N 0 0 0
0:00:00.00 337179 N 0 0 0
0:00:00.00 337435 N 0 0 0
0:00:00.00 337688 N 0 0 0
0:00:00.00 337948 N 0 0 0
0:00:00.00 338214 N 0 0 0
0:00:00.00 338477 N 0 0 0
0:00:00.00 338743 N 0 0 0
0:00:00.00 338989 N 0 0 0
0:00:00.00 339236 N 0 0 0
0:00:00.00 339487 N 0 0 0
0:00:00.00 339750 N 0 0 0
0:00:00.00 340010 N 0 0 0
0:00:00.00 340276 N 0 0 0
0:00:00.00 340547 N 0 0 0
0:00:00.00 340809 N 0 0 0
0:00:00.00 341066 N 0 0 0
0:00:00.00 341318 N 0 0 0
0:00:00.00 341568 N 0 0 0
0:00:00.00 341818 N 0 0 0
0:00:00.00 342089 N 0 0 0
0:00:00.00 342357 N 0 0 0
0:00:00.00 342624 N 0 0 0
0:00:00.00 342886 N 0 0 0
0:00:00.00 343146 N 0 0 0
0:00:00.00 343403 N 0 0 0
0:00:00.00 343657 N 0 0 0
0:00:00.00 343907 N 0 0 0
0:00:00.00 344162 N 0 0 0
0:00:00.00 344445 N 0 0 0
0:00:00.00 344712 N 0 0 0
0:00:00.00 344974 N 0 0 0
0:00:00.00 345235 N 0 0 0
0:00:00.00 345488 N 0 0 0
0:00:00.00 345747 N 0 0 0
0:00:00.00 345998 N 0 0 0
0:00:00.00 346251 N 0 0 0
0:00:00.00 346520 N 0 0 0
0:00:00.00 346802 N 0 0 0
0:00:00.00 347071 N 0 0 0
0:00:00.00 347326 N 0 0 0
0:00:00.00 347582 N 0 0 0
0:00:00.00 347832 N 0 0 0
0:00:00.00 348087 N 0 0 0
0:00:00.00 348337 N 0 0 0
0:00:00.00 348592 N 0 0 0
0:00:00.00 348865 N 0 0 0
0:00:00.00 349137 N 0 0 0
0:00:00.00 349403 N 0 0 0
0:00:00.00 349655 N 0 0 0
0:00:00.00 349909 N 0 0 0
0:00:00.00 350158 N 0 0 0
0:00:00.00 350419 N 0 0 0
0:00:00.00 350675 N 0 0 0
0:00:00.00 350933 N 0 0 0
0:00:00.00 351207 N 0 0 0
0:00:00.00 351478 N 0 0 0
0:00:00.00 351748 N 0 0 0
0:00:00.00 351992 N 0 0 0
0:00:00.00 352243 N 0 0 0
0:00:00.00 352496 N 0 0 0
0:00:00.00 352762 N 0 0 0
0:00:00.00 353024 N 0 0 0
0:00:00.00 353290 N 0 0 0
0:00:00.00 353560 N 0 0 0
0:00:00.00 353825 N 0 0 0
0:00:00.00 354083 N 0 0 0
0:00:00.00 354329 N 0 0 0
0:00:00.00 354582 N 0 0 0
0:00:00.00 354839 N 0 0 0
0:00:00.00 355113 N 0 0 0
0:00:00.00 355377 N 0 0 0
0:00:00.00 355640 N 0 0 0
0:00:00.00 355912 N 0 0 0
0:00:00.00 356166 N 0 0 0
0:00:00.00 356413 N 0 0 0
0:00:00.00 356659 N 0 0 0
0:00:00.00 356910 N 0 0 0
0:00:00.00 357168 N 0 0 0
0:00:00.00 357448 N 0 0 0
0:00:00.00 357711 N 0 0 0
0:00:00.00 357972 N 0 0 0
0:00:00.00 358250 N 0 0 0
0:00:00.00 358503 N 0 0 0
0:00:00.00 358754 N 0 0 0
0:00:00.00 359007 N 0 0 0
0:00:00.00 359267 N 0 0 0
0:00:00.00 359539 N 0 0 0
0:00:00.00 359818 N 0 0 0
0:00:00.00 360089 N 0 0 0
0:00:00.00 360348 N 0 0 0
0:00:00.00 360620 N 0 0 0
0:00:00.00 360870 N 0 0 0
0:00:00.00 361119 N 0 0 0
0:00:00.00 361373 N 0 0 0
0:00:00.00 361642 N 0 0 0
0:00:00.00 361919 N 0 0 0
0:00:00.00 362188 N 0 0 0
0:00:00.00 362452 N 0 0 0
0:00:00.00 362709 N 0 0 0
0:00:00.00 362974 N 0 0 0
0:00:00.00 363227 N 0 0 0
0:00:00.00 363478 N 0 0 0
0:00:00.00 363739 N 0 0 0
0:00:00.00 364010 N 0 0 0
0:00:00.00 364284 N 0 0 0
0:00:00.00 364547 N 0 0 0
0:00:00.00 364801 N 0 0 0
0:00:00.00 365050 N 0 0 0
0:00:00.00 365313 N 0 0 0
0:00:00.00 365562 N 0 0 0
0:00:00.00 365816 N 0 0 0
0:00:00.00 366082 N 0 0 0
0:00:00.00 366340 N 0 0 0
0:00:00.00 366608 N 0 0 0
0:00:00.00 366874 N 0 0 0
0:00:00.00 367127 N 0 0 0
0:00:00.00 367370 N 0 0 0
0:00:00.00 367627 N 0 0 0
0:00:00.00 367880 N 0 0 0
0:00:00.00 368137 N 0 0 0
0:00:00.00 368405 N 0 0 0
0:00:00.00 368666 N 0 0 0
0:00:00.00 368931 N 0 0 0
0:00:00.00 369195 N 0 0 0
0:00:00.00 369444 N 0 0 0
0:00:00.00 369690 N 0 0 0
0:00:00.00 369954 N 0 0 0
0:00:00.00 370214 N 0 0 0
0:00:00.00 370480 N 0 0 0
0:00:00.00 370746 N 0 0 0
0:00:00.00 370978 N 0 0 0
0:00:00.00 371271 N 0 0 0
0:00:00.00 371526 N 0 0 0
0:00:00.00 371778 N 0 0 0
0:00:00.00 372029 N 0 0 0
0:00:00.00 372291 N 0 0 0
0:00:00.00 372553 N 0 0 0
0:00:00.00 372821 N 0 0 0
0:00:00.00 373080 N 0 0 0
0:00:00.00 373344 N 0 0 0
0:00:00.00 373605 N 0 0 0
0:00:00.00 373855 N 0 0 0
0:00:00.00 374349 N 0 0 0
0:00:00.00 374619 N 0 0 0
0:00:00.00 374894 N 0 0 0
0:00:00.00 375161 N 0 0 0
0:00:00.00 375414 N 0 0 0
0:00:00.00 375670 N 0 0 0
0:00:00.00 375918 N 0 0 0
0:00:00.00 376178 N 0 0 0
0:00:00.00 376429 N 0 0 0
0:00:00.00 376675 N 0 0 0
0:00:00.00 376949 N 0 0 0
0:00:00.00 377219 N 0 0 0
0:00:00.00 377490 N 0 0 0
0:00:00.00 377736 N 0 0 0
0:00:00.00 377989 N 0 0 0
0:00:00.00 378236 N 0 0 0
0:00:00.00 378496 N 0 0 0
0:00:00.00 378751 N 0 0 0
0:00:00.00 379003 N 0 0 0
0:00:00.00 379279 N 0 0 0
0:00:00.00 379549 N 0 0 0
0:00:00.00 379809 N 0 0 0
0:00:00.00 380056 N 0 0 0
0:00:00.00 380306 N 0 0 0
0:00:00.00 380558 N 0 0 0
0:00:00.00 380815 N 0 0 0
0:00:00.00 381081 N 0 0 0
0:00:00.00 381281 N 0 0 0
0:00:00.00 381620 N 0 0 0
0:00:00.00 381888 N 0 0 0
0:00:00.00 382150 N 0 0 0
0:00:00.00 382397 N 0 0 0
0:00:00.00 382648 N 0 0 0
0:00:00.00 382906 N 0 0 0
0:00:00.00 383172 N 0 0 0
0:00:00.00 383440 N 0 0 0
0:00:00.00 383697 N 0 0 0
0:00:00.00 383972 N 0 0 0
0:00:00.00 384230 N 0 0 0
0:00:00.00 384479 N 0 0 0
0:00:00.00 384726 N 0 0 0
0:00:00.00 384976 N 0 0 0
0:00:00.00 385234 N 0 0 0
0:00:00.00 385513 N 0 0 0
0:00:00.00 385779 N 0 0 0
0:00:00.00 386033 N 0 0 0
0:00:00.00 386298 N 0 0 0
0:00:00.00 386555 N 0 0 0
0:00:00.00 386801 N 0 0 0
0:00:00.00 387042 N 0 0 0
0:00:00.00 387295 N 0 0 0
0:00:00.00 387557 N 0 0 0
0:00:00.00 387833 N 0 0 0
0:00:00.00 388098 N 0 0 0
0:00:00.00 388348 N 0 0 0
0:00:00.00 388610 N 0 0 0
0:00:00.00 388864 N 0 0 0
0:00:00.00 389113 N 0 0 0
0:00:00.00 389360 N 0 0 0
0:00:00.00 389620 N 0 0 0
0:00:00.00 389890 N 0 0 0
0:00:00.00 390168 N 0 0 0
0:00:00.00 390437 N 0 0 0
0:00:00.00 390683 N 0 0 0
0:00:00.00 390943 N 0 0 0
0:00:00.00 391195 N 0 0 0
0:00:00.00 391446 N 0 0 0
0:00:00.00 391699 N 0 0 0
0:00:00.00 391916 N 0 0 0
0:00:00.00 392231 N 0 0 0
0:00:00.00 392509 N 0 0 0
0:00:00.00 392770 N 0 0 0
0:00:00.00 393009 N 0 0 0
0:00:00.00 393266 N 0 0 0
0:00:00.00 393519 N 0 0 0
0:00:00.00 393771 N 0 0 0
0:00:00.00 394032 N 0 0 0
0:00:00.00 394293 N 0 0 0
0:00:00.00 394506 N 0 0 0
0:00:00.00 394836 N 0 0 0
0:00:00.00 395084 N 0 0 0
0:00:00.00 395332 N 0 0 0
0:00:00.00 395595 N 0 0 0
0:00:00.00 395846 N 0 0 0
0:00:00.00 396099 N 0 0 0
0:00:00.00 396359 N 0 0 0
0:00:00.00 396626 N 0 0 0
0:00:00.00 396894 N 0 0 0
0:00:00.00 397163 N 0 0 0
0:00:00.00 397409 N 0 0 0
0:00:00.00 397654 N 0 0 0
0:00:00.00 397917 N 0 0 0
0:00:00.00 398178 N 0 0 0
0:00:00.00 398399 N 0 0 0
0:00:00.00 398701 N 0 0 0
0:00:00.00 398967 N 0 0 0
0:00:00.00 399235 N 0 0 0
0:00:00.00 399495 N 0 0 0
0:00:00.00 399742 N 0 0 0
0:00:00.00 399988 N 0 0 0
0:00:00.00 400246 N 0 0 0
0:00:00.00 400511 N 0 0 0
0:00:00.00 400781 N 0 0 0
0:00:00.00 401042 N 0 0 0
0:00:00.00 401306 N 0 0 0
0:00:00.00 401565 N 0 0 0
0:00:00.00 401829 N 0 0 0
0:00:00.00 402072 N 0 0 0
0:00:00.00 402320 N 0 0 0
0:00:00.00 402589 N 0 0 0
0:00:00.00 402856 N 0 0 0
0:00:00.00 403124 N 0 0 0
0:00:00.00 403382 N 0 0 0
0:00:00.00 403640 N 0 0 0
0:00:00.00 403890 N 0 0 0
0:00:00.00 404142 N 0 0 0
0:00:00.00 404392 N 0 0 0
0:00:00.00 404643 N 0 0 0
0:00:00.00 404913 N 0 0 0
0:00:00.00 405185 N 0 0 0
0:00:00.00 405455 N 0 0 0
0:00:00.00 405706 N 0 0 0
0:00:00.00 405958 N 0 0 0
0:00:00.00 406204 N 0 0 0
0:00:00.00 406457 N 0 0 0
0:00:00.00 406712 N 0 0 0
0:00:00.00 406970 N 0 0 0
0:00:00.00 407239 N 0 0 0
0:00:00.00 407518 N 0 0 0
0:00:00.00 407777 N 0 0 0
0:00:00.00 407961 N 0 0 0
0:00:00.00 408278 N 0 0 0
0:00:00.00 408524 N 0 0 0
0:00:00.00 408791 N 0 0 0
0:00:00.00 409045 N 0 0 0
0:00:00.00 409314 N 0 0 0
0:00:00.00 409579 N 0 0 0
0:00:00.00 409858 N 0 0 0
0:00:00.00 410121 N 0 0 0
0:00:00.00 410366 N 0 0 0
0:00:00.00 410617 N 0 0 0
0:00:00.00 410868 N 0 0 0
0:00:00.00 411136 N 0 0 0
0:00:00.00 411667 N 0 0 0
0:00:00.00 411934 N 0 0 0
0:00:00.00 412205 N 0 0 0
0:00:00.00 412459 N 0 0 0
0:00:00.00 412703 N 0 0 0
0:00:00.00 412960 N 0 0 0
0:00:00.00 413211 N 0 0 0
0:00:00.00 413477 N 0 0 0
0:00:00.00 413744 N 0 0 0
0:00:00.00 414002 N 0 0 0
0:00:00.00 414271 N 0 0 0
0:00:00.00 414531 N 0 0 0
0:00:00.00 414778 N 0 0 0
0:00:00.00 415020 N 0 0 0
0:00:00.00 415269 N 0 0 0
0:00:00.00 415527 N 0 0 0
0:00:00.00 415793 N 0 0 0
0:00:00.00 416056 N 0 0 0
0:00:00.00 416318 N 0 0 0
0:00:00.00 416573 N 0 0 0
0:00:00.00 416834 N 0 0 0
0:00:00.00 417081 N 0 0 0
0:00:00.00 417324 N 0 0 0
0:00:00.00 417581 N 0 0 0
0:00:00.00 417839 N 0 0 0
0:00:00.00 418109 N 0 0 0
0:00:00.00 418376 N 0 0 0
0:00:00.00 418628 N 0 0 0
0:00:00.00 418880 N 0 0 0
0:00:00.00 419137 N 0 0 0
0:00:00.00 419390 N 0 0 0
0:00:00.00 419629 N 0 0 0
0:00:00.00 419881 N 0 0 0
0:00:00.00 420148 N 0 0 0
0:00:00.00 420683 N 0 0 0
0:00:00.00 420934 N 0 0 0
0:00:00.00 421191 N 0 0 0
0:00:00.00 421450 N 0 0 0
0:00:00.00 421700 N 0 0 0
0:00:00.00 421956 N 0 0 0
0:00:00.00 422221 N 0 0 0
0:00:00.00 422484 N 0 0 0
0:00:00.00 422756 N 0 0 0
0:00:00.00 423011 N 0 0 0
0:00:00.00 423259 N 0 0 0
0:00:00.00 423508 N 0 0 0
0:00:00.00 423766 N 0 0 0
0:00:00.00 424020 N 0 0 0
0:00:00.00 424279 N 0 0 0
0:00:00.00 424547 N 0 0 0
0:00:00.00 424810 N 0 0 0
0:00:00.00 425078 N 0 0 0
0:00:00.00 425330 N 0 0 0
0:00:00.00 425577 N 0 0 0
0:00:00.00 425824 N 0 0 0
0:00:00.00 426086 N 0 0 0
0:00:00.00 426353 N 0 0 0
0:00:00.00 426610 N 0 0 0
0:00:00.00 426877 N 0 0 0
0:00:00.00 427141 N 0 0 0
0:00:00.00 427399 N 0 0 0
0:00:00.00 427649 N 0 0 0
0:00:00.00 427895 N 0 0 0
0:00:00.00 428147 N 0 0 0
0:00:00.00 428418 N 0 0 0
0:00:00.00 428682 N 0 0 0
0:00:00.00 428943 N 0 0 0
0:00:00.00 429208 N 0 0 0
0:00:00.00 429468 N 0 0 0
0:00:00.00 429721 N 0 0 0
0:00:00.00 429967 N 0 0 0
0:00:00.00 430215 N 0 0 0
0:00:00.00 430466 N 0 0 0
0:00:00.00 430738 N 0 0 0
0:00:00.00 431005 N 0 0 0
0:00:00.00 431264 N 0 0 0
0:00:00.00 431526 N 0 0 0
0:00:00.00 431772 N 0 0 0
0:00:00.00 432025 N 0 0 0
0:00:00.00 432276 N 0 0 0
0:00:00.00 432525 N 0 0 0
0:00:00.00 432782 N 0 0 0
0:00:00.00 433059 N 0 0 0
0:00:00.00 433326 N 0 0 0
0:00:00.00 433577 N 0 0 0
0:00:00.00 433838 N 0 0 0
0:00:00.00 434088 N 0 0 0
0:00:00.00 434341 N 0 0 0
0:00:00.00 434600 N 0 0 0
0:00:00.00 434854 N 0 0 0
0:00:00.00 435115 N 0 0 0
0:00:00.00 435392 N 0 0 0
0:00:00.00 435662 N 0 0 0
0:00:00.00 435915 N 0 0 0
0:00:00.00 436166 N 0 0 0
0:00:00.00 436417 N 0 0 0
0:00:00.00 436671 N 0 0 0
0:00:00.00 436929 N 0 0 0
0:00:00.00 437193 N 0 0 0
0:00:00.00 437452 N 0 0 0
0:00:00.00 437726 N 0 0 0
0:00:00.00 437987 N 0 0 0
0:00:00.00 438242 N 0 0 0
0:00:00.00 438490 N 0 0 0
0:00:00.00 438740 N 0 0 0
0:00:00.00 438995 N 0 0 0
0:00:00.00 439260 N 0 0 0
0:00:00.00 439526 N 0 0 0
0:00:00.00 439789 N 0 0 0
0:00:00.00 440061 N 0 0 0
0:00:00.00 440320 N 0 0 0
0:00:00.00 440573 N 0 0 0
0:00:00.00 440821 N 0 0 0
0:00:00.00 441071 N 0 0 0
0:00:00.00 441331 N 0 0 0
0:00:00.00 441601 N 0 0 0
0:00:00.00 441872 N 0 0 0
0:00:00.00 442132 N 0 0 0
0:00:00.00 442401 N 0 0 0
0:00:00.00 442655 N 0 0 0
0:00:00.00 442902 N 0 0 0
0:00:00.00 443144 N 0 0 0
0:00:00.00 443396 N 0 0 0
0:00:00.00 443654 N 0 0 0
0:00:00.00 443932 N 0 0 0
0:00:00.00 444193 N 0 0 0
0:00:00.00 444445 N 0 0 0
0:00:00.00 444712 N 0 0 0
0:00:00.00 444967 N 0 0 0
0:00:00.00 445215 N 0 0 0
0:00:00.00 445462 N 0 0 0
0:00:00.00 445720 N 0 0 0
0:00:00.00 445988 N 0 0 0
0:00:00.00 446265 N 0 0 0
0:00:00.00 446527 N 0 0 0
0:00:00.00 446782 N 0 0 0
0:00:00.00 447046 N 0 0 0
0:00:00.00 447293 N 0 0 0
0:00:00.00 447541 N 0 0 0
0:00:00.00 447790 N 0 0 0
0:00:00.00 448051 N 0 0 0
0:00:00.00 448328 N 0 0 0
0:00:00.00 448603 N 0 0 0
0:00:00.00 448859 N 0 0 0
0:00:00.00 449108 N 0 0 0
0:00:00.00 449374 N 0 0 0
0:00:00.00 449621 N 0 0 0
0:00:00.00 449871 N 0 0 0
0:00:00.00 450127 N 0 0 0
0:00:00.00 450392 N 0 0 0
0:00:00.00 450667 N 0 0 0
0:00:00.00 450935 N 0 0 0
0:00:00.00 451190 N 0 0 0
0:00:00.00 451433 N 0 0 0
0:00:00.00 451692 N 0 0 0
0:00:00.00 451943 N 0 0 0
0:00:00.00 452194 N 0 0 0
0:00:00.00 452463 N 0 0 0
0:00:00.00 452725 N 0 0 0
0:00:00.00 452998 N 0 0 0
0:00:00.00 453264 N 0 0 0
0:00:00.00 453517 N 0 0 0
0:00:00.00 453763 N 0 0 0
0:00:00.00 454025 N 0 0 0
0:00:00.00 454287 N 0 0 0
0:00:00.00 454543 N 0 0 0
0:00:00.00 454809 N 0 0 0
0:00:00.00 455075 N 0 0 0
0:00:00.00 455345 N 0 0 0
0:00:00.00 455595 N 0 0 0
0:00:00.00 455843 N 0 0 0
0:00:00.00 456090 N 0 0 0
0:00:00.00 456352 N 0 0 0
0:00:00.00 456611 N 0 0 0
0:00:00.00 456878 N 0 0 0
0:00:00.00 457143 N 0 0 0
0:00:00.00 457403 N 0 0 0
0:00:00.00 457666 N 0 0 0
0:00:00.00 457914 N 0 0 0
0:00:00.00 458159 N 0 0 0
0:00:00.00 458405 N 0 0 0
0:00:00.00 458677 N 0 0 0
0:00:00.00 458940 N 0 0 0
0:00:00.00 459199 N 0 0 0
0:00:00.00 459464 N 0 0 0
0:00:00.00 459715 N 0 0 0
0:00:00.00 459971 N 0 0 0
0:00:00.00 460223 N 0 0 0
0:00:00.00 460470 N 0 0 0
0:00:00.00 460724 N 0 0 0
0:00:00.00 460997 N 0 0 0
0:00:00.00 461265 N 0 0 0
0:00:00.00 461523 N 0 0 0
0:00:00.00 461785 N 0 0 0
0:00:00.00 462033 N 0 0 0
0:00:00.00 462286 N 0 0 0
0:00:00.00 462538 N 0 0 0
0:00:00.00 462789 N 0 0 0
0:00:00.00 463039 N 0 0 0
0:00:00.00 463317 N 0 0 0
0:00:00.00 463584 N 0 0 0
0:00:00.00 463837 N 0 0 0
0:00:00.00 464092 N 0 0 0
0:00:00.00 464341 N 0 0 0
0:00:00.00 464593 N 0 0 0
0:00:00.00 464848 N 0 0 0
0:00:00.00 465101 N 0 0 0
0:00:00.00 465355 N 0 0 0
0:00:00.00 465630 N 0 0 0
0:00:00.00 465894 N 0 0 0
0:00:00.00 466152 N 0 0 0
0:00:00.00 466399 N 0 0 0
0:00:00.00 466645 N 0 0 0
0:00:00.00 466894 N 0 0 0
0:00:00.00 467156 N 0 0 0
0:00:00.00 467402 N 0 0 0
0:00:00.00 467657 N 0 0 0
0:00:00.00 467930 N 0 0 0
0:00:00.00 468195 N 0 0 0
0:00:00.00 468450 N 0 0 0
0:00:00.00 468694 N 0 0 0
0:00:00.00 468944 N 0 0 0
0:00:00.00 469196 N 0 0 0
0:00:00.00 469454 N 0 0 0
0:00:00.00 469716 N 0 0 0
0:00:00.00 469973 N 0 0 0
0:00:00.00 470247 N 0 0 0
0:00:00.00 470514 N 0 0 0
0:00:00.00 470765 N 0 0 0
0:00:00.00 471009 N 0 0 0
0:00:00.00 471262 N 0 0 0
0:00:00.00 471519 N 0 0 0
0:00:00.00 471783 N 0 0 0
0:00:00.00 472050 N 0 0 0
0:00:00.00 472309 N 0 0 0
0:00:00.00 472579 N 0 0 0
0:00:00.00 472843 N 0 0 0
0:00:00.00 473095 N 0 0 0
0:00:00.00 473338 N 0 0 0
0:00:00.00 473590 N 0 0 0
0:00:00.00 473852 N 0 0 0
0:00:00.00 474077 N 0 0 0
0:00:00.00 474386 N 0 0 0
0:00:00.00 474649 N 0 0 0
0:00:00.00 474908 N 0 0 0
0:00:00.00 475172 N 0 0 0
0:00:00.00 475430 N 0 0 0
0:00:00.00 475665 N 0 0 0
0:00:00.00 475919 N 0 0 0
0:00:00.00 476185 N 0 0 0
0:00:00.00 476458 N 0 0 0
0:00:00.00 476718 N 0 0 0
0:00:00.00 476975 N 0 0 0
0:00:00.00 477229 N 0 0 0
0:00:00.00 477488 N 0 0 0
0:00:00.00 477737 N 0 0 0
0:00:00.00 477983 N 0 0 0
0:00:00.00 478245 N 0 0 0
0:00:00.00 478506 N 0 0 0
0:00:00.00 478777 N 0 0 0
0:00:00.00 479042 N 0 0 0
0:00:00.00 479288 N 0 0 0
0:00:00.00 479538 N 0 0 0
0:00:00.00 479799 N 0 0 0
0:00:00.00 480055 N 0 0 0
0:00:00.00 480305 N 0 0 0
0:00:00.00 480569 N 0 0 0
0:00:00.00 480834 N 0 0 0
0:00:00.00 481102 N 0 0 0
0:00:00.00 481359 N 0 0 0
0:00:00.00 481608 N 0 0 0
0:00:00.00 481855 N 0 0 0
0:00:00.00 482113 N 0 0 0
0:00:00.00 482367 N 0 0 0
0:00:00.00 482625 N 0 0 0
0:00:00.00 482891 N 0 0 0
0:00:00.00 483154 N 0 0 0
0:00:00.00 483422 N 0 0 0
0:00:00.00 483669 N 0 0 0
0:00:00.00 483916 N 0 0 0
0:00:00.00 484164 N 0 0 0
0:00:00.00 484424 N 0 0 0
0:00:00.00 484680 N 0 0 0
0:00:00.00 484943 N 0 0 0
0:00:00.00 485207 N 0 0 0
0:00:00.00 485470 N 0 0 0
0:00:00.00 485732 N 0 0 0
0:00:00.00 485974 N 0 0 0
0:00:00.00 486217 N 0 0 0
0:00:00.00 486471 N 0 0 0
0:00:00.00 486729 N 0 0 0
0:00:00.00 486989 N 0 0 0
0:00:00.00 487250 N 0 0 0
0:00:00.00 487514 N 0 0 0
0:00:00.00 487772 N 0 0 0
0:00:00.00 488030 N 0 0 0
0:00:00.00 488274 N 0 0 0
0:00:00.00 488518 N 0 0 0
0:00:00.00 488769 N 0 0 0
0:00:00.00 489043 N 0 0 0
0:00:00.00 489308 N 0 0 0
0:00:00.00 489567 N 0 0 0
0:00:00.00 489829 N 0 0 0
0:00:00.00 490084 N 0 0 0
0:00:00.00 490337 N 0 0 0
0:00:00.00 490580 N 0 0 0
0:00:00.00 490827 N 0 0 0
0:00:00.00 491079 N 0 0 0
0:00:00.00 491360 N 0 0 0
0:00:00.00 491628 N 0 0 0
0:00:00.00 491880 N 0 0 0
0:00:00.00 492137 N 0 0 0
0:00:00.00 492393 N 0 0 0
0:00:00.00 492644 N 0 0 0
0:00:00.00 492890 N 0 0 0
0:00:00.00 493139 N 0 0 0
0:00:00.00 493396 N 0 0 0
0:00:00.00 493679 N 0 0 0
0:00:00.00 493942 N 0 0 0
0:00:00.00 494197 N 0 0 0
0:00:00.00 494444 N 0 0 0
0:00:00.00 494687 N 0 0 0
0:00:00.00 494940 N 0 0 0
0:00:00.00 495192 N 0 0 0
0:00:00.00 495445 N 0 0 0
0:00:00.00 495711 N 0 0 0
0:00:00.00 495987 N 0 0 0
0:00:00.00 496249 N 0 0 0
0:00:00.00 496497 N 0 0 0
0:00:00.00 496746 N 0 0 0
0:00:00.00 496993 N 0 0 0
0:00:00.00 497245 N 0 0 0
0:00:00.00 497508 N 0 0 0
0:00:00.00 497773 N 0 0 0
0:00:00.00 498032 N 0 0 0
0:00:00.00 498305 N 0 0 0
0:00:00.00 498562 N 0 0 0
0:00:00.00 498812 N 0 0 0
0:00:00.00 499056 N 0 0 0
0:00:00.00 499304 N 0 0 0
0:00:00.00 499560 N 0 0 0
0:00:00.00 499833 N 0 0 0
0:00:00.00 500093 N 0 0 0
0:00:00.00 500350 N 0 0 0
0:00:00.00 500621 N 0 0 0
0:00:00.00 500883 N 0 0 0
0:00:00.00 501132 N 0 0 0
0:00:00.00 501371 N 0 0 0
0:00:00.00 501623 N 0 0 0
0:00:00.00 501881 N 0 0 0
0:00:00.00 502151 N 0 0 0
0:00:00.00 502413 N 0 0 0
0:00:00.00 502672 N 0 0 0
0:00:00.00 502931 N 0 0 0
0:00:00.00 503182 N 0 0 0
0:00:00.00 503429 N 0 0 0
0:00:00.00 503672 N 0 0 0
0:00:00.00 503930 N 0 0 0
0:00:00.00 504188 N 0 0 0
0:00:00.00 504459 N 0 0 0
0:00:00.00 504723 N 0 0 0
0:00:00.00 504978 N 0 0 0
0:00:00.00 505241 N 0 0 0
0:00:00.00 505494 N 0 0 0
0:00:00.00 505743 N 0 0 0
0:00:00.00 505989 N 0 0 0
0:00:00.00 506253 N 0 0 0
0:00:00.00 506515 N 0 0 0
0:00:00.00 506788 N 0 0 0
0:00:00.00 507050 N 0 0 0
0:00:00.00 507303 N 0 0 0
0:00:00.00 507555 N 0 0 0
0:00:00.00 507818 N 0 0 0
0:00:00.00 508070 N 0 0 0
0:00:00.00 508315 N 0 0 0
0:00:00.00 508587 N 0 0 0
0:00:00.00 508851 N 0 0 0
0:00:00.00 509121 N 0 0 0
0:00:00.00 509384 N 0 0 0
0:00:00.00 509627 N 0 0 0
0:00:00.00 509879 N 0 0 0
0:00:00.00 510139 N 0 0 0
0:00:00.00 510395 N 0 0 0
0:00:00.00 510652 N 0 0 0
0:00:00.00 510918 N 0 0 0
0:00:00.00 511145 N 0 0 0
0:00:00.00 511454 N 0 0 0
0:00:00.00 511703 N 0 0 0
0:00:00.00 511954 N 0 0 0
0:00:00.00 512207 N 0 0 0
0:00:00.00 512468 N 0 0 0
0:00:00.00 512728 N 0 0 0
0:00:00.00 512990 N 0 0 0
0:00:00.00 513262 N 0 0 0
0:00:00.00 513527 N 0 0 0
0:00:00.00 513785 N 0 0 0
0:00:00.00 514033 N 0 0 0
0:00:00.00 514278 N 0 0 0
0:00:00.00 514531 N 0 0 0
0:00:00.00 514792 N 0 0 0
0:00:00.00 515053 N 0 0 0
0:00:00.00 515315 N 0 0 0
0:00:00.00 515580 N 0 0 0
0:00:00.00 515843 N 0 0 0
0:00:00.00 516098 N 0 0 0
0:00:00.00 516344 N 0 0 0
0:00:00.00 516586 N 0 0 0
0:00:00.00 516842 N 0 0 0
0:00:00.00 517108 N 0 0 0
0:00:00.00 517372 N 0 0 0
0:00:00.00 517628 N 0 0 0
0:00:00.00 517893 N 0 0 0
0:00:00.00 518150 N 0 0 0
0:00:00.00 518403 N 0 0 0
0:00:00.00 518648 N 0 0 0
0:00:00.00 518890 N 0 0 0
0:00:00.00 519147 N 0 0 0
0:00:00.00 519416 N 0 0 0
0:00:00.00 519682 N 0 0 0
0:00:00.00 519939 N 0 0 0
0:00:00.00 520199 N 0 0 0
0:00:00.00 520451 N 0 0 0
0:00:00.00 520704 N 0 0 0
0:00:00.00 520949 N 0 0 0
0:00:00.00 521198 N 0 0 0
0:00:00.00 521460 N 0 0 0
0:00:00.00 521733 N 0 0 0
0:00:00.00 522006 N 0 0 0
0:00:00.00 522259 N 0 0 0
0:00:00.00 522516 N 0 0 0
0:00:00.00 522763 N 0 0 0
0:00:00.00 523017 N 0 0 0
0:00:00.00 523268 N 0 0 0
0:00:00.00 523517 N 0 0 0
0:00:00.00 523788 N 0 0 0
0:00:00.00 524056 N 0 0 0
0:00:00.00 524269 N 0 0 0
0:00:00.00 525565 N 0 0 0
0:00:00.00 525816 N 0 0 0
0:00:00.00 526076 N 0 0 0
0:00:00.00 526347 N 0 0 0
0:00:00.00 526602 N 0 0 0
0:00:00.00 526841 N 0 0 0
0:00:00.00 527083 N 0 0 0
0:00:00.00 527323 N 0 0 0
0:00:00.00 527570 N 0 0 0
0:00:00.00 527821 N 0 0 0
0:00:00.00 528078 N 0 0 0
0:00:00.00 528331 N 0 0 0
0:00:00.00 528598 N 0 0 0
0:00:00.00 528848 N 0 0 0
0:00:00.00 529090 N 0 0 0
0:00:00.00 529328 N 0 0 0
0:00:00.00 529565 N 0 0 0
0:00:00.00 529811 N 0 0 0
0:00:00.00 530063 N 0 0 0
0:00:00.00 530312 N 0 0 0
0:00:00.00 530559 N 0 0 0
0:00:00.00 530808 N 0 0 0
0:00:00.00 531055 N 0 0 0
0:00:00.00 531290 N 0 0 0
0:00:00.00 531510 N 0 0 0
0:00:00.00 531724 N 0 0 0
0:00:00.00 531939 N 0 0 0
0:00:00.00 532164 N 0 0 0
0:00:00.00 532394 N 0 0 0
0:00:00.00 532632 N 0 0 0
0:00:00.00 532872 N 0 0 0
0:00:00.00 533112 N 0 0 0
0:00:00.00 533367 N 0 0 0
0:00:00.00 533594 N 0 0 0
0:00:00.00 533818 N 0 0 0
0:00:00.00 534046 N 0 0 0
0:00:00.00 534282 N 0 0 0
0:00:00.00 534530 N 0 0 0
0:00:00.00 534780 N 0 0 0
0:00:00.00 535023 N 0 0 0
0:00:00.00 535257 N 0 0 0
0:00:00.00 535495 N 0 0 0
0:00:00.00 535740 N 0 0 0
0:00:00.00 535973 N 0 0 0
0:00:00.00 536204 N 0 0 0
0:00:00.00 536452 N 0 0 0
0:00:00.00 536703 N 0 0 0
0:00:00.00 536965 N 0 0 0
0:00:00.00 537229 N 0 0 0
0:00:00.00 537472 N 0 0 0
0:00:00.00 537710 N 0 0 0
0:00:00.00 537960 N 0 0 0
0:00:00.00 538200 N 0 0 0
0:00:00.00 538442 N 0 0 0
0:00:00.00 538684 N 0 0 0
0:00:00.00 538942 N 0 0 0
0:00:00.00 539207 N 0 0 0
0:00:00.00 539467 N 0 0 0
0:00:00.00 539716 N 0 0 0
0:00:00.00 539951 N 0 0 0
0:00:00.00 540197 N 0 0 0
0:00:00.00 540455 N 0 0 0
0:00:00.00 540709 N 0 0 0
0:00:00.00 540971 N 0 0 0
0:00:00.00 541240 N 0 0 0
0:00:00.00 541507 N 0 0 0
0:00:00.00 541781 N 0 0 0
0:00:00.00 542031 N 0 0 0
0:00:00.00 542281 N 0 0 0
0:00:00.00 542543 N 0 0 0
0:00:00.00 542811 N 0 0 0
0:00:00.00 543078 N 0 0 0
0:00:00.00 543347 N 0 0 0
0:00:00.00 543619 N 0 0 0
0:00:00.00 543891 N 0 0 0
0:00:00.00 544160 N 0 0 0
0:00:00.00 544416 N 0 0 0
0:00:00.00 544667 N 0 0 0
0:00:00.00 544938 N 0 0 0
0:00:00.00 545165 N 0 0 0
0:00:00.00 545481 N 0 0 0
0:00:00.00 545756 N 0 0 0
0:00:00.00 546024 N 0 0 0
0:00:00.00 546279 N 0 0 0
0:00:00.00 546536 N 0 0 0
0:00:00.00 546786 N 0 0 0
0:00:00.00 547038 N 0 0 0
0:00:00.00 547302 N 0 0 0
0:00:00.00 547562 N 0 0 0
0:00:00.00 547822 N 0 0 0
0:00:00.00 548088 N 0 0 0
0:00:00.00 548345 N 0 0 0
0:00:00.00 548602 N 0 0 0
0:00:00.00 548858 N 0 0 0
0:00:00.00 549110 N 0 0 0
0:00:00.00 549372 N 0 0 0
0:00:00.00 549650 N 0 0 0
0:00:00.00 549923 N 0 0 0
0:00:00.00 550188 N 0 0 0
0:00:00.00 550447 N 0 0 0
0:00:00.00 550705 N 0 0 0
0:00:00.00 550967 N 0 0 0
0:00:00.00 551216 N 0 0 0
0:00:00.00 551472 N 0 0 0
0:00:00.00 551747 N 0 0 0
0:00:00.00 552033 N 0 0 0
0:00:00.00 552300 N 0 0 0
0:00:00.00 552561 N 0 0 0
0:00:00.00 552826 N 0 0 0
0:00:00.00 553080 N 0 0 0
0:00:00.00 553342 N 0 0 0
0:00:00.00 553600 N 0 0 0
0:00:00.00 553861 N 0 0 0
0:00:00.00 554146 N 0 0 0
0:00:00.00 554420 N 0 0 0
0:00:00.00 554689 N 0 0 0
0:00:00.00 554946 N 0 0 0
0:00:00.00 555206 N 0 0 0
0:00:00.00 555468 N 0 0 0
0:00:00.00 555735 N 0 0 0
0:00:00.00 556002 N 0 0 0
0:00:00.00 556273 N 0 0 0
0:00:00.00 556565 N 0 0 0
0:00:00.00 556843 N 0 0 0
0:00:00.00 557096 N 0 0 0
0:00:00.00 557353 N 0 0 0
0:00:00.00 557611 N 0 0 0
0:00:00.00 557879 N 0 0 0
0:00:00.00 558150 N 0 0 0
0:00:00.00 558417 N 0 0 0
0:00:00.00 558696 N 0 0 0
0:00:00.00 558975 N 0 0 0
0:00:00.00 559238 N 0 0 0
0:00:00.00 559489 N 0 0 0
0:00:00.00 559742 N 0 0 0
0:00:00.00 559997 N 0 0 0
0:00:00.00 560272 N 0 0 0
0:00:00.00 560536 N 0 0 0
0:00:00.00 560805 N 0 0 0
0:00:00.00 561077 N 0 0 0
0:00:00.00 561344 N 0 0 0
0:00:00.00 561596 N 0 0 0
0:00:00.00 561842 N 0 0 0
0:00:00.00 562101 N 0 0 0
0:00:00.00 562354 N 0 0 0
0:00:00.00 562623 N 0 0 0
0:00:00.00 562895 N 0 0 0
0:00:00.00 563158 N 0 0 0
0:00:00.00 563414 N 0 0 0
0:00:00.00 563681 N 0 0 0
0:00:00.00 563933 N 0 0 0
0:00:00.00 564184 N 0 0 0
0:00:00.00 564437 N 0 0 0
0:00:00.00 564692 N 0 0 0
0:00:00.00 564960 N 0 0 0
0:00:00.00 565223 N 0 0 0
0:00:00.00 565476 N 0 0 0
0:00:00.00 565716 N 0 0 0
0:00:00.00 565965 N 0 0 0
0:00:00.00 567878 N 0 0 0
0:00:00.00 568110 N 0 0 0
0:00:00.00 568350 N 0 0 0
0:00:00.00 568584 N 0 0 0
0:00:00.00 568816 N 0 0 0
0:00:00.00 569061 N 0 0 0
0:00:00.00 569311 N 0 0 0
0:00:00.00 569543 N 0 0 0
0:00:00.00 569558 N 0 0 0
0:00:00.00 569794 N 0 0 0
0:00:00.00 569809 N 0 0 0
0:00:00.00 570028 N 0 0 0
0:00:00.00 570044 N 0 0 0
0:00:00.00 570254 N 0 0 0
0:00:00.00 570266 N 0 0 0
0:00:00.00 570509 N 0 0 0
0:00:00.00 570749 N 0 0 0
0:00:00.00 570984 N 0 0 0
0:00:00.00 571216 N 0 0 0
0:00:00.00 571433 N 0 0 0
0:00:00.00 571460 N 0 0 0
0:00:00.00 571674 N 0 0 0
0:00:00.00 571696 N 0 0 0
0:00:00.00 571921 N 0 0 0
0:00:00.00 571943 N 0 0 0
0:00:00.00 572165 N 0 0 0
0:00:00.00 572186 N 0 0 0
0:00:00.00 572397 N 0 0 0
0:00:00.00 572415 N 0 0 0
0:00:00.00 572638 N 0 0 0
0:00:00.00 572855 N 0 0 0
0:00:00.00 572877 N 0 0 0
0:00:00.00 573107 N 0 0 0
0:00:00.00 573125 N 0 0 0
0:00:00.00 573353 N 0 0 0
0:00:00.00 573375 N 0 0 0
0:00:00.00 573600 N 0 0 0
0:00:00.00 573621 N 0 0 0
0:00:00.00 573856 N 0 0 0
0:00:00.00 573879 N 0 0 0
0:00:00.00 574109 N 0 0 0
0:00:00.00 574131 N 0 0 0
0:00:00.00 574361 N 0 0 0
0:00:00.00 574383 N 0 0 0
0:00:00.00 574629 N 0 0 0
0:00:00.00 574870 N 0 0 0
0:00:00.00 575105 N 0 0 0
0:00:00.00 575123 N 0 0 0
0:00:00.00 575376 N 0 0 0
0:00:00.00 575393 N 0 0 0
0:00:00.00 575638 N 0 0 0
0:00:00.00 575660 N 0 0 0
0:00:00.00 575898 N 0 0 0
0:00:00.00 575920 N 0 0 0
0:00:00.00 576163 N 0 0 0
0:00:00.00 576185 N 0 0 0
0:00:00.00 576423 N 0 0 0
0:00:00.00 576445 N 0 0 0
0:00:00.00 576681 N 0 0 0
0:00:00.00 576703 N 0 0 0
0:00:00.00 576934 N 0 0 0
0:00:00.00 576952 N 0 0 0
0:00:00.00 577202 N 0 0 0
0:00:00.00 577442 N 0 0 0
0:00:00.00 577464 N 0 0 0
0:00:00.00 577718 N 0 0 0
0:00:00.00 577740 N 0 0 0
0:00:00.00 577993 N 0 0 0
0:00:00.00 578010 N 0 0 0
0:00:00.00 578255 N 0 0 0
0:00:00.00 578276 N 0 0 0
0:00:00.00 578541 N 0 0 0
0:00:00.00 578776 N 0 0 0
0:00:00.00 578798 N 0 0 0
0:00:00.00 579036 N 0 0 0
0:00:00.00 579058 N 0 0 0
0:00:00.00 579290 N 0 0 0
0:00:00.00 579311 N 0 0 0
0:00:00.00 579547 N 0 0 0
0:00:00.00 579563 N 0 0 0
0:00:00.00 579814 N 0 0 0
0:00:00.00 579836 N 0 0 0
0:00:00.00 580092 N 0 0 0
0:00:00.00 580114 N 0 0 0
0:00:00.00 580338 N 0 0 0
0:00:00.00 580347 N 0 0 0
0:00:00.00 580639 N 0 0 0
0:00:00.00 580894 N 0 0 0
0:00:00.00 581148 N 0 0 0
0:00:00.00 581385 N 0 0 0
0:00:00.00 581406 N 0 0 0
0:00:00.00 581639 N 0 0 0
0:00:00.00 581656 N 0 0 0
0:00:00.00 581890 N 0 0 0
0:00:00.00 581907 N 0 0 0
0:00:00.00 582162 N 0 0 0
0:00:00.00 582179 N 0 0 0
0:00:00.00 582431 N 0 0 0
0:00:00.00 582453 N 0 0 0
0:00:00.00 582712 N 0 0 0
0:00:00.00 582964 N 0 0 0
0:00:00.00 583215 N 0 0 0
0:00:00.00 583453 N 0 0 0
0:00:00.00 583468 N 0 0 0
0:00:00.00 583665 N 0 0 0
0:00:00.00 583961 N 0 0 0
0:00:00.00 583983 N 0 0 0
0:00:00.00 584218 N 0 0 0
0:00:00.00 584241 N 0 0 0
0:00:00.00 584502 N 0 0 0
0:00:00.00 584525 N 0 0 0
0:00:00.00 584776 N 0 0 0
0:00:00.00 584794 N 0 0 0
0:00:00.00 585054 N 0 0 0
0:00:00.00 585289 N 0 0 0
0:00:00.00 585307 N 0 0 0
0:00:00.00 585545 N 0 0 0
0:00:00.00 585562 N 0 0 0
0:00:00.00 585806 N 0 0 0
0:00:00.00 585824 N 0 0 0
0:00:00.00 586074 N 0 0 0
0:00:00.00 586089 N 0 0 0
0:00:00.00 586335 N 0 0 0
0:00:00.00 586357 N 0 0 0
0:00:00.00 586606 N 0 0 0
0:00:00.00 586629 N 0 0 0
0:00:00.00 586886 N 0 0 0
0:00:00.00 586909 N 0 0 0
0:00:00.00 587156 N 0 0 0
0:00:00.00 587175 N 0 0 0
0:00:00.00 587408 N 0 0 0
0:00:00.00 587426 N 0 0 0
0:00:00.00 587658 N 0 0 0
0:00:00.00 587680 N 0 0 0
0:00:00.00 587912 N 0 0 0
0:00:00.00 587929 N 0 0 0
0:00:00.00 588175 N 0 0 0
0:00:00.00 588192 N 0 0 0
0:00:00.00 588440 N 0 0 0
0:00:00.00 588458 N 0 0 0
0:00:00.00 588704 N 0 0 0
0:00:00.00 588725 N 0 0 0
0:00:00.00 588970 N 0 0 0
0:00:00.00 588993 N 0 0 0
0:00:00.00 589254 N 0 0 0
0:00:00.00 589271 N 0 0 0
0:00:00.00 589514 N 0 0 0
0:00:00.00 589531 N 0 0 0
0:00:00.00 589759 N 0 0 0
0:00:00.00 589777 N 0 0 0
0:00:00.00 590009 N 0 0 0
0:00:00.00 590030 N 0 0 0
0:00:00.00 590264 N 0 0 0
0:00:00.00 590283 N 0 0 0
0:00:00.00 590533 N 0 0 0
0:00:00.00 590551 N 0 0 0
0:00:00.00 590803 N 0 0 0
0:00:00.00 590825 N 0 0 0
0:00:00.00 591072 N 0 0 0
0:00:00.00 591093 N 0 0 0
0:00:00.00 591344 N 0 0 0
0:00:00.00 591367 N 0 0 0
0:00:00.00 591621 N 0 0 0
0:00:00.00 591642 N 0 0 0
0:00:00.00 591902 N 0 0 0
0:00:00.00 592155 N 0 0 0
0:00:00.00 592398 N 0 0 0
0:00:00.00 592419 N 0 0 0
0:00:00.00 592668 N 0 0 0
0:00:00.00 592690 N 0 0 0
0:00:00.00 592950 N 0 0 0
0:00:00.00 592972 N 0 0 0
0:00:00.00 593224 N 0 0 0
0:00:00.00 593247 N 0 0 0
0:00:00.00 593497 N 0 0 0
0:00:00.00 593518 N 0 0 0
0:00:00.00 593770 N 0 0 0
0:00:00.00 593791 N 0 0 0
0:00:00.00 594037 N 0 0 0
0:00:00.00 594055 N 0 0 0
0:00:00.00 594311 N 0 0 0
0:00:00.00 594554 N 0 0 0
0:00:00.00 594573 N 0 0 0
0:00:00.00 594822 N 0 0 0
0:00:00.00 594839 N 0 0 0
0:00:00.00 595100 N 0 0 0
0:00:00.00 595122 N 0 0 0
0:00:00.00 595386 N 0 0 0
0:00:00.00 595408 N 0 0 0
0:00:00.00 595660 N 0 0 0
0:00:00.00 595681 N 0 0 0
0:00:00.00 595922 N 0 0 0
0:00:00.00 595943 N 0 0 0
0:00:00.00 596162 N 0 0 0
0:00:00.00 596447 N 0 0 0
0:00:00.00 596468 N 0 0 0
0:00:00.00 596704 N 0 0 0
0:00:00.00 596721 N 0 0 0
0:00:00.00 596967 N 0 0 0
0:00:00.00 596989 N 0 0 0
0:00:00.00 597239 N 0 0 0
0:00:00.00 597258 N 0 0 0
0:00:00.00 597518 N 0 0 0
0:00:00.00 597540 N 0 0 0
0:00:00.00 597799 N 0 0 0
0:00:00.00 597816 N 0 0 0
0:00:00.00 598078 N 0 0 0
0:00:00.00 598316 N 0 0 0
0:00:00.00 598333 N 0 0 0
0:00:00.00 598583 N 0 0 0
0:00:00.00 598601 N 0 0 0
0:00:00.00 598835 N 0 0 0
0:00:00.00 598857 N 0 0 0
0:00:00.00 599090 N 0 0 0
0:00:00.00 599111 N 0 0 0
0:00:00.00 599359 N 0 0 0
0:00:00.00 599381 N 0 0 0
0:00:00.00 599632 N 0 0 0
0:00:00.00 599649 N 0 0 0
0:00:00.00 599903 N 0 0 0
0:00:00.00 599926 N 0 0 0
0:00:00.00 600176 N 0 0 0
0:00:00.00 600193 N 0 0 0
0:00:00.00 600450 N 0 0 0
0:00:00.00 600686 N 0 0 0
0:00:00.00 600702 N 0 0 0
0:00:00.00 600956 N 0 0 0
0:00:00.00 600974 N 0 0 0
0:00:00.00 601216 N 0 0 0
0:00:00.00 601237 N 0 0 0
0:00:00.00 601479 N 0 0 0
0:00:00.00 601501 N 0 0 0
0:00:00.00 601755 N 0 0 0
0:00:00.00 601778 N 0 0 0
0:00:00.00 602026 N 0 0 0
0:00:00.00 602048 N 0 0 0
0:00:00.00 602298 N 0 0 0
0:00:00.00 602320 N 0 0 0
0:00:00.00 602559 N 0 0 0
0:00:00.00 602577 N 0 0 0
0:00:00.00 602828 N 0 0 0
0:00:00.00 603067 N 0 0 0
0:00:00.00 603084 N 0 0 0
0:00:00.00 603330 N 0 0 0
0:00:00.00 603351 N 0 0 0
0:00:00.00 603546 N 0 0 0
0:00:00.00 603865 N 0 0 0
0:00:00.00 603887 N 0 0 0
0:00:00.00 604137 N 0 0 0
0:00:00.00 604154 N 0 0 0
0:00:00.00 604405 N 0 0 0
0:00:00.00 604428 N 0 0 0
0:00:00.00 604671 N 0 0 0
0:00:00.00 604693 N 0 0 0
0:00:00.00 604927 N 0 0 0
0:00:00.00 604945 N 0 0 0
0:00:00.00 605181 N 0 0 0
0:00:00.00 605196 N 0 0 0
0:00:00.00 605438 N 0 0 0
0:00:00.00 605459 N 0 0 0
0:00:00.00 605713 N 0 0 0
0:00:00.00 605735 N 0 0 0
0:00:00.00 605988 N 0 0 0
0:00:00.00 606009 N 0 0 0
0:00:00.00 606254 N 0 0 0
0:00:00.00 606275 N 0 0 0
0:00:00.00 606530 N 0 0 0
0:00:00.00 606545 N 0 0 0
0:00:00.00 606792 N 0 0 0
0:00:00.00 606810 N 0 0 0
0:00:00.00 607052 N 0 0 0
0:00:00.00 607073 N 0 0 0
0:00:00.00 607305 N 0 0 0
0:00:00.00 607323 N 0 0 0
0:00:00.00 607556 N 0 0 0
0:00:00.00 607571 N 0 0 0
0:00:00.00 607825 N 0 0 0
0:00:00.00 607848 N 0 0 0
0:00:00.00 608065 N 0 0 0
0:00:00.00 608373 N 0 0 0
0:00:00.00 608394 N 0 0 0
0:00:00.00 608644 N 0 0 0
0:00:00.00 608663 N 0 0 0
0:00:00.00 608914 N 0 0 0
0:00:00.00 608930 N 0 0 0
0:00:00.00 609174 N 0 0 0
0:00:00.00 609191 N 0 0 0
0:00:00.00 609452 N 0 0 0
0:00:00.00 609694 N 0 0 0
0:00:00.00 609710 N 0 0 0
0:00:00.00 609955 N 0 0 0
0:00:00.00 609972 N 0 0 0
0:00:00.00 610238 N 0 0 0
0:00:00.00 610261 N 0 0 0
0:00:00.00 610514 N 0 0 0
0:00:00.00 610537 N 0 0 0
0:00:00.00 610780 N 0 0 0
0:00:00.00 610802 N 0 0 0
0:00:00.00 611046 N 0 0 0
0:00:00.00 611068 N 0 0 0
0:00:00.00 611307 N 0 0 0
0:00:00.00 611329 N 0 0 0
0:00:00.00 611577 N 0 0 0
0:00:00.00 611594 N 0 0 0
0:00:00.00 611836 N 0 0 0
0:00:00.00 611857 N 0 0 0
0:00:00.00 612105 N 0 0 0
0:00:00.00 612123 N 0 0 0
0:00:00.00 612378 N 0 0 0
0:00:00.00 612400 N 0 0 0
0:00:00.00 612667 N 0 0 0
0:00:00.00 612682 N 0 0 0
0:00:00.00 612938 N 0 0 0
0:00:00.00 612955 N 0 0 0
0:00:00.00 613198 N 0 0 0
0:00:00.00 613214 N 0 0 0
0:00:00.00 613469 N 0 0 0
0:00:00.00 613709 N 0 0 0
0:00:00.00 613727 N 0 0 0
0:00:00.00 613977 N 0 0 0
0:00:00.00 613994 N 0 0 0
0:00:00.00 614235 N 0 0 0
0:00:00.00 614257 N 0 0 0
0:00:00.00 614505 N 0 0 0
0:00:00.00 614527 N 0 0 0
0:00:00.00 614790 N 0 0 0
0:00:00.00 614813 N 0 0 0
0:00:00.00 615067 N 0 0 0
0:00:00.00 615089 N 0 0 0
0:00:00.00 615338 N 0 0 0
0:00:00.00 615354 N 0 0 0
0:00:00.00 615597 N 0 0 0
0:00:00.00 615614 N 0 0 0
0:00:00.00 615855 N 0 0 0
0:00:00.00 615873 N 0 0 0
0:00:00.00 616119 N 0 0 0
0:00:00.00 616141 N 0 0 0
0:00:00.00 616395 N 0 0 0
0:00:00.00 616413 N 0 0 0
0:00:00.00 616671 N 0 0 0
0:00:00.00 616687 N 0 0 0
0:00:00.00 616943 N 0 0 0
0:00:00.00 616966 N 0 0 0
0:00:00.00 617233 N 0 0 0
0:00:00.00 617254 N 0 0 0
0:00:00.00 617504 N 0 0 0
0:00:00.00 617520 N 0 0 0
0:00:00.00 617759 N 0 0 0
0:00:00.00 617775 N 0 0 0
0:00:00.00 618018 N 0 0 0
0:00:00.00 618036 N 0 0 0
0:00:00.00 618276 N 0 0 0
0:00:00.00 618297 N 0 0 0
0:00:00.00 618546 N 0 0 0
0:00:00.00 618569 N 0 0 0
0:00:00.00 618822 N 0 0 0
0:00:00.00 618840 N 0 0 0
0:00:00.00 619092 N 0 0 0
0:00:00.00 619112 N 0 0 0
0:00:00.00 619367 N 0 0 0
0:00:00.00 619390 N 0 0 0
0:00:00.00 619642 N 0 0 0
0:00:00.00 619660 N 0 0 0
0:00:00.00 619916 N 0 0 0
0:00:00.00 620151 N 0 0 0
0:00:00.00 620167 N 0 0 0
0:00:00.00 620406 N 0 0 0
0:00:00.00 620423 N 0 0 0
0:00:00.00 620668 N 0 0 0
0:00:00.00 620689 N 0 0 0
0:00:00.00 620947 N 0 0 0
0:00:00.00 620964 N 0 0 0
0:00:00.00 621215 N 0 0 0
0:00:00.00 621236 N 0 0 0
0:00:00.00 621481 N 0 0 0
0:00:00.00 621503 N 0 0 0
0:00:00.00 621758 N 0 0 0
0:00:00.00 621780 N 0 0 0
0:00:00.00 622024 N 0 0 0
0:00:00.00 622041 N 0 0 0
0:00:00.00 622278 N 0 0 0
0:00:00.00 622293 N 0 0 0
0:00:00.00 622530 N 0 0 0
0:00:00.00 622552 N 0 0 0
0:00:00.00 622792 N 0 0 0
0:00:00.00 622814 N 0 0 0
0:00:00.00 623070 N 0 0 0
0:00:00.00 623094 N 0 0 0
0:00:00.00 623356 N 0 0 0
0:00:00.00 623372 N 0 0 0
0:00:00.00 623625 N 0 0 0
0:00:00.00 623643 N 0 0 0
0:00:00.00 623892 N 0 0 0
0:00:00.00 623914 N 0 0 0
0:00:00.00 624167 N 0 0 0
0:00:00.00 624185 N 0 0 0
0:00:00.00 624424 N 0 0 0
0:00:00.00 624441 N 0 0 0
0:00:00.00 624675 N 0 0 0
0:00:00.00 624692 N 0 0 0
0:00:00.00 624933 N 0 0 0
0:00:00.00 624955 N 0 0 0
0:00:00.00 625199 N 0 0 0
0:00:00.00 625222 N 0 0 0
0:00:00.00 625479 N 0 0 0
0:00:00.00 625502 N 0 0 0
0:00:00.00 625755 N 0 0 0
0:00:00.00 625774 N 0 0 0
0:00:00.00 626023 N 0 0 0
0:00:00.00 626038 N 0 0 0
0:00:00.00 626283 N 0 0 0
0:00:00.00 626305 N 0 0 0
0:00:00.00 626571 N 0 0 0
0:00:00.00 626829 N 0 0 0
0:00:00.00 627070 N 0 0 0
0:00:00.00 627085 N 0 0 0
0:00:00.00 627342 N 0 0 0
0:00:00.00 627359 N 0 0 0
0:00:00.00 627616 N 0 0 0
0:00:00.00 627638 N 0 0 0
0:00:00.00 627898 N 0 0 0
0:00:00.00 627921 N 0 0 0
0:00:00.00 628171 N 0 0 0
0:00:00.00 628193 N 0 0 0
0:00:00.00 628435 N 0 0 0
0:00:00.00 628450 N 0 0 0
0:00:00.00 628698 N 0 0 0
0:00:00.00 628715 N 0 0 0
0:00:00.00 628963 N 0 0 0
0:00:00.00 628980 N 0 0 0
0:00:00.00 629225 N 0 0 0
0:00:00.00 629241 N 0 0 0
0:00:00.00 629487 N 0 0 0
0:00:00.00 629509 N 0 0 0
0:00:00.00 629767 N 0 0 0
0:00:00.00 629785 N 0 0 0
0:00:00.00 630051 N 0 0 0
0:00:00.00 630067 N 0 0 0
0:00:00.00 630331 N 0 0 0
0:00:00.00 630348 N 0 0 0
0:00:00.00 630595 N 0 0 0
0:00:00.00 630612 N 0 0 0
0:00:00.00 630850 N 0 0 0
0:00:00.00 630867 N 0 0 0
0:00:00.00 631115 N 0 0 0
0:00:00.00 631137 N 0 0 0
0:00:00.00 631388 N 0 0 0
0:00:00.00 631404 N 0 0 0
0:00:00.00 631632 N 0 0 0
0:00:00.00 631928 N 0 0 0
0:00:00.00 631950 N 0 0 0
0:00:00.00 632203 N 0 0 0
0:00:00.00 632225 N 0 0 0
0:00:00.00 632483 N 0 0 0
0:00:00.00 632505 N 0 0 0
0:00:00.00 632752 N 0 0 0
0:00:00.00 632767 N 0 0 0
0:00:00.00 633022 N 0 0 0
0:00:00.00 633257 N 0 0 0
0:00:00.00 633275 N 0 0 0
0:00:00.00 633527 N 0 0 0
0:00:00.00 633545 N 0 0 0
0:00:00.00 633791 N 0 0 0
0:00:00.00 633809 N 0 0 0
0:00:00.00 634054 N 0 0 0
0:00:00.00 634077 N 0 0 0
0:00:00.00 634326 N 0 0 0
0:00:00.00 634349 N 0 0 0
0:00:00.00 634593 N 0 0 0
0:00:00.00 634616 N 0 0 0
0:00:00.00 634865 N 0 0 0
0:00:00.00 634883 N 0 0 0
0:00:00.00 635124 N 0 0 0
0:00:00.00 635139 N 0 0 0
0:00:00.00 635394 N 0 0 0
0:00:00.00 635637 N 0 0 0
0:00:00.00 635656 N 0 0 0
0:00:00.00 635915 N 0 0 0
0:00:00.00 635932 N 0 0 0
0:00:00.00 636191 N 0 0 0
0:00:00.00 636207 N 0 0 0
0:00:00.00 636457 N 0 0 0
0:00:00.00 636478 N 0 0 0
0:00:00.00 636733 N 0 0 0
0:00:00.00 636755 N 0 0 0
0:00:00.00 636998 N 0 0 0
0:00:00.00 637019 N 0 0 0
0:00:00.00 637266 N 0 0 0
0:00:00.00 637283 N 0 0 0
0:00:00.00 637526 N 0 0 0
0:00:00.00 637542 N 0 0 0
0:00:00.00 637780 N 0 0 0
0:00:00.00 637797 N 0 0 0
0:00:00.00 638047 N 0 0 0
0:00:00.00 638070 N 0 0 0
0:00:00.00 638335 N 0 0 0
0:00:00.00 638353 N 0 0 0
0:00:00.00 638614 N 0 0 0
0:00:00.00 638629 N 0 0 0
0:00:00.00 638880 N 0 0 0
0:00:00.00 638897 N 0 0 0
0:00:00.00 639150 N 0 0 0
0:00:00.00 639166 N 0 0 0
0:00:00.00 639417 N 0 0 0
0:00:00.00 639433 N 0 0 0
0:00:00.00 639699 N 0 0 0
0:00:00.00 639959 N 0 0 0
0:00:00.00 640204 N 0 0 0
0:00:00.00 640225 N 0 0 0
0:00:00.00 640492 N 0 0 0
0:00:00.00 640507 N 0 0 0
0:00:00.00 640759 N 0 0 0
0:00:00.00 640775 N 0 0 0
0:00:00.00 641014 N 0 0 0
0:00:00.00 641030 N 0 0 0
0:00:00.00 641260 N 0 0 0
0:00:00.00 641276 N 0 0 0
0:00:00.00 641500 N 0 0 0
0:00:00.00 641515 N 0 0 0
0:00:00.00 641736 N 0 0 0
0:00:00.00 641757 N 0 0 0
0:00:00.00 642004 N 0 0 0
0:00:00.00 642244 N 0 0 0
0:00:00.00 642482 N 0 0 0
0:00:00.00 642725 N 0 0 0
0:00:00.00 642749 N 0 0 0
0:00:00.00 642983 N 0 0 0
0:00:00.00 643002 N 0 0 0
0:00:00.00 643252 N 0 0 0
0:00:00.00 643478 N 0 0 0
0:00:00.00 643494 N 0 0 0
0:00:00.00 643731 N 0 0 0
0:00:00.00 643953 N 0 0 0
0:00:00.00 643969 N 0 0 0
0:00:00.00 644197 N 0 0 0
0:00:00.00 644216 N 0 0 0
0:00:00.00 644443 N 0 0 0
0:00:00.00 644465 N 0 0 0
0:00:00.00 644694 N 0 0 0
0:00:00.00 644712 N 0 0 0
0:00:00.00 644955 N 0 0 0
0:00:00.00 644975 N 0 0 0
0:00:00.00 645224 N 0 0 0
0:00:00.00 645240 N 0 0 0
0:00:00.00 645477 N 0 0 0
0:00:00.00 645493 N 0 0 0
0:00:00.00 645732 N 0 0 0
0:00:00.00 645958 N 0 0 0
0:00:00.00 645975 N 0 0 0
0:00:00.00 646201 N 0 0 0
0:00:00.00 646218 N 0 0 0
0:00:00.00 646454 N 0 0 0
0:00:00.00 646471 N 0 0 0
0:00:00.00 646708 N 0 0 0
0:00:00.00 646730 N 0 0 0
0:00:00.00 646976 N 0 0 0
0:00:00.00 646993 N 0 0 0
0:00:00.00 647240 N 0 0 0
0:00:00.00 647263 N 0 0 0
0:00:00.00 647522 N 0 0 0
0:00:00.00 647539 N 0 0 0
0:00:00.00 647786 N 0 0 0
0:00:00.00 647801 N 0 0 0
0:00:00.00 648051 N 0 0 0
0:00:00.00 648307 N 0 0 0
0:00:00.00 648553 N 0 0 0
0:00:00.00 648570 N 0 0 0
0:00:00.00 648781 N 0 0 0
0:00:00.00 649098 N 0 0 0
0:00:00.00 649120 N 0 0 0
0:00:00.00 649371 N 0 0 0
0:00:00.00 649389 N 0 0 0
0:00:00.00 649653 N 0 0 0
0:00:00.00 649676 N 0 0 0
0:00:00.00 649927 N 0 0 0
0:00:00.00 649942 N 0 0 0
