0:00:00.00 200 N 0 0 0
0:00:00.00 491 N 0 0 0
0:00:00.00 806 N 0 0 0
0:00:00.00 1129 N 0 0 0
0:00:00.00 1433 N 0 0 0
0:00:00.00 1741 N 0 0 0
0:00:00.00 2042 N 0 0 0
0:00:00.00 2346 N 0 0 0
0:00:00.00 2643 N 0 0 0
0:00:00.00 2964 N 0 0 0
0:00:00.00 3281 N 0 0 0
0:00:00.00 3581 N 0 0 0
0:00:00.00 3889 N 0 0 0
0:00:00.00 4197 N 0 0 0
0:00:00.00 4496 N 0 0 0
0:00:00.00 4788 N 0 0 0
0:00:00.00 5104 N 0 0 0
0:00:00.00 5421 N 0 0 0
0:00:00.00 5727 N 0 0 0
0:00:00.00 6046 N 0 0 0
0:00:00.00 6345 N 0 0 0
0:00:00.00 6640 N 0 0 0
0:00:00.00 6936 N 0 0 0
0:00:00.00 7263 N 0 0 0
0:00:00.00 7581 N 0 0 0
0:00:00.00 7886 N 0 0 0
0:00:00.00 8197 N 0 0 0
0:00:00.00 8501 N 0 0 0
0:00:00.00 8804 N 0 0 0
0:00:00.00 9106 N 0 0 0
0:00:00.00 9425 N 0 0 0
0:00:00.00 9735 N 0 0 0
0:00:00.00 10044 N 0 0 0
0:00:00.00 10364 N 0 0 0
0:00:00.00 10672 N 0 0 0
0:00:00.00 10972 N 0 0 0
0:00:00.00 11277 N 0 0 0
0:00:00.00 11606 N 0 0 0
0:00:00.00 11937 N 0 0 0
0:00:00.00 12255 N 0 0 0
0:00:00.00 12575 N 0 0 0
0:00:00.00 12890 N 0 0 0
0:00:00.00 13198 N 0 0 0
0:00:00.00 13514 N 0 0 0
0:00:00.00 13847 N 0 0 0
0:00:00.00 14169 N 0 0 0
0:00:00.00 14482 N 0 0 0
0:00:00.00 14801 N 0 0 0
0:00:00.00 15105 N 0 0 0
0:00:00.00 15404 N 0 0 0
0:00:00.00 15720 N 0 0 0
0:00:00.00 16036 N 0 0 0
0:00:00.00 16362 N 0 0 0
0:00:00.00 16666 N 0 0 0
0:00:00.00 16976 N 0 0 0
0:00:00.00 17275 N 0 0 0
0:00:00.00 17568 N 0 0 0
0:00:00.00 17888 N 0 0 0
0:00:00.00 18518 N 0 0 0
0:00:00.00 18823 N 0 0 0
0:00:00.00 19145 N 0 0 0
0:00:00.00 19452 N 0 0 0
0:00:00.00 19752 N 0 0 0
0:00:00.00 20072 N 0 0 0
0:00:00.00 20397 N 0 0 0
0:00:00.00 20722 N 0 0 0
0:00:00.00 21035 N 0 0 0
0:00:00.00 21349 N 0 0 0
0:00:00.00 21656 N 0 0 0
0:00:00.00 21941 N 0 0 0
0:00:00.00 21956 N 0 0 0
0:00:00.00 22287 N 0 0 0
0:00:00.00 22618 N 0 0 0
0:00:00.00 22944 N 0 0 0
0:00:00.00 23255 N 0 0 0
0:00:00.00 23569 N 0 0 0
0:00:00.00 23878 N 0 0 0
0:00:00.00 24184 N 0 0 0
0:00:00.00 24504 N 0 0 0
0:00:00.00 24831 N 0 0 0
0:00:00.00 25137 N 0 0 0
0:00:00.00 25456 N 0 0 0
0:00:00.00 25768 N 0 0 0
0:00:00.00 26068 N 0 0 0
0:00:00.00 26372 N 0 0 0
0:00:00.00 26697 N 0 0 0
0:00:00.00 27033 N 0 0 0
0:00:00.00 27357 N 0 0 0
0:00:00.00 27675 N 0 0 0
0:00:00.00 27985 N 0 0 0
0:00:00.00 28302 N 0 0 0
0:00:00.00 28623 N 0 0 0
0:00:00.00 28956 N 0 0 0
0:00:00.00 29284 N 0 0 0
0:00:00.00 29591 N 0 0 0
0:00:00.00 29905 N 0 0 0
0:00:00.00 30215 N 0 0 0
0:00:00.00 30524 N 0 0 0
0:00:00.00 30838 N 0 0 0
0:00:00.00 31161 N 0 0 0
0:00:00.00 31498 N 0 0 0
0:00:00.00 31814 N 0 0 0
0:00:00.00 32131 N 0 0 0
0:00:00.00 32441 N 0 0 0
0:00:00.00 32745 N 0 0 0
0:00:00.00 33073 N 0 0 0
0:00:00.00 33405 N 0 0 0
0:00:00.00 33728 N 0 0 0
0:00:00.00 34032 N 0 0 0
0:00:00.00 34339 N 0 0 0
0:00:00.00 34650 N 0 0 0
0:00:00.00 34954 N 0 0 0
0:00:00.00 35279 N 0 0 0
0:00:00.00 35607 N 0 0 0
0:00:00.00 35928 N 0 0 0
0:00:00.00 36244 N 0 0 0
0:00:00.00 36563 N 0 0 0
0:00:00.00 36870 N 0 0 0
0:00:00.00 37172 N 0 0 0
0:00:00.00 37500 N 0 0 0
0:00:00.00 37828 N 0 0 0
0:00:00.00 38138 N 0 0 0
0:00:00.00 38437 N 0 0 0
0:00:00.00 38737 N 0 0 0
0:00:00.00 39038 N 0 0 0
0:00:00.00 39340 N 0 0 0
0:00:00.00 39670 N 0 0 0
0:00:00.00 39989 N 0 0 0
0:00:00.00 40300 N 0 0 0
0:00:00.00 40933 N 0 0 0
0:00:00.00 41244 N 0 0 0
0:00:00.00 41553 N 0 0 0
0:00:00.00 41878 N 0 0 0
0:00:00.00 42207 N 0 0 0
0:00:00.00 42525 N 0 0 0
0:00:00.00 42844 N 0 0 0
0:00:00.00 43145 N 0 0 0
0:00:00.00 43445 N 0 0 0
0:00:00.00 43762 N 0 0 0
0:00:00.00 44090 N 0 0 0
0:00:00.00 44413 N 0 0 0
0:00:00.00 44718 N 0 0 0
0:00:00.00 45034 N 0 0 0
0:00:00.00 45345 N 0 0 0
0:00:00.00 45652 N 0 0 0
0:00:00.00 45971 N 0 0 0
0:00:00.00 46303 N 0 0 0
0:00:00.00 46633 N 0 0 0
0:00:00.00 46948 N 0 0 0
0:00:00.00 47260 N 0 0 0
0:00:00.00 47564 N 0 0 0
0:00:00.00 47864 N 0 0 0
0:00:00.00 48190 N 0 0 0
0:00:00.00 48519 N 0 0 0
0:00:00.00 48850 N 0 0 0
0:00:00.00 49152 N 0 0 0
0:00:00.00 49458 N 0 0 0
0:00:00.00 49765 N 0 0 0
0:00:00.00 50069 N 0 0 0
0:00:00.00 50392 N 0 0 0
0:00:00.00 50700 N 0 0 0
0:00:00.00 51004 N 0 0 0
0:00:00.00 51019 N 0 0 0
0:00:00.00 51323 N 0 0 0
0:00:00.00 51634 N 0 0 0
0:00:00.00 51943 N 0 0 0
0:00:00.00 52240 N 0 0 0
0:00:00.00 52558 N 0 0 0
0:00:00.00 52890 N 0 0 0
0:00:00.00 53210 N 0 0 0
0:00:00.00 53519 N 0 0 0
0:00:00.00 53822 N 0 0 0
0:00:00.00 54107 N 0 0 0
0:00:00.00 54432 N 0 0 0
0:00:00.00 54762 N 0 0 0
0:00:00.00 55083 N 0 0 0
0:00:00.00 55394 N 0 0 0
0:00:00.00 55705 N 0 0 0
0:00:00.00 56016 N 0 0 0
0:00:00.00 56319 N 0 0 0
0:00:00.00 56607 N 0 0 0
0:00:00.00 56924 N 0 0 0
0:00:00.00 57240 N 0 0 0
0:00:00.00 57554 N 0 0 0
0:00:00.00 57870 N 0 0 0
0:00:00.00 58173 N 0 0 0
0:00:00.00 58472 N 0 0 0
0:00:00.00 58775 N 0 0 0
0:00:00.00 59099 N 0 0 0
0:00:00.00 59418 N 0 0 0
0:00:00.00 59726 N 0 0 0
0:00:00.00 60038 N 0 0 0
0:00:00.00 60339 N 0 0 0
0:00:00.00 60643 N 0 0 0
0:00:00.00 61255 N 0 0 0
0:00:00.00 61569 N 0 0 0
0:00:00.00 61876 N 0 0 0
0:00:00.00 62191 N 0 0 0
0:00:00.00 62491 N 0 0 0
0:00:00.00 62783 N 0 0 0
0:00:00.00 63075 N 0 0 0
0:00:00.00 63390 N 0 0 0
0:00:00.00 63709 N 0 0 0
0:00:00.00 64019 N 0 0 0
0:00:00.00 64317 N 0 0 0
0:00:00.00 64615 N 0 0 0
0:00:00.00 64920 N 0 0 0
0:00:00.00 65214 N 0 0 0
0:00:00.00 65535 N 0 0 0
0:00:00.00 65846 N 0 0 0
0:00:00.00 66149 N 0 0 0
0:00:00.00 66454 N 0 0 0
0:00:00.00 66755 N 0 0 0
0:00:00.00 67042 N 0 0 0
0:00:00.00 67324 N 0 0 0
0:00:00.00 67624 N 0 0 0
0:00:00.00 67931 N 0 0 0
0:00:00.00 68226 N 0 0 0
0:00:00.00 68241 N 0 0 0
0:00:00.00 68527 N 0 0 0
0:00:00.00 68813 N 0 0 0
0:00:00.00 69095 N 0 0 0
0:00:00.00 69369 N 0 0 0
0:00:00.00 69653 N 0 0 0
0:00:00.00 69669 N 0 0 0
0:00:00.00 69981 N 0 0 0
0:00:00.00 70286 N 0 0 0
0:00:00.00 70580 N 0 0 0
0:00:00.00 70883 N 0 0 0
0:00:00.00 71182 N 0 0 0
0:00:00.00 71469 N 0 0 0
0:00:00.00 71757 N 0 0 0
0:00:00.00 72067 N 0 0 0
0:00:00.00 72377 N 0 0 0
0:00:00.00 72679 N 0 0 0
0:00:00.00 72984 N 0 0 0
0:00:00.00 73285 N 0 0 0
0:00:00.00 73580 N 0 0 0
0:00:00.00 73867 N 0 0 0
0:00:00.00 74183 N 0 0 0
0:00:00.00 74491 N 0 0 0
0:00:00.00 74795 N 0 0 0
0:00:00.00 75084 N 0 0 0
0:00:00.00 75384 N 0 0 0
0:00:00.00 75673 N 0 0 0
0:00:00.00 75961 N 0 0 0
0:00:00.00 76273 N 0 0 0
0:00:00.00 76587 N 0 0 0
0:00:00.00 76894 N 0 0 0
0:00:00.00 77194 N 0 0 0
0:00:00.00 77492 N 0 0 0
0:00:00.00 78063 N 0 0 0
0:00:00.00 78371 N 0 0 0
0:00:00.00 78682 N 0 0 0
0:00:00.00 78992 N 0 0 0
0:00:00.00 79280 N 0 0 0
0:00:00.00 79295 N 0 0 0
0:00:00.00 79601 N 0 0 0
0:00:00.00 79898 N 0 0 0
0:00:00.00 80200 N 0 0 0
0:00:00.00 80516 N 0 0 0
0:00:00.00 80832 N 0 0 0
0:00:00.00 81145 N 0 0 0
0:00:00.00 81450 N 0 0 0
0:00:00.00 81759 N 0 0 0
0:00:00.00 82063 N 0 0 0
0:00:00.00 82361 N 0 0 0
0:00:00.00 82672 N 0 0 0
0:00:00.00 82994 N 0 0 0
0:00:00.00 83320 N 0 0 0
0:00:00.00 83637 N 0 0 0
0:00:00.00 83953 N 0 0 0
0:00:00.00 84260 N 0 0 0
0:00:00.00 84563 N 0 0 0
0:00:00.00 84889 N 0 0 0
0:00:00.00 85221 N 0 0 0
0:00:00.00 85542 N 0 0 0
0:00:00.00 85849 N 0 0 0
0:00:00.00 86160 N 0 0 0
0:00:00.00 86469 N 0 0 0
0:00:00.00 86771 N 0 0 0
0:00:00.00 87090 N 0 0 0
0:00:00.00 87415 N 0 0 0
0:00:00.00 87736 N 0 0 0
0:00:00.00 88043 N 0 0 0
0:00:00.00 88354 N 0 0 0
0:00:00.00 88652 N 0 0 0
0:00:00.00 88950 N 0 0 0
0:00:00.00 89595 N 0 0 0
0:00:00.00 89912 N 0 0 0
0:00:00.00 90214 N 0 0 0
0:00:00.00 90518 N 0 0 0
0:00:00.00 90814 N 0 0 0
0:00:00.00 91115 N 0 0 0
0:00:00.00 91429 N 0 0 0
0:00:00.00 91752 N 0 0 0
0:00:00.00 92061 N 0 0 0
0:00:00.00 92365 N 0 0 0
0:00:00.00 92681 N 0 0 0
0:00:00.00 92980 N 0 0 0
0:00:00.00 93272 N 0 0 0
0:00:00.00 93592 N 0 0 0
0:00:00.00 93910 N 0 0 0
0:00:00.00 94222 N 0 0 0
0:00:00.00 94530 N 0 0 0
0:00:00.00 94832 N 0 0 0
0:00:00.00 95125 N 0 0 0
0:00:00.00 95416 N 0 0 0
0:00:00.00 95735 N 0 0 0
0:00:00.00 96054 N 0 0 0
0:00:00.00 96365 N 0 0 0
0:00:00.00 96670 N 0 0 0
0:00:00.00 96967 N 0 0 0
0:00:00.00 97268 N 0 0 0
0:00:00.00 97566 N 0 0 0
0:00:00.00 97885 N 0 0 0
0:00:00.00 98203 N 0 0 0
0:00:00.00 98524 N 0 0 0
0:00:00.00 98831 N 0 0 0
0:00:00.00 99139 N 0 0 0
0:00:00.00 99434 N 0 0 0
0:00:00.00 99723 N 0 0 0
0:00:00.00 100037 N 0 0 0
0:00:00.00 100366 N 0 0 0
0:00:00.00 100686 N 0 0 0
0:00:00.00 100990 N 0 0 0
0:00:00.00 101293 N 0 0 0
0:00:00.00 101602 N 0 0 0
0:00:00.00 101903 N 0 0 0
0:00:00.00 102224 N 0 0 0
0:00:00.00 102545 N 0 0 0
0:00:00.00 102863 N 0 0 0
0:00:00.00 103166 N 0 0 0
0:00:00.00 103463 N 0 0 0
0:00:00.00 103478 N 0 0 0
0:00:00.00 103777 N 0 0 0
0:00:00.00 104070 N 0 0 0
0:00:00.00 104389 N 0 0 0
0:00:00.00 104713 N 0 0 0
0:00:00.00 105021 N 0 0 0
0:00:00.00 105320 N 0 0 0
0:00:00.00 105622 N 0 0 0
0:00:00.00 105922 N 0 0 0
0:00:00.00 106218 N 0 0 0
0:00:00.00 106539 N 0 0 0
0:00:00.00 106858 N 0 0 0
0:00:00.00 107175 N 0 0 0
0:00:00.00 107485 N 0 0 0
0:00:00.00 107806 N 0 0 0
0:00:00.00 108112 N 0 0 0
0:00:00.00 108409 N 0 0 0
0:00:00.00 108727 N 0 0 0
0:00:00.00 109048 N 0 0 0
0:00:00.00 109366 N 0 0 0
0:00:00.00 109672 N 0 0 0
0:00:00.00 109975 N 0 0 0
0:00:00.00 110270 N 0 0 0
0:00:00.00 110563 N 0 0 0
0:00:00.00 110887 N 0 0 0
0:00:00.00 111209 N 0 0 0
0:00:00.00 111523 N 0 0 0
0:00:00.00 111827 N 0 0 0
0:00:00.00 112133 N 0 0 0
0:00:00.00 112439 N 0 0 0
0:00:00.00 112749 N 0 0 0
0:00:00.00 113066 N 0 0 0
0:00:00.00 113381 N 0 0 0
0:00:00.00 113707 N 0 0 0
0:00:00.00 114024 N 0 0 0
0:00:00.00 114336 N 0 0 0
0:00:00.00 114632 N 0 0 0
0:00:00.00 114935 N 0 0 0
0:00:00.00 115262 N 0 0 0
0:00:00.00 115587 N 0 0 0
0:00:00.00 115894 N 0 0 0
0:00:00.00 116207 N 0 0 0
0:00:00.00 116511 N 0 0 0
0:00:00.00 116818 N 0 0 0
0:00:00.00 117430 N 0 0 0
0:00:00.00 117747 N 0 0 0
0:00:00.00 118054 N 0 0 0
0:00:00.00 118367 N 0 0 0
0:00:00.00 118674 N 0 0 0
0:00:00.00 118972 N 0 0 0
0:00:00.00 119272 N 0 0 0
0:00:00.00 119591 N 0 0 0
0:00:00.00 119914 N 0 0 0
0:00:00.00 120222 N 0 0 0
0:00:00.00 120533 N 0 0 0
0:00:00.00 120838 N 0 0 0
0:00:00.00 121132 N 0 0 0
0:00:00.00 121425 N 0 0 0
0:00:00.00 121750 N 0 0 0
0:00:00.00 122069 N 0 0 0
0:00:00.00 122373 N 0 0 0
0:00:00.00 122681 N 0 0 0
0:00:00.00 122990 N 0 0 0
0:00:00.00 123296 N 0 0 0
0:00:00.00 123588 N 0 0 0
0:00:00.00 123902 N 0 0 0
0:00:00.00 124222 N 0 0 0
0:00:00.00 124527 N 0 0 0
0:00:00.00 124839 N 0 0 0
0:00:00.00 125141 N 0 0 0
0:00:00.00 125432 N 0 0 0
0:00:00.00 125723 N 0 0 0
0:00:00.00 126050 N 0 0 0
0:00:00.00 126373 N 0 0 0
0:00:00.00 126682 N 0 0 0
0:00:00.00 126984 N 0 0 0
0:00:00.00 127293 N 0 0 0
0:00:00.00 127596 N 0 0 0
0:00:00.00 127897 N 0 0 0
0:00:00.00 128221 N 0 0 0
0:00:00.00 128541 N 0 0 0
0:00:00.00 128850 N 0 0 0
0:00:00.00 129171 N 0 0 0
0:00:00.00 129477 N 0 0 0
0:00:00.00 129775 N 0 0 0
0:00:00.00 130073 N 0 0 0
0:00:00.00 130399 N 0 0 0
0:00:00.00 130721 N 0 0 0
0:00:00.00 131035 N 0 0 0
0:00:00.00 131350 N 0 0 0
0:00:00.00 131656 N 0 0 0
0:00:00.00 131964 N 0 0 0
0:00:00.00 132277 N 0 0 0
0:00:00.00 132604 N 0 0 0
0:00:00.00 132924 N 0 0 0
0:00:00.00 133234 N 0 0 0
0:00:00.00 133544 N 0 0 0
0:00:00.00 133849 N 0 0 0
0:00:00.00 134156 N 0 0 0
0:00:00.00 134459 N 0 0 0
0:00:00.00 134777 N 0 0 0
0:00:00.00 135102 N 0 0 0
0:00:00.00 135410 N 0 0 0
0:00:00.00 135719 N 0 0 0
0:00:00.00 136016 N 0 0 0
0:00:00.00 136317 N 0 0 0
0:00:00.00 136623 N 0 0 0
0:00:00.00 136952 N 0 0 0
0:00:00.00 137283 N 0 0 0
0:00:00.00 137593 N 0 0 0
0:00:00.00 137907 N 0 0 0
0:00:00.00 138215 N 0 0 0
0:00:00.00 138513 N 0 0 0
0:00:00.00 138815 N 0 0 0
0:00:00.00 139133 N 0 0 0
0:00:00.00 139457 N 0 0 0
0:00:00.00 139759 N 0 0 0
0:00:00.00 140070 N 0 0 0
0:00:00.00 140368 N 0 0 0
0:00:00.00 140665 N 0 0 0
0:00:00.00 140970 N 0 0 0
0:00:00.00 141294 N 0 0 0
0:00:00.00 141606 N 0 0 0
0:00:00.00 141906 N 0 0 0
0:00:00.00 142214 N 0 0 0
0:00:00.00 142517 N 0 0 0
0:00:00.00 142820 N 0 0 0
0:00:00.00 143126 N 0 0 0
0:00:00.00 143450 N 0 0 0
0:00:00.00 143771 N 0 0 0
0:00:00.00 144083 N 0 0 0
0:00:00.00 144402 N 0 0 0
0:00:00.00 144692 N 0 0 0
0:00:00.00 144707 N 0 0 0
0:00:00.00 145008 N 0 0 0
0:00:00.00 145323 N 0 0 0
0:00:00.00 145648 N 0 0 0
0:00:00.00 145980 N 0 0 0
0:00:00.00 146295 N 0 0 0
0:00:00.00 146598 N 0 0 0
0:00:00.00 146894 N 0 0 0
0:00:00.00 147195 N 0 0 0
0:00:00.00 147516 N 0 0 0
0:00:00.00 147843 N 0 0 0
0:00:00.00 148160 N 0 0 0
0:00:00.00 148467 N 0 0 0
0:00:00.00 148777 N 0 0 0
0:00:00.00 149079 N 0 0 0
0:00:00.00 149358 N 0 0 0
0:00:00.00 149372 N 0 0 0
0:00:00.00 149679 N 0 0 0
0:00:00.00 149694 N 0 0 0
0:00:00.00 150015 N 0 0 0
0:00:00.00 150347 N 0 0 0
0:00:00.00 150658 N 0 0 0
0:00:00.00 150963 N 0 0 0
0:00:00.00 151271 N 0 0 0
0:00:00.00 151576 N 0 0 0
0:00:00.00 151900 N 0 0 0
0:00:00.00 152231 N 0 0 0
0:00:00.00 152552 N 0 0 0
0:00:00.00 152860 N 0 0 0
0:00:00.00 153172 N 0 0 0
0:00:00.00 153484 N 0 0 0
0:00:00.00 153787 N 0 0 0
0:00:00.00 154104 N 0 0 0
0:00:00.00 154427 N 0 0 0
0:00:00.00 154748 N 0 0 0
0:00:00.00 155064 N 0 0 0
0:00:00.00 155371 N 0 0 0
0:00:00.00 155673 N 0 0 0
0:00:00.00 155973 N 0 0 0
0:00:00.00 156297 N 0 0 0
0:00:00.00 156620 N 0 0 0
0:00:00.00 156933 N 0 0 0
0:00:00.00 157239 N 0 0 0
0:00:00.00 157542 N 0 0 0
0:00:00.00 157847 N 0 0 0
0:00:00.00 158155 N 0 0 0
0:00:00.00 158485 N 0 0 0
0:00:00.00 158810 N 0 0 0
0:00:00.00 159122 N 0 0 0
0:00:00.00 159448 N 0 0 0
0:00:00.00 159762 N 0 0 0
0:00:00.00 160066 N 0 0 0
0:00:00.00 160372 N 0 0 0
0:00:00.00 160702 N 0 0 0
0:00:00.00 161025 N 0 0 0
0:00:00.00 161337 N 0 0 0
0:00:00.00 161648 N 0 0 0
0:00:00.00 161943 N 0 0 0
0:00:00.00 162241 N 0 0 0
0:00:00.00 162546 N 0 0 0
0:00:00.00 162866 N 0 0 0
0:00:00.00 163190 N 0 0 0
0:00:00.00 163498 N 0 0 0
0:00:00.00 163814 N 0 0 0
0:00:00.00 164119 N 0 0 0
0:00:00.00 164425 N 0 0 0
0:00:00.00 164733 N 0 0 0
0:00:00.00 165059 N 0 0 0
0:00:00.00 165378 N 0 0 0
0:00:00.00 165686 N 0 0 0
0:00:00.00 165997 N 0 0 0
0:00:00.00 166301 N 0 0 0
0:00:00.00 166604 N 0 0 0
0:00:00.00 166917 N 0 0 0
0:00:00.00 167240 N 0 0 0
0:00:00.00 167570 N 0 0 0
0:00:00.00 167880 N 0 0 0
0:00:00.00 168188 N 0 0 0
0:00:00.00 168490 N 0 0 0
0:00:00.00 168800 N 0 0 0
0:00:00.00 169115 N 0 0 0
0:00:00.00 169426 N 0 0 0
0:00:00.00 169732 N 0 0 0
0:00:00.00 169747 N 0 0 0
0:00:00.00 170057 N 0 0 0
0:00:00.00 170367 N 0 0 0
0:00:00.00 170672 N 0 0 0
0:00:00.00 170969 N 0 0 0
0:00:00.00 171282 N 0 0 0
0:00:00.00 171600 N 0 0 0
0:00:00.00 171927 N 0 0 0
0:00:00.00 172229 N 0 0 0
0:00:00.00 172531 N 0 0 0
0:00:00.00 172828 N 0 0 0
0:00:00.00 173120 N 0 0 0
0:00:00.00 173433 N 0 0 0
0:00:00.00 173758 N 0 0 0
0:00:00.00 174075 N 0 0 0
0:00:00.00 174376 N 0 0 0
0:00:00.00 174686 N 0 0 0
0:00:00.00 174992 N 0 0 0
0:00:00.00 175289 N 0 0 0
0:00:00.00 175597 N 0 0 0
0:00:00.00 175916 N 0 0 0
0:00:00.00 176237 N 0 0 0
0:00:00.00 176546 N 0 0 0
0:00:00.00 176861 N 0 0 0
0:00:00.00 177158 N 0 0 0
0:00:00.00 177443 N 0 0 0
0:00:00.00 177762 N 0 0 0
0:00:00.00 178085 N 0 0 0
0:00:00.00 178396 N 0 0 0
0:00:00.00 178689 N 0 0 0
0:00:00.00 178992 N 0 0 0
0:00:00.00 179287 N 0 0 0
0:00:00.00 179584 N 0 0 0
0:00:00.00 179890 N 0 0 0
0:00:00.00 180203 N 0 0 0
0:00:00.00 180519 N 0 0 0
0:00:00.00 180830 N 0 0 0
0:00:00.00 181143 N 0 0 0
0:00:00.00 181441 N 0 0 0
0:00:00.00 181735 N 0 0 0
0:00:00.00 182048 N 0 0 0
0:00:00.00 182372 N 0 0 0
0:00:00.00 182698 N 0 0 0
0:00:00.00 183010 N 0 0 0
0:00:00.00 183314 N 0 0 0
0:00:00.00 183617 N 0 0 0
0:00:00.00 183926 N 0 0 0
0:00:00.00 184244 N 0 0 0
0:00:00.00 184563 N 0 0 0
0:00:00.00 184884 N 0 0 0
0:00:00.00 185190 N 0 0 0
0:00:00.00 185499 N 0 0 0
0:00:00.00 185805 N 0 0 0
0:00:00.00 186097 N 0 0 0
0:00:00.00 186340 N 0 0 0
0:00:00.00 186722 N 0 0 0
0:00:00.00 187046 N 0 0 0
0:00:00.00 187923 N 0 0 0
0:00:00.00 188211 N 0 0 0
0:00:00.00 188507 N 0 0 0
0:00:00.00 188822 N 0 0 0
0:00:00.00 189128 N 0 0 0
0:00:00.00 189421 N 0 0 0
0:00:00.00 189726 N 0 0 0
0:00:00.00 190026 N 0 0 0
0:00:00.00 190326 N 0 0 0
0:00:00.00 190949 N 0 0 0
0:00:00.00 191271 N 0 0 0
0:00:00.00 191580 N 0 0 0
0:00:00.00 192209 N 0 0 0
0:00:00.00 192513 N 0 0 0
0:00:00.00 193159 N 0 0 0
0:00:00.00 193488 N 0 0 0
0:00:00.00 193792 N 0 0 0
0:00:00.00 194400 N 0 0 0
0:00:00.00 194710 N 0 0 0
0:00:00.00 195028 N 0 0 0
0:00:00.00 195681 N 0 0 0
0:00:00.00 195998 N 0 0 0
0:00:00.00 196315 N 0 0 0
0:00:00.00 196622 N 0 0 0
0:00:00.00 196918 N 0 0 0
0:00:00.00 197241 N 0 0 0
0:00:00.00 197559 N 0 0 0
0:00:00.00 197877 N 0 0 0
0:00:00.00 198179 N 0 0 0
0:00:00.00 198488 N 0 0 0
0:00:00.00 199386 N 0 0 0
0:00:00.00 199696 N 0 0 0
0:00:00.00 200001 N 0 0 0
0:00:00.00 200284 N 0 0 0
0:00:00.00 200299 N 0 0 0
0:00:00.00 200600 N 0 0 0
0:00:00.00 200893 N 0 0 0
0:00:00.00 201185 N 0 0 0
0:00:00.00 201488 N 0 0 0
0:00:00.00 201798 N 0 0 0
0:00:00.00 202108 N 0 0 0
0:00:00.00 202403 N 0 0 0
0:00:00.00 202703 N 0 0 0
0:00:00.00 202990 N 0 0 0
0:00:00.00 203285 N 0 0 0
0:00:00.00 203576 N 0 0 0
0:00:00.00 203891 N 0 0 0
0:00:00.00 204204 N 0 0 0
0:00:00.00 204498 N 0 0 0
0:00:00.00 204802 N 0 0 0
0:00:00.00 205100 N 0 0 0
0:00:00.00 205397 N 0 0 0
0:00:00.00 205684 N 0 0 0
0:00:00.00 205990 N 0 0 0
0:00:00.00 206287 N 0 0 0
0:00:00.00 206302 N 0 0 0
0:00:00.00 206605 N 0 0 0
0:00:00.00 206912 N 0 0 0
0:00:00.00 207218 N 0 0 0
0:00:00.00 207516 N 0 0 0
0:00:00.00 207805 N 0 0 0
0:00:00.00 208116 N 0 0 0
0:00:00.00 208431 N 0 0 0
0:00:00.00 208738 N 0 0 0
0:00:00.00 209034 N 0 0 0
0:00:00.00 209333 N 0 0 0
0:00:00.00 209629 N 0 0 0
0:00:00.00 209925 N 0 0 0
0:00:00.00 210237 N 0 0 0
0:00:00.00 210546 N 0 0 0
0:00:00.00 210857 N 0 0 0
0:00:00.00 211155 N 0 0 0
0:00:00.00 211456 N 0 0 0
0:00:00.00 211751 N 0 0 0
0:00:00.00 212037 N 0 0 0
0:00:00.00 212350 N 0 0 0
0:00:00.00 212667 N 0 0 0
0:00:00.00 213277 N 0 0 0
0:00:00.00 213578 N 0 0 0
0:00:00.00 213870 N 0 0 0
0:00:00.00 214157 N 0 0 0
0:00:00.00 214467 N 0 0 0
0:00:00.00 214783 N 0 0 0
0:00:00.00 215097 N 0 0 0
0:00:00.00 215392 N 0 0 0
0:00:00.00 215693 N 0 0 0
0:00:00.00 215992 N 0 0 0
0:00:00.00 216285 N 0 0 0
0:00:00.00 216584 N 0 0 0
0:00:00.00 216878 N 0 0 0
0:00:00.00 216893 N 0 0 0
0:00:00.00 217204 N 0 0 0
0:00:00.00 217508 N 0 0 0
0:00:00.00 217807 N 0 0 0
0:00:00.00 218098 N 0 0 0
0:00:00.00 218382 N 0 0 0
0:00:00.00 218677 N 0 0 0
0:00:00.00 218986 N 0 0 0
0:00:00.00 219296 N 0 0 0
0:00:00.00 219591 N 0 0 0
0:00:00.00 219893 N 0 0 0
0:00:00.00 220184 N 0 0 0
0:00:00.00 220470 N 0 0 0
0:00:00.00 220753 N 0 0 0
0:00:00.00 221059 N 0 0 0
0:00:00.00 221367 N 0 0 0
0:00:00.00 221670 N 0 0 0
0:00:00.00 221961 N 0 0 0
0:00:00.00 222263 N 0 0 0
0:00:00.00 222557 N 0 0 0
0:00:00.00 222845 N 0 0 0
0:00:00.00 223151 N 0 0 0
0:00:00.00 223469 N 0 0 0
0:00:00.00 223777 N 0 0 0
0:00:00.00 224071 N 0 0 0
0:00:00.00 224364 N 0 0 0
0:00:00.00 224662 N 0 0 0
0:00:00.00 224951 N 0 0 0
0:00:00.00 225258 N 0 0 0
0:00:00.00 225576 N 0 0 0
0:00:00.00 225893 N 0 0 0
0:00:00.00 226192 N 0 0 0
0:00:00.00 226504 N 0 0 0
0:00:00.00 226806 N 0 0 0
0:00:00.00 227107 N 0 0 0
0:00:00.00 227423 N 0 0 0
0:00:00.00 227744 N 0 0 0
0:00:00.00 228063 N 0 0 0
0:00:00.00 228371 N 0 0 0
0:00:00.00 228689 N 0 0 0
0:00:00.00 228988 N 0 0 0
0:00:00.00 229286 N 0 0 0
0:00:00.00 229614 N 0 0 0
0:00:00.00 229946 N 0 0 0
0:00:00.00 230246 N 0 0 0
0:00:00.00 230261 N 0 0 0
0:00:00.00 230565 N 0 0 0
0:00:00.00 230877 N 0 0 0
0:00:00.00 231185 N 0 0 0
0:00:00.00 231479 N 0 0 0
0:00:00.00 231802 N 0 0 0
0:00:00.00 232121 N 0 0 0
0:00:00.00 232745 N 0 0 0
0:00:00.00 233053 N 0 0 0
0:00:00.00 233348 N 0 0 0
0:00:00.00 233643 N 0 0 0
0:00:00.00 233965 N 0 0 0
0:00:00.00 234294 N 0 0 0
0:00:00.00 234618 N 0 0 0
0:00:00.00 234923 N 0 0 0
0:00:00.00 235512 N 0 0 0
0:00:00.00 235818 N 0 0 0
0:00:00.00 236146 N 0 0 0
0:00:00.00 236469 N 0 0 0
0:00:00.00 236782 N 0 0 0
0:00:00.00 237092 N 0 0 0
0:00:00.00 237404 N 0 0 0
0:00:00.00 237705 N 0 0 0
0:00:00.00 238003 N 0 0 0
0:00:00.00 238327 N 0 0 0
0:00:00.00 238654 N 0 0 0
0:00:00.00 238978 N 0 0 0
0:00:00.00 239289 N 0 0 0
0:00:00.00 239599 N 0 0 0
0:00:00.00 239898 N 0 0 0
0:00:00.00 240199 N 0 0 0
0:00:00.00 240532 N 0 0 0
0:00:00.00 240853 N 0 0 0
0:00:00.00 241167 N 0 0 0
0:00:00.00 241483 N 0 0 0
0:00:00.00 241792 N 0 0 0
0:00:00.00 242095 N 0 0 0
0:00:00.00 242388 N 0 0 0
0:00:00.00 242705 N 0 0 0
0:00:00.00 243005 N 0 0 0
0:00:00.00 243020 N 0 0 0
0:00:00.00 243340 N 0 0 0
0:00:00.00 243655 N 0 0 0
0:00:00.00 243957 N 0 0 0
0:00:00.00 244260 N 0 0 0
0:00:00.00 244562 N 0 0 0
0:00:00.00 244892 N 0 0 0
0:00:00.00 245206 N 0 0 0
0:00:00.00 245520 N 0 0 0
0:00:00.00 245838 N 0 0 0
0:00:00.00 246145 N 0 0 0
0:00:00.00 246449 N 0 0 0
0:00:00.00 246755 N 0 0 0
0:00:00.00 247077 N 0 0 0
0:00:00.00 247394 N 0 0 0
0:00:00.00 247701 N 0 0 0
0:00:00.00 248025 N 0 0 0
0:00:00.00 248333 N 0 0 0
0:00:00.00 248628 N 0 0 0
0:00:00.00 248929 N 0 0 0
0:00:00.00 249252 N 0 0 0
0:00:00.00 249582 N 0 0 0
0:00:00.00 249898 N 0 0 0
0:00:00.00 250212 N 0 0 0
0:00:00.00 250509 N 0 0 0
0:00:00.00 250812 N 0 0 0
0:00:00.00 251116 N 0 0 0
0:00:00.00 251441 N 0 0 0
0:00:00.00 251755 N 0 0 0
0:00:00.00 252063 N 0 0 0
0:00:00.00 252374 N 0 0 0
0:00:00.00 252677 N 0 0 0
0:00:00.00 252976 N 0 0 0
0:00:00.00 253269 N 0 0 0
0:00:00.00 253585 N 0 0 0
0:00:00.00 253904 N 0 0 0
0:00:00.00 254217 N 0 0 0
0:00:00.00 254528 N 0 0 0
0:00:00.00 254834 N 0 0 0
0:00:00.00 255140 N 0 0 0
0:00:00.00 255446 N 0 0 0
0:00:00.00 255775 N 0 0 0
0:00:00.00 256092 N 0 0 0
0:00:00.00 256381 N 0 0 0
0:00:00.00 256396 N 0 0 0
0:00:00.00 256693 N 0 0 0
0:00:00.00 256702 N 0 0 0
0:00:00.00 257001 N 0 0 0
0:00:00.00 257016 N 0 0 0
0:00:00.00 257317 N 0 0 0
0:00:00.00 257622 N 0 0 0
0:00:00.00 257942 N 0 0 0
0:00:00.00 258263 N 0 0 0
0:00:00.00 258570 N 0 0 0
0:00:00.00 258883 N 0 0 0
0:00:00.00 259182 N 0 0 0
0:00:00.00 259473 N 0 0 0
0:00:00.00 259771 N 0 0 0
0:00:00.00 260096 N 0 0 0
0:00:00.00 260414 N 0 0 0
0:00:00.00 260715 N 0 0 0
0:00:00.00 261023 N 0 0 0
0:00:00.00 261327 N 0 0 0
0:00:00.00 261626 N 0 0 0
0:00:00.00 261944 N 0 0 0
0:00:00.00 262267 N 0 0 0
0:00:00.00 262590 N 0 0 0
0:00:00.00 262911 N 0 0 0
0:00:00.00 263231 N 0 0 0
0:00:00.00 263540 N 0 0 0
0:00:00.00 263845 N 0 0 0
0:00:00.00 264165 N 0 0 0
0:00:00.00 264484 N 0 0 0
0:00:00.00 264821 N 0 0 0
0:00:00.00 265133 N 0 0 0
0:00:00.00 265441 N 0 0 0
0:00:00.00 265739 N 0 0 0
0:00:00.00 266035 N 0 0 0
0:00:00.00 266347 N 0 0 0
0:00:00.00 266664 N 0 0 0
0:00:00.00 266978 N 0 0 0
0:00:00.00 267281 N 0 0 0
0:00:00.00 267585 N 0 0 0
0:00:00.00 267884 N 0 0 0
0:00:00.00 268177 N 0 0 0
0:00:00.00 268483 N 0 0 0
0:00:00.00 268802 N 0 0 0
0:00:00.00 269131 N 0 0 0
0:00:00.00 269441 N 0 0 0
0:00:00.00 269753 N 0 0 0
0:00:00.00 270054 N 0 0 0
0:00:00.00 270356 N 0 0 0
0:00:00.00 270684 N 0 0 0
0:00:00.00 271018 N 0 0 0
0:00:00.00 271343 N 0 0 0
0:00:00.00 271650 N 0 0 0
0:00:00.00 271959 N 0 0 0
0:00:00.00 272260 N 0 0 0
0:00:00.00 272552 N 0 0 0
0:00:00.00 272867 N 0 0 0
0:00:00.00 273179 N 0 0 0
0:00:00.00 273474 N 0 0 0
0:00:00.00 273489 N 0 0 0
0:00:00.00 273783 N 0 0 0
0:00:00.00 273798 N 0 0 0
0:00:00.00 274111 N 0 0 0
0:00:00.00 274403 N 0 0 0
0:00:00.00 274688 N 0 0 0
0:00:00.00 274703 N 0 0 0
0:00:00.00 275015 N 0 0 0
0:00:00.00 275030 N 0 0 0
0:00:00.00 275357 N 0 0 0
0:00:00.00 275676 N 0 0 0
0:00:00.00 275972 N 0 0 0
0:00:00.00 276260 N 0 0 0
0:00:00.00 276275 N 0 0 0
0:00:00.00 276575 N 0 0 0
0:00:00.00 276865 N 0 0 0
0:00:00.00 277181 N 0 0 0
0:00:00.00 277503 N 0 0 0
0:00:00.00 277816 N 0 0 0
0:00:00.00 278125 N 0 0 0
0:00:00.00 278425 N 0 0 0
0:00:00.00 278724 N 0 0 0
0:00:00.00 279015 N 0 0 0
0:00:00.00 279333 N 0 0 0
0:00:00.00 279650 N 0 0 0
0:00:00.00 279969 N 0 0 0
0:00:00.00 280272 N 0 0 0
0:00:00.00 280577 N 0 0 0
0:00:00.00 280864 N 0 0 0
0:00:00.00 281157 N 0 0 0
0:00:00.00 281480 N 0 0 0
0:00:00.00 281802 N 0 0 0
0:00:00.00 282117 N 0 0 0
0:00:00.00 282422 N 0 0 0
0:00:00.00 282734 N 0 0 0
0:00:00.00 283046 N 0 0 0
0:00:00.00 283346 N 0 0 0
0:00:00.00 283659 N 0 0 0
0:00:00.00 283965 N 0 0 0
0:00:00.00 283980 N 0 0 0
0:00:00.00 284310 N 0 0 0
0:00:00.00 284619 N 0 0 0
0:00:00.00 284918 N 0 0 0
0:00:00.00 285203 N 0 0 0
0:00:00.00 285218 N 0 0 0
0:00:00.00 285517 N 0 0 0
0:00:00.00 285839 N 0 0 0
0:00:00.00 286164 N 0 0 0
0:00:00.00 286478 N 0 0 0
0:00:00.00 286776 N 0 0 0
0:00:00.00 287086 N 0 0 0
0:00:00.00 287392 N 0 0 0
0:00:00.00 287684 N 0 0 0
0:00:00.00 287994 N 0 0 0
0:00:00.00 288304 N 0 0 0
0:00:00.00 288623 N 0 0 0
0:00:00.00 288929 N 0 0 0
0:00:00.00 289235 N 0 0 0
0:00:00.00 289536 N 0 0 0
0:00:00.00 289841 N 0 0 0
0:00:00.00 290167 N 0 0 0
0:00:00.00 290504 N 0 0 0
0:00:00.00 290832 N 0 0 0
0:00:00.00 291144 N 0 0 0
0:00:00.00 291463 N 0 0 0
0:00:00.00 291772 N 0 0 0
0:00:00.00 292085 N 0 0 0
0:00:00.00 292420 N 0 0 0
0:00:00.00 292748 N 0 0 0
0:00:00.00 293060 N 0 0 0
0:00:00.00 293384 N 0 0 0
0:00:00.00 293697 N 0 0 0
0:00:00.00 294009 N 0 0 0
0:00:00.00 294310 N 0 0 0
0:00:00.00 294638 N 0 0 0
0:00:00.00 294966 N 0 0 0
0:00:00.00 295276 N 0 0 0
0:00:00.00 295589 N 0 0 0
0:00:00.00 295895 N 0 0 0
0:00:00.00 296196 N 0 0 0
0:00:00.00 296508 N 0 0 0
0:00:00.00 296834 N 0 0 0
0:00:00.00 297156 N 0 0 0
0:00:00.00 297460 N 0 0 0
0:00:00.00 297765 N 0 0 0
0:00:00.00 298062 N 0 0 0
0:00:00.00 298362 N 0 0 0
0:00:00.00 298661 N 0 0 0
0:00:00.00 298978 N 0 0 0
0:00:00.00 299283 N 0 0 0
0:00:00.00 299588 N 0 0 0
0:00:00.00 299898 N 0 0 0
0:00:00.00 300199 N 0 0 0
0:00:00.00 300491 N 0 0 0
0:00:00.00 300792 N 0 0 0
0:00:00.00 301109 N 0 0 0
0:00:00.00 301428 N 0 0 0
0:00:00.00 301732 N 0 0 0
0:00:00.00 302040 N 0 0 0
0:00:00.00 302338 N 0 0 0
0:00:00.00 302640 N 0 0 0
0:00:00.00 302934 N 0 0 0
0:00:00.00 303249 N 0 0 0
0:00:00.00 303560 N 0 0 0
0:00:00.00 303862 N 0 0 0
0:00:00.00 304167 N 0 0 0
0:00:00.00 304463 N 0 0 0
0:00:00.00 304757 N 0 0 0
0:00:00.00 305046 N 0 0 0
0:00:00.00 305356 N 0 0 0
0:00:00.00 305675 N 0 0 0
0:00:00.00 305986 N 0 0 0
0:00:00.00 306287 N 0 0 0
0:00:00.00 306586 N 0 0 0
0:00:00.00 306887 N 0 0 0
0:00:00.00 307179 N 0 0 0
0:00:00.00 307500 N 0 0 0
0:00:00.00 307811 N 0 0 0
0:00:00.00 308124 N 0 0 0
0:00:00.00 308430 N 0 0 0
0:00:00.00 308738 N 0 0 0
0:00:00.00 309023 N 0 0 0
0:00:00.00 309038 N 0 0 0
0:00:00.00 309319 N 0 0 0
0:00:00.00 309334 N 0 0 0
0:00:00.00 309649 N 0 0 0
0:00:00.00 309953 N 0 0 0
0:00:00.00 309968 N 0 0 0
0:00:00.00 310292 N 0 0 0
0:00:00.00 310607 N 0 0 0
0:00:00.00 310909 N 0 0 0
0:00:00.00 311205 N 0 0 0
0:00:00.00 311494 N 0 0 0
0:00:00.00 311806 N 0 0 0
0:00:00.00 311822 N 0 0 0
0:00:00.00 312123 N 0 0 0
0:00:00.00 312138 N 0 0 0
0:00:00.00 312444 N 0 0 0
0:00:00.00 313028 N 0 0 0
0:00:00.00 313043 N 0 0 0
0:00:00.00 313339 N 0 0 0
0:00:00.00 313633 N 0 0 0
0:00:00.00 313941 N 0 0 0
0:00:00.00 314250 N 0 0 0
0:00:00.00 314556 N 0 0 0
0:00:00.00 314841 N 0 0 0
0:00:00.00 314856 N 0 0 0
0:00:00.00 315145 N 0 0 0
0:00:00.00 315160 N 0 0 0
0:00:00.00 315451 N 0 0 0
0:00:00.00 315740 N 0 0 0
0:00:00.00 316052 N 0 0 0
0:00:00.00 316371 N 0 0 0
0:00:00.00 316693 N 0 0 0
0:00:00.00 316990 N 0 0 0
0:00:00.00 317291 N 0 0 0
0:00:00.00 317588 N 0 0 0
0:00:00.00 317880 N 0 0 0
0:00:00.00 318173 N 0 0 0
0:00:00.00 318189 N 0 0 0
0:00:00.00 318479 N 0 0 0
0:00:00.00 318494 N 0 0 0
0:00:00.00 318804 N 0 0 0
0:00:00.00 319097 N 0 0 0
0:00:00.00 319395 N 0 0 0
0:00:00.00 319684 N 0 0 0
0:00:00.00 319969 N 0 0 0
0:00:00.00 320242 N 0 0 0
0:00:00.00 320257 N 0 0 0
0:00:00.00 320555 N 0 0 0
0:00:00.00 320570 N 0 0 0
0:00:00.00 320886 N 0 0 0
0:00:00.00 321187 N 0 0 0
0:00:00.00 321475 N 0 0 0
0:00:00.00 321765 N 0 0 0
0:00:00.00 321780 N 0 0 0
0:00:00.00 322060 N 0 0 0
0:00:00.00 322075 N 0 0 0
0:00:00.00 322351 N 0 0 0
0:00:00.00 322366 N 0 0 0
0:00:00.00 322683 N 0 0 0
0:00:00.00 322993 N 0 0 0
0:00:00.00 323290 N 0 0 0
0:00:00.00 323572 N 0 0 0
0:00:00.00 323587 N 0 0 0
0:00:00.00 323889 N 0 0 0
0:00:00.00 324155 N 0 0 0
0:00:00.00 324171 N 0 0 0
0:00:00.00 324448 N 0 0 0
0:00:00.00 324753 N 0 0 0
0:00:00.00 325062 N 0 0 0
0:00:00.00 325365 N 0 0 0
0:00:00.00 325659 N 0 0 0
0:00:00.00 325958 N 0 0 0
0:00:00.00 326530 N 0 0 0
0:00:00.00 326829 N 0 0 0
0:00:00.00 326845 N 0 0 0
0:00:00.00 327160 N 0 0 0
0:00:00.00 327473 N 0 0 0
0:00:00.00 327772 N 0 0 0
0:00:00.00 328068 N 0 0 0
0:00:00.00 328361 N 0 0 0
0:00:00.00 328660 N 0 0 0
0:00:00.00 328967 N 0 0 0
0:00:00.00 329280 N 0 0 0
0:00:00.00 329907 N 0 0 0
0:00:00.00 330215 N 0 0 0
0:00:00.00 330510 N 0 0 0
0:00:00.00 330803 N 0 0 0
0:00:00.00 331107 N 0 0 0
0:00:00.00 331423 N 0 0 0
0:00:00.00 332030 N 0 0 0
0:00:00.00 332332 N 0 0 0
0:00:00.00 332621 N 0 0 0
0:00:00.00 332919 N 0 0 0
0:00:00.00 333213 N 0 0 0
0:00:00.00 333530 N 0 0 0
0:00:00.00 333843 N 0 0 0
0:00:00.00 334151 N 0 0 0
0:00:00.00 334460 N 0 0 0
0:00:00.00 334769 N 0 0 0
0:00:00.00 335079 N 0 0 0
0:00:00.00 335380 N 0 0 0
0:00:00.00 335700 N 0 0 0
0:00:00.00 336028 N 0 0 0
0:00:00.00 336342 N 0 0 0
0:00:00.00 336658 N 0 0 0
0:00:00.00 336965 N 0 0 0
0:00:00.00 337275 N 0 0 0
0:00:00.00 337583 N 0 0 0
0:00:00.00 337912 N 0 0 0
0:00:00.00 338239 N 0 0 0
0:00:00.00 338548 N 0 0 0
0:00:00.00 338856 N 0 0 0
0:00:00.00 339164 N 0 0 0
0:00:00.00 339462 N 0 0 0
0:00:00.00 339755 N 0 0 0
0:00:00.00 339770 N 0 0 0
0:00:00.00 340091 N 0 0 0
0:00:00.00 340411 N 0 0 0
0:00:00.00 340717 N 0 0 0
0:00:00.00 341026 N 0 0 0
0:00:00.00 341616 N 0 0 0
0:00:00.00 342241 N 0 0 0
0:00:00.00 342558 N 0 0 0
0:00:00.00 342859 N 0 0 0
0:00:00.00 343165 N 0 0 0
0:00:00.00 343468 N 0 0 0
0:00:00.00 343759 N 0 0 0
0:00:00.00 344068 N 0 0 0
0:00:00.00 344372 N 0 0 0
0:00:00.00 344388 N 0 0 0
0:00:00.00 344693 N 0 0 0
0:00:00.00 344708 N 0 0 0
0:00:00.00 345000 N 0 0 0
0:00:00.00 345015 N 0 0 0
0:00:00.00 345330 N 0 0 0
0:00:00.00 345627 N 0 0 0
0:00:00.00 345915 N 0 0 0
0:00:00.00 345930 N 0 0 0
0:00:00.00 346216 N 0 0 0
0:00:00.00 346231 N 0 0 0
0:00:00.00 346854 N 0 0 0
0:00:00.00 347142 N 0 0 0
0:00:00.00 347159 N 0 0 0
0:00:00.00 347444 N 0 0 0
0:00:00.00 347459 N 0 0 0
0:00:00.00 347750 N 0 0 0
0:00:00.00 348044 N 0 0 0
0:00:00.00 348345 N 0 0 0
0:00:00.00 348642 N 0 0 0
0:00:00.00 348657 N 0 0 0
0:00:00.00 348942 N 0 0 0
0:00:00.00 348958 N 0 0 0
0:00:00.00 349240 N 0 0 0
0:00:00.00 349254 N 0 0 0
0:00:00.00 349556 N 0 0 0
0:00:00.00 349849 N 0 0 0
0:00:00.00 350143 N 0 0 0
0:00:00.00 350426 N 0 0 0
0:00:00.00 350733 N 0 0 0
0:00:00.00 351042 N 0 0 0
0:00:00.00 351356 N 0 0 0
0:00:00.00 351654 N 0 0 0
0:00:00.00 351951 N 0 0 0
0:00:00.00 352246 N 0 0 0
0:00:00.00 352528 N 0 0 0
0:00:00.00 352854 N 0 0 0
0:00:00.00 353179 N 0 0 0
0:00:00.00 353493 N 0 0 0
0:00:00.00 353793 N 0 0 0
0:00:00.00 354100 N 0 0 0
0:00:00.00 354404 N 0 0 0
0:00:00.00 354701 N 0 0 0
0:00:00.00 355018 N 0 0 0
0:00:00.00 355339 N 0 0 0
0:00:00.00 355650 N 0 0 0
0:00:00.00 355957 N 0 0 0
0:00:00.00 356264 N 0 0 0
0:00:00.00 356566 N 0 0 0
0:00:00.00 356859 N 0 0 0
0:00:00.00 357183 N 0 0 0
0:00:00.00 357509 N 0 0 0
0:00:00.00 357831 N 0 0 0
0:00:00.00 358136 N 0 0 0
0:00:00.00 358444 N 0 0 0
0:00:00.00 358741 N 0 0 0
0:00:00.00 359037 N 0 0 0
0:00:00.00 359352 N 0 0 0
0:00:00.00 359664 N 0 0 0
0:00:00.00 359971 N 0 0 0
0:00:00.00 360274 N 0 0 0
0:00:00.00 360574 N 0 0 0
0:00:00.00 360865 N 0 0 0
0:00:00.00 361147 N 0 0 0
0:00:00.00 361457 N 0 0 0
0:00:00.00 361768 N 0 0 0
0:00:00.00 362083 N 0 0 0
0:00:00.00 362384 N 0 0 0
0:00:00.00 362688 N 0 0 0
0:00:00.00 362989 N 0 0 0
0:00:00.00 363286 N 0 0 0
0:00:00.00 363596 N 0 0 0
0:00:00.00 363911 N 0 0 0
0:00:00.00 364227 N 0 0 0
0:00:00.00 364530 N 0 0 0
0:00:00.00 364835 N 0 0 0
0:00:00.00 365135 N 0 0 0
0:00:00.00 365431 N 0 0 0
0:00:00.00 366044 N 0 0 0
0:00:00.00 366059 N 0 0 0
0:00:00.00 366386 N 0 0 0
0:00:00.00 366691 N 0 0 0
0:00:00.00 366997 N 0 0 0
0:00:00.00 367299 N 0 0 0
0:00:00.00 367599 N 0 0 0
0:00:00.00 367921 N 0 0 0
0:00:00.00 368251 N 0 0 0
0:00:00.00 368576 N 0 0 0
0:00:00.00 368883 N 0 0 0
0:00:00.00 369197 N 0 0 0
0:00:00.00 369509 N 0 0 0
0:00:00.00 369810 N 0 0 0
0:00:00.00 370130 N 0 0 0
0:00:00.00 370457 N 0 0 0
0:00:00.00 370775 N 0 0 0
0:00:00.00 371087 N 0 0 0
0:00:00.00 371397 N 0 0 0
0:00:00.00 371696 N 0 0 0
0:00:00.00 371993 N 0 0 0
0:00:00.00 372319 N 0 0 0
0:00:00.00 372641 N 0 0 0
0:00:00.00 372960 N 0 0 0
0:00:00.00 373270 N 0 0 0
0:00:00.00 373581 N 0 0 0
0:00:00.00 373885 N 0 0 0
0:00:00.00 374184 N 0 0 0
0:00:00.00 374508 N 0 0 0
0:00:00.00 374835 N 0 0 0
0:00:00.00 375148 N 0 0 0
0:00:00.00 375467 N 0 0 0
0:00:00.00 375778 N 0 0 0
0:00:00.00 376082 N 0 0 0
0:00:00.00 376373 N 0 0 0
0:00:00.00 376695 N 0 0 0
0:00:00.00 377013 N 0 0 0
0:00:00.00 377325 N 0 0 0
0:00:00.00 377638 N 0 0 0
0:00:00.00 377940 N 0 0 0
0:00:00.00 378238 N 0 0 0
0:00:00.00 378542 N 0 0 0
0:00:00.00 378866 N 0 0 0
0:00:00.00 379187 N 0 0 0
0:00:00.00 379495 N 0 0 0
0:00:00.00 379815 N 0 0 0
0:00:00.00 380121 N 0 0 0
0:00:00.00 380423 N 0 0 0
0:00:00.00 380726 N 0 0 0
0:00:00.00 381051 N 0 0 0
0:00:00.00 381373 N 0 0 0
0:00:00.00 381694 N 0 0 0
0:00:00.00 382007 N 0 0 0
0:00:00.00 382312 N 0 0 0
0:00:00.00 382617 N 0 0 0
0:00:00.00 382924 N 0 0 0
0:00:00.00 383250 N 0 0 0
0:00:00.00 383576 N 0 0 0
0:00:00.00 383884 N 0 0 0
0:00:00.00 384195 N 0 0 0
0:00:00.00 384503 N 0 0 0
0:00:00.00 384813 N 0 0 0
0:00:00.00 385126 N 0 0 0
0:00:00.00 385451 N 0 0 0
0:00:00.00 385782 N 0 0 0
0:00:00.00 386088 N 0 0 0
0:00:00.00 386406 N 0 0 0
0:00:00.00 386720 N 0 0 0
0:00:00.00 387029 N 0 0 0
0:00:00.00 387347 N 0 0 0
0:00:00.00 387671 N 0 0 0
0:00:00.00 387997 N 0 0 0
0:00:00.00 388310 N 0 0 0
0:00:00.00 388613 N 0 0 0
0:00:00.00 388917 N 0 0 0
0:00:00.00 389217 N 0 0 0
0:00:00.00 389540 N 0 0 0
0:00:00.00 389862 N 0 0 0
0:00:00.00 390178 N 0 0 0
0:00:00.00 390481 N 0 0 0
0:00:00.00 390791 N 0 0 0
0:00:00.00 391094 N 0 0 0
0:00:00.00 391386 N 0 0 0
0:00:00.00 391703 N 0 0 0
0:00:00.00 392026 N 0 0 0
0:00:00.00 392350 N 0 0 0
0:00:00.00 392662 N 0 0 0
0:00:00.00 392972 N 0 0 0
0:00:00.00 393272 N 0 0 0
0:00:00.00 393575 N 0 0 0
0:00:00.00 393906 N 0 0 0
0:00:00.00 394231 N 0 0 0
0:00:00.00 394552 N 0 0 0
0:00:00.00 394869 N 0 0 0
0:00:00.00 395185 N 0 0 0
0:00:00.00 395500 N 0 0 0
0:00:00.00 395809 N 0 0 0
0:00:00.00 396134 N 0 0 0
0:00:00.00 396456 N 0 0 0
0:00:00.00 396785 N 0 0 0
0:00:00.00 397109 N 0 0 0
0:00:00.00 397420 N 0 0 0
0:00:00.00 397729 N 0 0 0
0:00:00.00 398038 N 0 0 0
0:00:00.00 398367 N 0 0 0
0:00:00.00 398688 N 0 0 0
0:00:00.00 398996 N 0 0 0
0:00:00.00 399305 N 0 0 0
0:00:00.00 399606 N 0 0 0
0:00:00.00 399914 N 0 0 0
0:00:00.00 400226 N 0 0 0
0:00:00.00 400553 N 0 0 0
0:00:00.00 400878 N 0 0 0
0:00:00.00 401185 N 0 0 0
0:00:00.00 401503 N 0 0 0
0:00:00.00 401821 N 0 0 0
0:00:00.00 402130 N 0 0 0
0:00:00.00 402447 N 0 0 0
0:00:00.00 402787 N 0 0 0
0:00:00.00 403120 N 0 0 0
0:00:00.00 403434 N 0 0 0
0:00:00.00 403749 N 0 0 0
0:00:00.00 404055 N 0 0 0
0:00:00.00 404360 N 0 0 0
0:00:00.00 404693 N 0 0 0
0:00:00.00 405020 N 0 0 0
0:00:00.00 405344 N 0 0 0
0:00:00.00 405658 N 0 0 0
0:00:00.00 405978 N 0 0 0
0:00:00.00 406281 N 0 0 0
0:00:00.00 406576 N 0 0 0
0:00:00.00 406901 N 0 0 0
0:00:00.00 407223 N 0 0 0
0:00:00.00 407545 N 0 0 0
0:00:00.00 407857 N 0 0 0
0:00:00.00 408168 N 0 0 0
0:00:00.00 408468 N 0 0 0
0:00:00.00 408779 N 0 0 0
0:00:00.00 409108 N 0 0 0
0:00:00.00 409436 N 0 0 0
0:00:00.00 409751 N 0 0 0
0:00:00.00 410073 N 0 0 0
0:00:00.00 410384 N 0 0 0
0:00:00.00 410696 N 0 0 0
0:00:00.00 411005 N 0 0 0
0:00:00.00 411333 N 0 0 0
0:00:00.00 411653 N 0 0 0
0:00:00.00 411971 N 0 0 0
0:00:00.00 412287 N 0 0 0
0:00:00.00 412591 N 0 0 0
0:00:00.00 412891 N 0 0 0
0:00:00.00 413200 N 0 0 0
0:00:00.00 413530 N 0 0 0
0:00:00.00 413861 N 0 0 0
0:00:00.00 414169 N 0 0 0
0:00:00.00 414485 N 0 0 0
0:00:00.00 414794 N 0 0 0
0:00:00.00 415100 N 0 0 0
0:00:00.00 415411 N 0 0 0
0:00:00.00 415727 N 0 0 0
0:00:00.00 416050 N 0 0 0
0:00:00.00 416353 N 0 0 0
0:00:00.00 416668 N 0 0 0
0:00:00.00 416978 N 0 0 0
0:00:00.00 417276 N 0 0 0
0:00:00.00 417586 N 0 0 0
0:00:00.00 417911 N 0 0 0
0:00:00.00 418236 N 0 0 0
0:00:00.00 418543 N 0 0 0
0:00:00.00 418849 N 0 0 0
0:00:00.00 419154 N 0 0 0
0:00:00.00 419450 N 0 0 0
0:00:00.00 419775 N 0 0 0
0:00:00.00 420110 N 0 0 0
0:00:00.00 420442 N 0 0 0
0:00:00.00 420757 N 0 0 0
0:00:00.00 421079 N 0 0 0
0:00:00.00 421405 N 0 0 0
0:00:00.00 421721 N 0 0 0
0:00:00.00 422054 N 0 0 0
0:00:00.00 422390 N 0 0 0
0:00:00.00 422707 N 0 0 0
0:00:00.00 423029 N 0 0 0
0:00:00.00 423338 N 0 0 0
0:00:00.00 423642 N 0 0 0
0:00:00.00 423947 N 0 0 0
0:00:00.00 424276 N 0 0 0
0:00:00.00 424601 N 0 0 0
0:00:00.00 424910 N 0 0 0
0:00:00.00 425227 N 0 0 0
0:00:00.00 425536 N 0 0 0
0:00:00.00 425843 N 0 0 0
0:00:00.00 426155 N 0 0 0
0:00:00.00 426484 N 0 0 0
0:00:00.00 426818 N 0 0 0
0:00:00.00 427135 N 0 0 0
0:00:00.00 427460 N 0 0 0
0:00:00.00 427772 N 0 0 0
0:00:00.00 428078 N 0 0 0
0:00:00.00 428409 N 0 0 0
0:00:00.00 428748 N 0 0 0
0:00:00.00 429084 N 0 0 0
0:00:00.00 429410 N 0 0 0
0:00:00.00 429732 N 0 0 0
0:00:00.00 430054 N 0 0 0
0:00:00.00 430697 N 0 0 0
0:00:00.00 431030 N 0 0 0
0:00:00.00 431355 N 0 0 0
0:00:00.00 431684 N 0 0 0
0:00:00.00 432005 N 0 0 0
0:00:00.00 432322 N 0 0 0
0:00:00.00 432640 N 0 0 0
0:00:00.00 432973 N 0 0 0
0:00:00.00 433312 N 0 0 0
0:00:00.00 433628 N 0 0 0
0:00:00.00 433945 N 0 0 0
0:00:00.00 434254 N 0 0 0
0:00:00.00 434559 N 0 0 0
0:00:00.00 434879 N 0 0 0
0:00:00.00 435209 N 0 0 0
0:00:00.00 435534 N 0 0 0
0:00:00.00 435842 N 0 0 0
0:00:00.00 436160 N 0 0 0
0:00:00.00 436468 N 0 0 0
0:00:00.00 436770 N 0 0 0
0:00:00.00 437093 N 0 0 0
0:00:00.00 437423 N 0 0 0
0:00:00.00 437750 N 0 0 0
0:00:00.00 438064 N 0 0 0
0:00:00.00 438374 N 0 0 0
0:00:00.00 438679 N 0 0 0
0:00:00.00 438979 N 0 0 0
0:00:00.00 439307 N 0 0 0
0:00:00.00 439634 N 0 0 0
0:00:00.00 439950 N 0 0 0
0:00:00.00 440259 N 0 0 0
0:00:00.00 440573 N 0 0 0
0:00:00.00 440884 N 0 0 0
0:00:00.00 441197 N 0 0 0
0:00:00.00 441526 N 0 0 0
0:00:00.00 441852 N 0 0 0
0:00:00.00 442171 N 0 0 0
0:00:00.00 442494 N 0 0 0
0:00:00.00 442805 N 0 0 0
0:00:00.00 443107 N 0 0 0
0:00:00.00 443411 N 0 0 0
0:00:00.00 443742 N 0 0 0
0:00:00.00 444074 N 0 0 0
0:00:00.00 444393 N 0 0 0
0:00:00.00 444716 N 0 0 0
0:00:00.00 445024 N 0 0 0
0:00:00.00 445339 N 0 0 0
0:00:00.00 445657 N 0 0 0
0:00:00.00 445979 N 0 0 0
0:00:00.00 446302 N 0 0 0
0:00:00.00 446609 N 0 0 0
0:00:00.00 446919 N 0 0 0
0:00:00.00 447219 N 0 0 0
0:00:00.00 447512 N 0 0 0
0:00:00.00 447820 N 0 0 0
0:00:00.00 448139 N 0 0 0
0:00:00.00 448467 N 0 0 0
0:00:00.00 448772 N 0 0 0
0:00:00.00 449074 N 0 0 0
0:00:00.00 449373 N 0 0 0
0:00:00.00 449668 N 0 0 0
0:00:00.00 449973 N 0 0 0
0:00:00.00 450292 N 0 0 0
0:00:00.00 450605 N 0 0 0
0:00:00.00 450902 N 0 0 0
0:00:00.00 451206 N 0 0 0
0:00:00.00 451507 N 0 0 0
0:00:00.00 451805 N 0 0 0
0:00:00.00 452108 N 0 0 0
0:00:00.00 452427 N 0 0 0
0:00:00.00 452746 N 0 0 0
0:00:00.00 453061 N 0 0 0
0:00:00.00 453382 N 0 0 0
0:00:00.00 453689 N 0 0 0
0:00:00.00 453986 N 0 0 0
0:00:00.00 454306 N 0 0 0
0:00:00.00 454639 N 0 0 0
0:00:00.00 454958 N 0 0 0
0:00:00.00 455263 N 0 0 0
0:00:00.00 455577 N 0 0 0
0:00:00.00 455877 N 0 0 0
0:00:00.00 456178 N 0 0 0
0:00:00.00 456491 N 0 0 0
0:00:00.00 456810 N 0 0 0
0:00:00.00 457128 N 0 0 0
0:00:00.00 457439 N 0 0 0
0:00:00.00 457746 N 0 0 0
0:00:00.00 458046 N 0 0 0
0:00:00.00 458331 N 0 0 0
0:00:00.00 458648 N 0 0 0
0:00:00.00 458962 N 0 0 0
0:00:00.00 459279 N 0 0 0
0:00:00.00 459575 N 0 0 0
0:00:00.00 459870 N 0 0 0
0:00:00.00 460157 N 0 0 0
0:00:00.00 460449 N 0 0 0
0:00:00.00 460750 N 0 0 0
0:00:00.00 461063 N 0 0 0
0:00:00.00 461371 N 0 0 0
0:00:00.00 461662 N 0 0 0
0:00:00.00 461966 N 0 0 0
0:00:00.00 462263 N 0 0 0
0:00:00.00 462561 N 0 0 0
0:00:00.00 462854 N 0 0 0
0:00:00.00 463159 N 0 0 0
0:00:00.00 463477 N 0 0 0
0:00:00.00 463776 N 0 0 0
0:00:00.00 464083 N 0 0 0
0:00:00.00 464367 N 0 0 0
0:00:00.00 464651 N 0 0 0
0:00:00.00 464931 N 0 0 0
0:00:00.00 465238 N 0 0 0
0:00:00.00 465548 N 0 0 0
0:00:00.00 465851 N 0 0 0
0:00:00.00 466145 N 0 0 0
0:00:00.00 466447 N 0 0 0
0:00:00.00 466749 N 0 0 0
0:00:00.00 467039 N 0 0 0
0:00:00.00 467351 N 0 0 0
0:00:00.00 467666 N 0 0 0
0:00:00.00 467983 N 0 0 0
0:00:00.00 468288 N 0 0 0
0:00:00.00 468592 N 0 0 0
0:00:00.00 468885 N 0 0 0
0:00:00.00 469171 N 0 0 0
0:00:00.00 469482 N 0 0 0
0:00:00.00 469804 N 0 0 0
0:00:00.00 470117 N 0 0 0
0:00:00.00 470411 N 0 0 0
0:00:00.00 470713 N 0 0 0
0:00:00.00 471007 N 0 0 0
0:00:00.00 471295 N 0 0 0
0:00:00.00 471605 N 0 0 0
0:00:00.00 471917 N 0 0 0
0:00:00.00 472226 N 0 0 0
0:00:00.00 472525 N 0 0 0
0:00:00.00 472831 N 0 0 0
0:00:00.00 473123 N 0 0 0
0:00:00.00 473414 N 0 0 0
0:00:00.00 473699 N 0 0 0
0:00:00.00 473713 N 0 0 0
0:00:00.00 474025 N 0 0 0
0:00:00.00 474336 N 0 0 0
0:00:00.00 474634 N 0 0 0
0:00:00.00 474929 N 0 0 0
0:00:00.00 475209 N 0 0 0
0:00:00.00 475503 N 0 0 0
0:00:00.00 475796 N 0 0 0
0:00:00.00 476103 N 0 0 0
0:00:00.00 476406 N 0 0 0
0:00:00.00 476701 N 0 0 0
0:00:00.00 477003 N 0 0 0
0:00:00.00 477297 N 0 0 0
0:00:00.00 477590 N 0 0 0
0:00:00.00 477874 N 0 0 0
0:00:00.00 478181 N 0 0 0
0:00:00.00 478493 N 0 0 0
0:00:00.00 478808 N 0 0 0
0:00:00.00 479107 N 0 0 0
0:00:00.00 479411 N 0 0 0
0:00:00.00 479708 N 0 0 0
0:00:00.00 480005 N 0 0 0
0:00:00.00 480329 N 0 0 0
0:00:00.00 480653 N 0 0 0
0:00:00.00 480965 N 0 0 0
0:00:00.00 481269 N 0 0 0
0:00:00.00 481577 N 0 0 0
0:00:00.00 481883 N 0 0 0
0:00:00.00 482179 N 0 0 0
0:00:00.00 482487 N 0 0 0
0:00:00.00 482801 N 0 0 0
0:00:00.00 483112 N 0 0 0
0:00:00.00 483413 N 0 0 0
0:00:00.00 483715 N 0 0 0
0:00:00.00 484008 N 0 0 0
0:00:00.00 484298 N 0 0 0
0:00:00.00 484614 N 0 0 0
0:00:00.00 484938 N 0 0 0
0:00:00.00 485259 N 0 0 0
0:00:00.00 485557 N 0 0 0
0:00:00.00 485862 N 0 0 0
0:00:00.00 486152 N 0 0 0
0:00:00.00 486444 N 0 0 0
0:00:00.00 486762 N 0 0 0
0:00:00.00 487077 N 0 0 0
0:00:00.00 487386 N 0 0 0
0:00:00.00 487687 N 0 0 0
0:00:00.00 487993 N 0 0 0
0:00:00.00 488290 N 0 0 0
0:00:00.00 488578 N 0 0 0
0:00:00.00 488888 N 0 0 0
0:00:00.00 489200 N 0 0 0
0:00:00.00 489516 N 0 0 0
0:00:00.00 489807 N 0 0 0
0:00:00.00 490095 N 0 0 0
0:00:00.00 490381 N 0 0 0
0:00:00.00 490660 N 0 0 0
0:00:00.00 490947 N 0 0 0
0:00:00.00 491250 N 0 0 0
0:00:00.00 491539 N 0 0 0
0:00:00.00 491817 N 0 0 0
0:00:00.00 492103 N 0 0 0
0:00:00.00 492385 N 0 0 0
0:00:00.00 492663 N 0 0 0
0:00:00.00 492932 N 0 0 0
0:00:00.00 493225 N 0 0 0
0:00:00.00 493516 N 0 0 0
0:00:00.00 493819 N 0 0 0
0:00:00.00 494102 N 0 0 0
0:00:00.00 494389 N 0 0 0
0:00:00.00 494673 N 0 0 0
0:00:00.00 494958 N 0 0 0
0:00:00.00 495244 N 0 0 0
0:00:00.00 495557 N 0 0 0
0:00:00.00 495872 N 0 0 0
0:00:00.00 496165 N 0 0 0
0:00:00.00 496468 N 0 0 0
0:00:00.00 496756 N 0 0 0
0:00:00.00 497051 N 0 0 0
0:00:00.00 497323 N 0 0 0
0:00:00.00 497614 N 0 0 0
0:00:00.00 497915 N 0 0 0
0:00:00.00 498203 N 0 0 0
0:00:00.00 498488 N 0 0 0
0:00:00.00 498764 N 0 0 0
0:00:00.00 499036 N 0 0 0
0:00:00.00 499309 N 0 0 0
0:00:00.00 499584 N 0 0 0
0:00:00.00 499881 N 0 0 0
0:00:00.00 500177 N 0 0 0
0:00:00.00 500463 N 0 0 0
0:00:00.00 500742 N 0 0 0
0:00:00.00 501016 N 0 0 0
0:00:00.00 501291 N 0 0 0
0:00:00.00 501572 N 0 0 0
0:00:00.00 501870 N 0 0 0
0:00:00.00 502161 N 0 0 0
0:00:00.00 502450 N 0 0 0
0:00:00.00 502710 N 0 0 0
0:00:00.00 502725 N 0 0 0
0:00:00.00 503015 N 0 0 0
0:00:00.00 503293 N 0 0 0
0:00:00.00 503570 N 0 0 0
0:00:00.00 503837 N 0 0 0
0:00:00.00 504131 N 0 0 0
0:00:00.00 504421 N 0 0 0
0:00:00.00 504716 N 0 0 0
0:00:00.00 505001 N 0 0 0
0:00:00.00 505283 N 0 0 0
0:00:00.00 505558 N 0 0 0
0:00:00.00 505833 N 0 0 0
0:00:00.00 506127 N 0 0 0
0:00:00.00 506424 N 0 0 0
0:00:00.00 506719 N 0 0 0
0:00:00.00 506997 N 0 0 0
0:00:00.00 507289 N 0 0 0
0:00:00.00 507566 N 0 0 0
0:00:00.00 507843 N 0 0 0
0:00:00.00 508117 N 0 0 0
0:00:00.00 508405 N 0 0 0
0:00:00.00 508694 N 0 0 0
0:00:00.00 508988 N 0 0 0
0:00:00.00 509271 N 0 0 0
0:00:00.00 509553 N 0 0 0
0:00:00.00 509825 N 0 0 0
0:00:00.00 510100 N 0 0 0
0:00:00.00 510381 N 0 0 0
0:00:00.00 510681 N 0 0 0
0:00:00.00 510980 N 0 0 0
0:00:00.00 511269 N 0 0 0
0:00:00.00 511562 N 0 0 0
0:00:00.00 511843 N 0 0 0
0:00:00.00 512128 N 0 0 0
0:00:00.00 512405 N 0 0 0
0:00:00.00 512704 N 0 0 0
0:00:00.00 512998 N 0 0 0
0:00:00.00 513298 N 0 0 0
0:00:00.00 513581 N 0 0 0
0:00:00.00 513874 N 0 0 0
0:00:00.00 514163 N 0 0 0
0:00:00.00 514445 N 0 0 0
0:00:00.00 514732 N 0 0 0
0:00:00.00 515039 N 0 0 0
0:00:00.00 515347 N 0 0 0
0:00:00.00 515640 N 0 0 0
0:00:00.00 515932 N 0 0 0
0:00:00.00 516225 N 0 0 0
0:00:00.00 516512 N 0 0 0
0:00:00.00 516804 N 0 0 0
0:00:00.00 517123 N 0 0 0
0:00:00.00 517432 N 0 0 0
0:00:00.00 517735 N 0 0 0
0:00:00.00 518038 N 0 0 0
0:00:00.00 518339 N 0 0 0
0:00:00.00 518629 N 0 0 0
0:00:00.00 518913 N 0 0 0
0:00:00.00 519220 N 0 0 0
0:00:00.00 519510 N 0 0 0
0:00:00.00 519525 N 0 0 0
0:00:00.00 519836 N 0 0 0
0:00:00.00 520139 N 0 0 0
0:00:00.00 520434 N 0 0 0
0:00:00.00 520723 N 0 0 0
0:00:00.00 521004 N 0 0 0
0:00:00.00 521313 N 0 0 0
0:00:00.00 521614 N 0 0 0
0:00:00.00 522187 N 0 0 0
0:00:00.00 522477 N 0 0 0
0:00:00.00 522758 N 0 0 0
0:00:00.00 523040 N 0 0 0
0:00:00.00 523317 N 0 0 0
0:00:00.00 523612 N 0 0 0
0:00:00.00 523908 N 0 0 0
0:00:00.00 524208 N 0 0 0
0:00:00.00 524501 N 0 0 0
0:00:00.00 524794 N 0 0 0
0:00:00.00 525078 N 0 0 0
0:00:00.00 525360 N 0 0 0
0:00:00.00 525658 N 0 0 0
0:00:00.00 525967 N 0 0 0
0:00:00.00 526275 N 0 0 0
0:00:00.00 526566 N 0 0 0
0:00:00.00 526853 N 0 0 0
0:00:00.00 527152 N 0 0 0
0:00:00.00 527447 N 0 0 0
0:00:00.00 527748 N 0 0 0
0:00:00.00 528065 N 0 0 0
0:00:00.00 528384 N 0 0 0
0:00:00.00 528684 N 0 0 0
0:00:00.00 528995 N 0 0 0
0:00:00.00 529295 N 0 0 0
0:00:00.00 529589 N 0 0 0
0:00:00.00 529885 N 0 0 0
0:00:00.00 530202 N 0 0 0
0:00:00.00 530520 N 0 0 0
0:00:00.00 530820 N 0 0 0
0:00:00.00 531116 N 0 0 0
0:00:00.00 531408 N 0 0 0
0:00:00.00 531703 N 0 0 0
0:00:00.00 532007 N 0 0 0
0:00:00.00 532325 N 0 0 0
0:00:00.00 532639 N 0 0 0
0:00:00.00 532938 N 0 0 0
0:00:00.00 533248 N 0 0 0
0:00:00.00 533548 N 0 0 0
0:00:00.00 533844 N 0 0 0
0:00:00.00 534137 N 0 0 0
0:00:00.00 534452 N 0 0 0
0:00:00.00 534758 N 0 0 0
0:00:00.00 535045 N 0 0 0
0:00:00.00 535060 N 0 0 0
0:00:00.00 535368 N 0 0 0
0:00:00.00 535664 N 0 0 0
0:00:00.00 535952 N 0 0 0
0:00:00.00 536240 N 0 0 0
0:00:00.00 536544 N 0 0 0
0:00:00.00 536850 N 0 0 0
0:00:00.00 537152 N 0 0 0
0:00:00.00 537448 N 0 0 0
0:00:00.00 537738 N 0 0 0
0:00:00.00 538033 N 0 0 0
0:00:00.00 538328 N 0 0 0
0:00:00.00 538643 N 0 0 0
0:00:00.00 538961 N 0 0 0
0:00:00.00 539281 N 0 0 0
0:00:00.00 539592 N 0 0 0
0:00:00.00 539901 N 0 0 0
0:00:00.00 540201 N 0 0 0
0:00:00.00 540500 N 0 0 0
0:00:00.00 540814 N 0 0 0
0:00:00.00 541139 N 0 0 0
0:00:00.00 541459 N 0 0 0
0:00:00.00 541766 N 0 0 0
0:00:00.00 542072 N 0 0 0
0:00:00.00 542383 N 0 0 0
0:00:00.00 542682 N 0 0 0
0:00:00.00 543004 N 0 0 0
0:00:00.00 543327 N 0 0 0
0:00:00.00 543644 N 0 0 0
0:00:00.00 543949 N 0 0 0
0:00:00.00 544257 N 0 0 0
0:00:00.00 544552 N 0 0 0
0:00:00.00 544845 N 0 0 0
0:00:00.00 545161 N 0 0 0
0:00:00.00 545485 N 0 0 0
0:00:00.00 545800 N 0 0 0
0:00:00.00 546104 N 0 0 0
0:00:00.00 546407 N 0 0 0
0:00:00.00 546698 N 0 0 0
0:00:00.00 546988 N 0 0 0
0:00:00.00 547310 N 0 0 0
0:00:00.00 547628 N 0 0 0
0:00:00.00 547940 N 0 0 0
0:00:00.00 548240 N 0 0 0
0:00:00.00 548547 N 0 0 0
0:00:00.00 548843 N 0 0 0
0:00:00.00 549135 N 0 0 0
0:00:00.00 549448 N 0 0 0
0:00:00.00 549769 N 0 0 0
0:00:00.00 550074 N 0 0 0
0:00:00.00 550374 N 0 0 0
0:00:00.00 550680 N 0 0 0
0:00:00.00 550975 N 0 0 0
0:00:00.00 551266 N 0 0 0
0:00:00.00 551593 N 0 0 0
0:00:00.00 551915 N 0 0 0
0:00:00.00 552234 N 0 0 0
0:00:00.00 552538 N 0 0 0
0:00:00.00 552852 N 0 0 0
0:00:00.00 553150 N 0 0 0
0:00:00.00 553436 N 0 0 0
0:00:00.00 553747 N 0 0 0
0:00:00.00 554062 N 0 0 0
0:00:00.00 554373 N 0 0 0
0:00:00.00 554680 N 0 0 0
0:00:00.00 554981 N 0 0 0
0:00:00.00 555264 N 0 0 0
0:00:00.00 555548 N 0 0 0
0:00:00.00 555852 N 0 0 0
0:00:00.00 556158 N 0 0 0
0:00:00.00 556462 N 0 0 0
0:00:00.00 556753 N 0 0 0
0:00:00.00 557047 N 0 0 0
0:00:00.00 557332 N 0 0 0
0:00:00.00 557624 N 0 0 0
0:00:00.00 557917 N 0 0 0
0:00:00.00 558216 N 0 0 0
0:00:00.00 558527 N 0 0 0
0:00:00.00 558829 N 0 0 0
0:00:00.00 559135 N 0 0 0
0:00:00.00 559436 N 0 0 0
0:00:00.00 559731 N 0 0 0
0:00:00.00 560027 N 0 0 0
0:00:00.00 560343 N 0 0 0
0:00:00.00 560661 N 0 0 0
0:00:00.00 560966 N 0 0 0
0:00:00.00 561268 N 0 0 0
0:00:00.00 561565 N 0 0 0
0:00:00.00 561854 N 0 0 0
0:00:00.00 562137 N 0 0 0
0:00:00.00 562454 N 0 0 0
0:00:00.00 562765 N 0 0 0
0:00:00.00 563070 N 0 0 0
0:00:00.00 563361 N 0 0 0
0:00:00.00 563663 N 0 0 0
0:00:00.00 563957 N 0 0 0
0:00:00.00 564245 N 0 0 0
0:00:00.00 564552 N 0 0 0
0:00:00.00 564868 N 0 0 0
0:00:00.00 565179 N 0 0 0
0:00:00.00 565477 N 0 0 0
0:00:00.00 565773 N 0 0 0
0:00:00.00 566059 N 0 0 0
0:00:00.00 566338 N 0 0 0
0:00:00.00 566647 N 0 0 0
0:00:00.00 566955 N 0 0 0
0:00:00.00 567265 N 0 0 0
0:00:00.00 567558 N 0 0 0
0:00:00.00 567858 N 0 0 0
0:00:00.00 568147 N 0 0 0
0:00:00.00 568445 N 0 0 0
0:00:00.00 568737 N 0 0 0
0:00:00.00 569048 N 0 0 0
0:00:00.00 569359 N 0 0 0
0:00:00.00 569661 N 0 0 0
0:00:00.00 569967 N 0 0 0
0:00:00.00 570265 N 0 0 0
0:00:00.00 570555 N 0 0 0
0:00:00.00 570851 N 0 0 0
0:00:00.00 571162 N 0 0 0
0:00:00.00 571477 N 0 0 0
0:00:00.00 571777 N 0 0 0
0:00:00.00 572086 N 0 0 0
0:00:00.00 572385 N 0 0 0
0:00:00.00 572687 N 0 0 0
0:00:00.00 572981 N 0 0 0
0:00:00.00 573293 N 0 0 0
0:00:00.00 573601 N 0 0 0
0:00:00.00 573903 N 0 0 0
0:00:00.00 574197 N 0 0 0
0:00:00.00 574493 N 0 0 0
0:00:00.00 574786 N 0 0 0
0:00:00.00 575072 N 0 0 0
0:00:00.00 575382 N 0 0 0
0:00:00.00 575703 N 0 0 0
0:00:00.00 576013 N 0 0 0
0:00:00.00 576309 N 0 0 0
0:00:00.00 576608 N 0 0 0
0:00:00.00 576905 N 0 0 0
0:00:00.00 577193 N 0 0 0
0:00:00.00 577507 N 0 0 0
0:00:00.00 577821 N 0 0 0
0:00:00.00 578134 N 0 0 0
0:00:00.00 578432 N 0 0 0
0:00:00.00 578739 N 0 0 0
0:00:00.00 579036 N 0 0 0
0:00:00.00 579324 N 0 0 0
0:00:00.00 579633 N 0 0 0
0:00:00.00 579951 N 0 0 0
0:00:00.00 580270 N 0 0 0
0:00:00.00 580573 N 0 0 0
0:00:00.00 580877 N 0 0 0
0:00:00.00 581175 N 0 0 0
0:00:00.00 581466 N 0 0 0
0:00:00.00 581780 N 0 0 0
0:00:00.00 582095 N 0 0 0
0:00:00.00 582404 N 0 0 0
0:00:00.00 582698 N 0 0 0
0:00:00.00 583002 N 0 0 0
0:00:00.00 583296 N 0 0 0
0:00:00.00 583587 N 0 0 0
0:00:00.00 583886 N 0 0 0
0:00:00.00 584196 N 0 0 0
0:00:00.00 584506 N 0 0 0
0:00:00.00 584810 N 0 0 0
0:00:00.00 585112 N 0 0 0
0:00:00.00 585396 N 0 0 0
0:00:00.00 585689 N 0 0 0
0:00:00.00 585971 N 0 0 0
0:00:00.00 586269 N 0 0 0
0:00:00.00 586573 N 0 0 0
0:00:00.00 586869 N 0 0 0
0:00:00.00 587167 N 0 0 0
0:00:00.00 587447 N 0 0 0
0:00:00.00 587731 N 0 0 0
0:00:00.00 588013 N 0 0 0
0:00:00.00 588305 N 0 0 0
0:00:00.00 588601 N 0 0 0
0:00:00.00 588899 N 0 0 0
0:00:00.00 589187 N 0 0 0
0:00:00.00 589474 N 0 0 0
0:00:00.00 589755 N 0 0 0
0:00:00.00 590029 N 0 0 0
0:00:00.00 590306 N 0 0 0
0:00:00.00 590601 N 0 0 0
0:00:00.00 590900 N 0 0 0
0:00:00.00 591192 N 0 0 0
0:00:00.00 591480 N 0 0 0
0:00:00.00 591770 N 0 0 0
0:00:00.00 592054 N 0 0 0
0:00:00.00 592323 N 0 0 0
0:00:00.00 592630 N 0 0 0
0:00:00.00 592935 N 0 0 0
0:00:00.00 593235 N 0 0 0
0:00:00.00 593519 N 0 0 0
0:00:00.00 593810 N 0 0 0
0:00:00.00 594099 N 0 0 0
0:00:00.00 594379 N 0 0 0
0:00:00.00 594664 N 0 0 0
0:00:00.00 594966 N 0 0 0
0:00:00.00 595270 N 0 0 0
0:00:00.00 595555 N 0 0 0
0:00:00.00 595853 N 0 0 0
0:00:00.00 596143 N 0 0 0
0:00:00.00 596430 N 0 0 0
0:00:00.00 596698 N 0 0 0
0:00:00.00 596713 N 0 0 0
0:00:00.00 597027 N 0 0 0
0:00:00.00 597342 N 0 0 0
0:00:00.00 597651 N 0 0 0
0:00:00.00 597949 N 0 0 0
0:00:00.00 598247 N 0 0 0
0:00:00.00 598540 N 0 0 0
0:00:00.00 598815 N 0 0 0
0:00:00.00 598831 N 0 0 0
0:00:00.00 599148 N 0 0 0
0:00:00.00 599468 N 0 0 0
0:00:00.00 599779 N 0 0 0
0:00:00.00 600083 N 0 0 0
0:00:00.00 600381 N 0 0 0
0:00:00.00 600678 N 0 0 0
0:00:00.00 600967 N 0 0 0
0:00:00.00 601275 N 0 0 0
0:00:00.00 601573 N 0 0 0
0:00:00.00 601588 N 0 0 0
0:00:00.00 601905 N 0 0 0
0:00:00.00 602202 N 0 0 0
0:00:00.00 602500 N 0 0 0
0:00:00.00 602787 N 0 0 0
0:00:00.00 603081 N 0 0 0
0:00:00.00 603395 N 0 0 0
0:00:00.00 603709 N 0 0 0
0:00:00.00 604025 N 0 0 0
0:00:00.00 604326 N 0 0 0
0:00:00.00 604629 N 0 0 0
0:00:00.00 604928 N 0 0 0
0:00:00.00 605215 N 0 0 0
0:00:00.00 605521 N 0 0 0
0:00:00.00 605831 N 0 0 0
0:00:00.00 606151 N 0 0 0
0:00:00.00 606452 N 0 0 0
0:00:00.00 606753 N 0 0 0
0:00:00.00 607046 N 0 0 0
0:00:00.00 607341 N 0 0 0
0:00:00.00 607651 N 0 0 0
0:00:00.00 607978 N 0 0 0
0:00:00.00 608291 N 0 0 0
0:00:00.00 608590 N 0 0 0
0:00:00.00 608902 N 0 0 0
0:00:00.00 609209 N 0 0 0
0:00:00.00 609504 N 0 0 0
0:00:00.00 609805 N 0 0 0
0:00:00.00 610125 N 0 0 0
0:00:00.00 610442 N 0 0 0
0:00:00.00 610751 N 0 0 0
0:00:00.00 611055 N 0 0 0
0:00:00.00 611347 N 0 0 0
0:00:00.00 611642 N 0 0 0
0:00:00.00 611950 N 0 0 0
0:00:00.00 612272 N 0 0 0
0:00:00.00 612593 N 0 0 0
0:00:00.00 612893 N 0 0 0
0:00:00.00 613198 N 0 0 0
0:00:00.00 613490 N 0 0 0
0:00:00.00 613788 N 0 0 0
0:00:00.00 614089 N 0 0 0
0:00:00.00 614399 N 0 0 0
0:00:00.00 614706 N 0 0 0
0:00:00.00 615004 N 0 0 0
0:00:00.00 615308 N 0 0 0
0:00:00.00 615606 N 0 0 0
0:00:00.00 615898 N 0 0 0
0:00:00.00 616193 N 0 0 0
0:00:00.00 616512 N 0 0 0
0:00:00.00 616833 N 0 0 0
0:00:00.00 617137 N 0 0 0
0:00:00.00 617447 N 0 0 0
0:00:00.00 617743 N 0 0 0
0:00:00.00 618044 N 0 0 0
0:00:00.00 618324 N 0 0 0
0:00:00.00 618339 N 0 0 0
0:00:00.00 618654 N 0 0 0
0:00:00.00 618964 N 0 0 0
0:00:00.00 619267 N 0 0 0
0:00:00.00 619559 N 0 0 0
0:00:00.00 619861 N 0 0 0
0:00:00.00 620155 N 0 0 0
0:00:00.00 620442 N 0 0 0
0:00:00.00 620745 N 0 0 0
0:00:00.00 621056 N 0 0 0
0:00:00.00 621359 N 0 0 0
0:00:00.00 621651 N 0 0 0
0:00:00.00 621933 N 0 0 0
0:00:00.00 622217 N 0 0 0
0:00:00.00 622497 N 0 0 0
0:00:00.00 622790 N 0 0 0
0:00:00.00 623097 N 0 0 0
0:00:00.00 623397 N 0 0 0
0:00:00.00 623677 N 0 0 0
0:00:00.00 623963 N 0 0 0
0:00:00.00 624255 N 0 0 0
0:00:00.00 624535 N 0 0 0
0:00:00.00 624802 N 0 0 0
0:00:00.00 625092 N 0 0 0
0:00:00.00 625377 N 0 0 0
0:00:00.00 625659 N 0 0 0
0:00:00.00 625931 N 0 0 0
0:00:00.00 626209 N 0 0 0
0:00:00.00 626475 N 0 0 0
0:00:00.00 626740 N 0 0 0
0:00:00.00 627007 N 0 0 0
0:00:00.00 627300 N 0 0 0
0:00:00.00 627581 N 0 0 0
0:00:00.00 627864 N 0 0 0
0:00:00.00 628139 N 0 0 0
0:00:00.00 628419 N 0 0 0
0:00:00.00 628692 N 0 0 0
0:00:00.00 628966 N 0 0 0
0:00:00.00 629248 N 0 0 0
0:00:00.00 629534 N 0 0 0
0:00:00.00 629819 N 0 0 0
0:00:00.00 630099 N 0 0 0
0:00:00.00 630378 N 0 0 0
0:00:00.00 630646 N 0 0 0
0:00:00.00 630920 N 0 0 0
0:00:00.00 631179 N 0 0 0
0:00:00.00 631462 N 0 0 0
0:00:00.00 631735 N 0 0 0
0:00:00.00 632018 N 0 0 0
0:00:00.00 632315 N 0 0 0
0:00:00.00 632593 N 0 0 0
0:00:00.00 632863 N 0 0 0
0:00:00.00 633115 N 0 0 0
0:00:00.00 633124 N 0 0 0
0:00:00.00 633404 N 0 0 0
0:00:00.00 633689 N 0 0 0
0:00:00.00 633967 N 0 0 0
0:00:00.00 634248 N 0 0 0
0:00:00.00 634517 N 0 0 0
0:00:00.00 634780 N 0 0 0
0:00:00.00 635052 N 0 0 0
0:00:00.00 635321 N 0 0 0
0:00:00.00 635562 N 0 0 0
0:00:00.00 635578 N 0 0 0
0:00:00.00 635856 N 0 0 0
0:00:00.00 636133 N 0 0 0
0:00:00.00 636432 N 0 0 0
0:00:00.00 636706 N 0 0 0
0:00:00.00 636988 N 0 0 0
0:00:00.00 637261 N 0 0 0
0:00:00.00 637537 N 0 0 0
0:00:00.00 637813 N 0 0 0
0:00:00.00 638112 N 0 0 0
0:00:00.00 638403 N 0 0 0
0:00:00.00 638711 N 0 0 0
0:00:00.00 638996 N 0 0 0
0:00:00.00 639269 N 0 0 0
0:00:00.00 639278 N 0 0 0
0:00:00.00 639569 N 0 0 0
0:00:00.00 639834 N 0 0 0
0:00:00.00 639842 N 0 0 0
0:00:00.00 640147 N 0 0 0
0:00:00.00 640449 N 0 0 0
0:00:00.00 640752 N 0 0 0
0:00:00.00 641041 N 0 0 0
0:00:00.00 641327 N 0 0 0
0:00:00.00 641602 N 0 0 0
0:00:00.00 641901 N 0 0 0
0:00:00.00 642185 N 0 0 0
0:00:00.00 642474 N 0 0 0
0:00:00.00 642490 N 0 0 0
0:00:00.00 642789 N 0 0 0
0:00:00.00 643072 N 0 0 0
0:00:00.00 643360 N 0 0 0
0:00:00.00 643643 N 0 0 0
0:00:00.00 643918 N 0 0 0
0:00:00.00 644192 N 0 0 0
0:00:00.00 644490 N 0 0 0
0:00:00.00 644785 N 0 0 0
0:00:00.00 645056 N 0 0 0
0:00:00.00 645065 N 0 0 0
0:00:00.00 645351 N 0 0 0
0:00:00.00 645654 N 0 0 0
0:00:00.00 645941 N 0 0 0
0:00:00.00 646218 N 0 0 0
0:00:00.00 646508 N 0 0 0
0:00:00.00 646797 N 0 0 0
0:00:00.00 646813 N 0 0 0
0:00:00.00 647120 N 0 0 0
0:00:00.00 647416 N 0 0 0
0:00:00.00 647711 N 0 0 0
0:00:00.00 647997 N 0 0 0
0:00:00.00 648282 N 0 0 0
0:00:00.00 648567 N 0 0 0
0:00:00.00 648859 N 0 0 0
0:00:00.00 649151 N 0 0 0
0:00:00.00 649444 N 0 0 0
0:00:00.00 649726 N 0 0 0
