0:00:00.00 9 N 0 0 0
0:00:00.00 81 N 0 0 0
0:00:00.00 383 N 0 0 0
0:00:00.00 646 N 0 0 0
0:00:00.00 895 N 0 0 0
0:00:00.00 1150 N 0 0 0
0:00:00.00 1393 N 0 0 0
0:00:00.00 1649 N 0 0 0
0:00:00.00 1894 N 0 0 0
0:00:00.00 2147 N 0 0 0
0:00:00.00 2394 N 0 0 0
0:00:00.00 2632 N 0 0 0
0:00:00.00 2882 N 0 0 0
0:00:00.00 3128 N 0 0 0
0:00:00.00 3379 N 0 0 0
0:00:00.00 3623 N 0 0 0
0:00:00.00 3872 N 0 0 0
0:00:00.00 4120 N 0 0 0
0:00:00.00 4370 N 0 0 0
0:00:00.00 4626 N 0 0 0
0:00:00.00 4873 N 0 0 0
0:00:00.00 5121 N 0 0 0
0:00:00.00 5364 N 0 0 0
0:00:00.00 5618 N 0 0 0
0:00:00.00 5866 N 0 0 0
0:00:00.00 6109 N 0 0 0
0:00:00.00 6363 N 0 0 0
0:00:00.00 6611 N 0 0 0
0:00:00.00 6863 N 0 0 0
0:00:00.00 7119 N 0 0 0
0:00:00.00 7378 N 0 0 0
0:00:00.00 7636 N 0 0 0
0:00:00.00 7888 N 0 0 0
0:00:00.00 8152 N 0 0 0
0:00:00.00 8406 N 0 0 0
0:00:00.00 8658 N 0 0 0
0:00:00.00 8910 N 0 0 0
0:00:00.00 9169 N 0 0 0
0:00:00.00 9425 N 0 0 0
0:00:00.00 9679 N 0 0 0
0:00:00.00 9941 N 0 0 0
0:00:00.00 10197 N 0 0 0
0:00:00.00 10447 N 0 0 0
0:00:00.00 10703 N 0 0 0
0:00:00.00 10964 N 0 0 0
0:00:00.00 11221 N 0 0 0
0:00:00.00 11466 N 0 0 0
0:00:00.00 11734 N 0 0 0
0:00:00.00 11977 N 0 0 0
0:00:00.00 12235 N 0 0 0
0:00:00.00 12492 N 0 0 0
0:00:00.00 12748 N 0 0 0
0:00:00.00 13000 N 0 0 0
0:00:00.00 13252 N 0 0 0
0:00:00.00 13513 N 0 0 0
0:00:00.00 13765 N 0 0 0
0:00:00.00 14013 N 0 0 0
0:00:00.00 14260 N 0 0 0
0:00:00.00 14506 N 0 0 0
0:00:00.00 14758 N 0 0 0
0:00:00.00 15001 N 0 0 0
0:00:00.00 15262 N 0 0 0
0:00:00.00 15511 N 0 0 0
0:00:00.00 15761 N 0 0 0
0:00:00.00 16015 N 0 0 0
0:00:00.00 16270 N 0 0 0
0:00:00.00 16528 N 0 0 0
0:00:00.00 16780 N 0 0 0
0:00:00.00 17035 N 0 0 0
0:00:00.00 17284 N 0 0 0
0:00:00.00 17536 N 0 0 0
0:00:00.00 17793 N 0 0 0
0:00:00.00 18050 N 0 0 0
0:00:00.00 18297 N 0 0 0
0:00:00.00 18547 N 0 0 0
0:00:00.00 18801 N 0 0 0
0:00:00.00 19051 N 0 0 0
0:00:00.00 19307 N 0 0 0
0:00:00.00 19553 N 0 0 0
0:00:00.00 19809 N 0 0 0
0:00:00.00 20059 N 0 0 0
0:00:00.00 20315 N 0 0 0
0:00:00.00 20578 N 0 0 0
0:00:00.00 20833 N 0 0 0
0:00:00.00 21089 N 0 0 0
0:00:00.00 21346 N 0 0 0
0:00:00.00 21604 N 0 0 0
0:00:00.00 21859 N 0 0 0
0:00:00.00 22109 N 0 0 0
0:00:00.00 22369 N 0 0 0
0:00:00.00 22613 N 0 0 0
0:00:00.00 22867 N 0 0 0
0:00:00.00 23117 N 0 0 0
0:00:00.00 23375 N 0 0 0
0:00:00.00 23621 N 0 0 0
0:00:00.00 23870 N 0 0 0
0:00:00.00 24125 N 0 0 0
0:00:00.00 24372 N 0 0 0
0:00:00.00 24628 N 0 0 0
0:00:00.00 24874 N 0 0 0
0:00:00.00 25124 N 0 0 0
0:00:00.00 25373 N 0 0 0
0:00:00.00 25627 N 0 0 0
0:00:00.00 25879 N 0 0 0
0:00:00.00 26127 N 0 0 0
0:00:00.00 26372 N 0 0 0
0:00:00.00 26618 N 0 0 0
0:00:00.00 26870 N 0 0 0
0:00:00.00 27117 N 0 0 0
0:00:00.00 27364 N 0 0 0
0:00:00.00 27612 N 0 0 0
0:00:00.00 27857 N 0 0 0
0:00:00.00 28109 N 0 0 0
0:00:00.00 28357 N 0 0 0
0:00:00.00 28609 N 0 0 0
0:00:00.00 28859 N 0 0 0
0:00:00.00 29110 N 0 0 0
0:00:00.00 29362 N 0 0 0
0:00:00.00 29612 N 0 0 0
0:00:00.00 29867 N 0 0 0
0:00:00.00 30110 N 0 0 0
0:00:00.00 30362 N 0 0 0
0:00:00.00 30607 N 0 0 0
0:00:00.00 30857 N 0 0 0
0:00:00.00 31106 N 0 0 0
0:00:00.00 31356 N 0 0 0
0:00:00.00 31601 N 0 0 0
0:00:00.00 31849 N 0 0 0
0:00:00.00 32098 N 0 0 0
0:00:00.00 32346 N 0 0 0
0:00:00.00 32594 N 0 0 0
0:00:00.00 32839 N 0 0 0
0:00:00.00 33084 N 0 0 0
0:00:00.00 33336 N 0 0 0
0:00:00.00 33583 N 0 0 0
0:00:00.00 33831 N 0 0 0
0:00:00.00 34081 N 0 0 0
0:00:00.00 34324 N 0 0 0
0:00:00.00 34567 N 0 0 0
0:00:00.00 34817 N 0 0 0
0:00:00.00 35060 N 0 0 0
0:00:00.00 35303 N 0 0 0
0:00:00.00 35548 N 0 0 0
0:00:00.00 35789 N 0 0 0
0:00:00.00 36036 N 0 0 0
0:00:00.00 36284 N 0 0 0
0:00:00.00 36536 N 0 0 0
0:00:00.00 36785 N 0 0 0
0:00:00.00 37031 N 0 0 0
0:00:00.00 37282 N 0 0 0
0:00:00.00 37535 N 0 0 0
0:00:00.00 37787 N 0 0 0
0:00:00.00 38032 N 0 0 0
0:00:00.00 38286 N 0 0 0
0:00:00.00 38540 N 0 0 0
0:00:00.00 38786 N 0 0 0
0:00:00.00 39044 N 0 0 0
0:00:00.00 39298 N 0 0 0
0:00:00.00 39550 N 0 0 0
0:00:00.00 39794 N 0 0 0
0:00:00.00 40052 N 0 0 0
0:00:00.00 40304 N 0 0 0
0:00:00.00 40554 N 0 0 0
0:00:00.00 40806 N 0 0 0
0:00:00.00 41060 N 0 0 0
0:00:00.00 41312 N 0 0 0
0:00:00.00 41558 N 0 0 0
0:00:00.00 41818 N 0 0 0
0:00:00.00 42066 N 0 0 0
0:00:00.00 42314 N 0 0 0
0:00:00.00 42572 N 0 0 0
0:00:00.00 42824 N 0 0 0
0:00:00.00 43076 N 0 0 0
0:00:00.00 43321 N 0 0 0
0:00:00.00 43574 N 0 0 0
0:00:00.00 43817 N 0 0 0
0:00:00.00 44071 N 0 0 0
0:00:00.00 44320 N 0 0 0
0:00:00.00 44566 N 0 0 0
0:00:00.00 44813 N 0 0 0
0:00:00.00 45059 N 0 0 0
0:00:00.00 45319 N 0 0 0
0:00:00.00 45569 N 0 0 0
0:00:00.00 45819 N 0 0 0
0:00:00.00 46069 N 0 0 0
0:00:00.00 46323 N 0 0 0
0:00:00.00 46573 N 0 0 0
0:00:00.00 46825 N 0 0 0
0:00:00.00 47086 N 0 0 0
0:00:00.00 47340 N 0 0 0
0:00:00.00 47592 N 0 0 0
0:00:00.00 47849 N 0 0 0
0:00:00.00 48110 N 0 0 0
0:00:00.00 48364 N 0 0 0
0:00:00.00 48613 N 0 0 0
0:00:00.00 48872 N 0 0 0
0:00:00.00 49124 N 0 0 0
0:00:00.00 49378 N 0 0 0
0:00:00.00 49640 N 0 0 0
0:00:00.00 49896 N 0 0 0
0:00:00.00 50148 N 0 0 0
0:00:00.00 50400 N 0 0 0
0:00:00.00 50666 N 0 0 0
0:00:00.00 50922 N 0 0 0
0:00:00.00 51179 N 0 0 0
0:00:00.00 51439 N 0 0 0
0:00:00.00 51694 N 0 0 0
0:00:00.00 51950 N 0 0 0
0:00:00.00 52209 N 0 0 0
0:00:00.00 52470 N 0 0 0
0:00:00.00 52724 N 0 0 0
0:00:00.00 52979 N 0 0 0
0:00:00.00 53239 N 0 0 0
0:00:00.00 53494 N 0 0 0
0:00:00.00 53748 N 0 0 0
0:00:00.00 53991 N 0 0 0
0:00:00.00 54245 N 0 0 0
0:00:00.00 54490 N 0 0 0
0:00:00.00 54738 N 0 0 0
0:00:00.00 54994 N 0 0 0
0:00:00.00 55244 N 0 0 0
0:00:00.00 55494 N 0 0 0
0:00:00.00 55742 N 0 0 0
0:00:00.00 55996 N 0 0 0
0:00:00.00 56246 N 0 0 0
0:00:00.00 56497 N 0 0 0
0:00:00.00 56749 N 0 0 0
0:00:00.00 57001 N 0 0 0
0:00:00.00 57253 N 0 0 0
0:00:00.00 57505 N 0 0 0
0:00:00.00 57764 N 0 0 0
0:00:00.00 58012 N 0 0 0
0:00:00.00 58264 N 0 0 0
0:00:00.00 58520 N 0 0 0
0:00:00.00 58770 N 0 0 0
0:00:00.00 59026 N 0 0 0
0:00:00.00 59274 N 0 0 0
0:00:00.00 59530 N 0 0 0
0:00:00.00 59782 N 0 0 0
0:00:00.00 60032 N 0 0 0
0:00:00.00 60286 N 0 0 0
0:00:00.00 60538 N 0 0 0
0:00:00.00 60788 N 0 0 0
0:00:00.00 61036 N 0 0 0
0:00:00.00 61292 N 0 0 0
0:00:00.00 61538 N 0 0 0
0:00:00.00 61790 N 0 0 0
0:00:00.00 62035 N 0 0 0
0:00:00.00 62287 N 0 0 0
0:00:00.00 62541 N 0 0 0
0:00:00.00 62793 N 0 0 0
0:00:00.00 63049 N 0 0 0
0:00:00.00 63299 N 0 0 0
0:00:00.00 63553 N 0 0 0
0:00:00.00 63808 N 0 0 0
0:00:00.00 64073 N 0 0 0
0:00:00.00 64330 N 0 0 0
0:00:00.00 64586 N 0 0 0
0:00:00.00 64843 N 0 0 0
0:00:00.00 65101 N 0 0 0
0:00:00.00 65356 N 0 0 0
0:00:00.00 65614 N 0 0 0
0:00:00.00 65871 N 0 0 0
0:00:00.00 66127 N 0 0 0
0:00:00.00 66382 N 0 0 0
0:00:00.00 66647 N 0 0 0
0:00:00.00 66904 N 0 0 0
0:00:00.00 67162 N 0 0 0
0:00:00.00 67423 N 0 0 0
0:00:00.00 67680 N 0 0 0
0:00:00.00 67943 N 0 0 0
0:00:00.00 68202 N 0 0 0
0:00:00.00 68467 N 0 0 0
0:00:00.00 68726 N 0 0 0
0:00:00.00 68983 N 0 0 0
0:00:00.00 69250 N 0 0 0
0:00:00.00 69512 N 0 0 0
0:00:00.00 69772 N 0 0 0
0:00:00.00 70027 N 0 0 0
0:00:00.00 70286 N 0 0 0
0:00:00.00 70540 N 0 0 0
0:00:00.00 70796 N 0 0 0
0:00:00.00 71055 N 0 0 0
0:00:00.00 71311 N 0 0 0
0:00:00.00 71555 N 0 0 0
0:00:00.00 71820 N 0 0 0
0:00:00.00 72070 N 0 0 0
0:00:00.00 72328 N 0 0 0
0:00:00.00 72578 N 0 0 0
0:00:00.00 72837 N 0 0 0
0:00:00.00 73091 N 0 0 0
0:00:00.00 73343 N 0 0 0
0:00:00.00 73606 N 0 0 0
0:00:00.00 73856 N 0 0 0
0:00:00.00 74106 N 0 0 0
0:00:00.00 74356 N 0 0 0
0:00:00.00 74610 N 0 0 0
0:00:00.00 74858 N 0 0 0
0:00:00.00 75098 N 0 0 0
0:00:00.00 75355 N 0 0 0
0:00:00.00 75602 N 0 0 0
0:00:00.00 75850 N 0 0 0
0:00:00.00 76102 N 0 0 0
0:00:00.00 76361 N 0 0 0
0:00:00.00 76617 N 0 0 0
0:00:00.00 76871 N 0 0 0
0:00:00.00 77135 N 0 0 0
0:00:00.00 77393 N 0 0 0
0:00:00.00 77648 N 0 0 0
0:00:00.00 77899 N 0 0 0
0:00:00.00 78156 N 0 0 0
0:00:00.00 78412 N 0 0 0
0:00:00.00 78664 N 0 0 0
0:00:00.00 78926 N 0 0 0
0:00:00.00 79175 N 0 0 0
0:00:00.00 79421 N 0 0 0
0:00:00.00 79682 N 0 0 0
0:00:00.00 79936 N 0 0 0
0:00:00.00 80190 N 0 0 0
0:00:00.00 80437 N 0 0 0
0:00:00.00 80696 N 0 0 0
0:00:00.00 80950 N 0 0 0
0:00:00.00 81207 N 0 0 0
0:00:00.00 81470 N 0 0 0
0:00:00.00 81729 N 0 0 0
0:00:00.00 81977 N 0 0 0
0:00:00.00 82235 N 0 0 0
0:00:00.00 82494 N 0 0 0
0:00:00.00 82751 N 0 0 0
0:00:00.00 83000 N 0 0 0
0:00:00.00 83259 N 0 0 0
0:00:00.00 83511 N 0 0 0
0:00:00.00 83765 N 0 0 0
0:00:00.00 84020 N 0 0 0
0:00:00.00 84283 N 0 0 0
0:00:00.00 84533 N 0 0 0
0:00:00.00 84791 N 0 0 0
0:00:00.00 85055 N 0 0 0
0:00:00.00 85318 N 0 0 0
0:00:00.00 85581 N 0 0 0
0:00:00.00 85838 N 0 0 0
0:00:00.00 86101 N 0 0 0
0:00:00.00 86353 N 0 0 0
0:00:00.00 86616 N 0 0 0
0:00:00.00 86884 N 0 0 0
0:00:00.00 87147 N 0 0 0
0:00:00.00 87406 N 0 0 0
0:00:00.00 87673 N 0 0 0
0:00:00.00 87932 N 0 0 0
0:00:00.00 88193 N 0 0 0
0:00:00.00 88447 N 0 0 0
0:00:00.00 88708 N 0 0 0
0:00:00.00 88963 N 0 0 0
0:00:00.00 89219 N 0 0 0
0:00:00.00 89483 N 0 0 0
0:00:00.00 89737 N 0 0 0
0:00:00.00 89995 N 0 0 0
0:00:00.00 90248 N 0 0 0
0:00:00.00 90509 N 0 0 0
0:00:00.00 90761 N 0 0 0
0:00:00.00 91015 N 0 0 0
0:00:00.00 91267 N 0 0 0
0:00:00.00 91517 N 0 0 0
0:00:00.00 91766 N 0 0 0
0:00:00.00 92018 N 0 0 0
0:00:00.00 92266 N 0 0 0
0:00:00.00 92513 N 0 0 0
0:00:00.00 92759 N 0 0 0
0:00:00.00 93011 N 0 0 0
0:00:00.00 93258 N 0 0 0
0:00:00.00 93510 N 0 0 0
0:00:00.00 93751 N 0 0 0
0:00:00.00 94001 N 0 0 0
0:00:00.00 94241 N 0 0 0
0:00:00.00 94489 N 0 0 0
0:00:00.00 94734 N 0 0 0
0:00:00.00 94979 N 0 0 0
0:00:00.00 95222 N 0 0 0
0:00:00.00 95463 N 0 0 0
0:00:00.00 95713 N 0 0 0
0:00:00.00 95954 N 0 0 0
0:00:00.00 96203 N 0 0 0
0:00:00.00 96442 N 0 0 0
0:00:00.00 96689 N 0 0 0
0:00:00.00 96934 N 0 0 0
0:00:00.00 97178 N 0 0 0
0:00:00.00 97423 N 0 0 0
0:00:00.00 97672 N 0 0 0
0:00:00.00 97911 N 0 0 0
0:00:00.00 98158 N 0 0 0
0:00:00.00 98406 N 0 0 0
0:00:00.00 98651 N 0 0 0
0:00:00.00 98899 N 0 0 0
0:00:00.00 99142 N 0 0 0
0:00:00.00 99387 N 0 0 0
0:00:00.00 99644 N 0 0 0
0:00:00.00 99896 N 0 0 0
0:00:00.00 100150 N 0 0 0
0:00:00.00 100399 N 0 0 0
0:00:00.00 100652 N 0 0 0
0:00:00.00 100901 N 0 0 0
0:00:00.00 101156 N 0 0 0
0:00:00.00 101412 N 0 0 0
0:00:00.00 101662 N 0 0 0
0:00:00.00 101920 N 0 0 0
0:00:00.00 102168 N 0 0 0
0:00:00.00 102425 N 0 0 0
0:00:00.00 102674 N 0 0 0
0:00:00.00 102935 N 0 0 0
0:00:00.00 103187 N 0 0 0
0:00:00.00 103435 N 0 0 0
0:00:00.00 103693 N 0 0 0
0:00:00.00 103945 N 0 0 0
0:00:00.00 104198 N 0 0 0
0:00:00.00 104438 N 0 0 0
0:00:00.00 104688 N 0 0 0
0:00:00.00 104931 N 0 0 0
0:00:00.00 105176 N 0 0 0
0:00:00.00 105430 N 0 0 0
0:00:00.00 105671 N 0 0 0
0:00:00.00 105919 N 0 0 0
0:00:00.00 106160 N 0 0 0
0:00:00.00 106409 N 0 0 0
0:00:00.00 106659 N 0 0 0
0:00:00.00 106900 N 0 0 0
0:00:00.00 107145 N 0 0 0
0:00:00.00 107388 N 0 0 0
0:00:00.00 107633 N 0 0 0
0:00:00.00 107872 N 0 0 0
0:00:00.00 108126 N 0 0 0
0:00:00.00 108367 N 0 0 0
0:00:00.00 108610 N 0 0 0
0:00:00.00 108859 N 0 0 0
0:00:00.00 109109 N 0 0 0
0:00:00.00 109354 N 0 0 0
0:00:00.00 109593 N 0 0 0
0:00:00.00 109843 N 0 0 0
0:00:00.00 110086 N 0 0 0
0:00:00.00 110329 N 0 0 0
0:00:00.00 110576 N 0 0 0
0:00:00.00 110831 N 0 0 0
0:00:00.00 111080 N 0 0 0
0:00:00.00 111325 N 0 0 0
0:00:00.00 111586 N 0 0 0
0:00:00.00 111838 N 0 0 0
0:00:00.00 112093 N 0 0 0
0:00:00.00 112340 N 0 0 0
0:00:00.00 112599 N 0 0 0
0:00:00.00 112849 N 0 0 0
0:00:00.00 113108 N 0 0 0
0:00:00.00 113366 N 0 0 0
0:00:00.00 113621 N 0 0 0
0:00:00.00 113873 N 0 0 0
0:00:00.00 114131 N 0 0 0
0:00:00.00 114392 N 0 0 0
0:00:00.00 114649 N 0 0 0
0:00:00.00 114898 N 0 0 0
0:00:00.00 115155 N 0 0 0
0:00:00.00 115405 N 0 0 0
0:00:00.00 115661 N 0 0 0
0:00:00.00 115922 N 0 0 0
0:00:00.00 116176 N 0 0 0
0:00:00.00 116428 N 0 0 0
0:00:00.00 116681 N 0 0 0
0:00:00.00 116946 N 0 0 0
0:00:00.00 117202 N 0 0 0
0:00:00.00 117452 N 0 0 0
0:00:00.00 117711 N 0 0 0
0:00:00.00 117963 N 0 0 0
0:00:00.00 118219 N 0 0 0
0:00:00.00 118480 N 0 0 0
0:00:00.00 118746 N 0 0 0
0:00:00.00 119002 N 0 0 0
0:00:00.00 119261 N 0 0 0
0:00:00.00 119527 N 0 0 0
0:00:00.00 119788 N 0 0 0
0:00:00.00 120042 N 0 0 0
0:00:00.00 120305 N 0 0 0
0:00:00.00 120555 N 0 0 0
0:00:00.00 120812 N 0 0 0
0:00:00.00 121068 N 0 0 0
0:00:00.00 121331 N 0 0 0
0:00:00.00 121585 N 0 0 0
0:00:00.00 121840 N 0 0 0
0:00:00.00 122098 N 0 0 0
0:00:00.00 122353 N 0 0 0
0:00:00.00 122603 N 0 0 0
0:00:00.00 122846 N 0 0 0
0:00:00.00 123104 N 0 0 0
0:00:00.00 123349 N 0 0 0
0:00:00.00 123595 N 0 0 0
0:00:00.00 123849 N 0 0 0
0:00:00.00 124103 N 0 0 0
0:00:00.00 124349 N 0 0 0
0:00:00.00 124603 N 0 0 0
0:00:00.00 124861 N 0 0 0
0:00:00.00 125111 N 0 0 0
0:00:00.00 125363 N 0 0 0
0:00:00.00 125609 N 0 0 0
0:00:00.00 125854 N 0 0 0
0:00:00.00 126104 N 0 0 0
0:00:00.00 126351 N 0 0 0
0:00:00.00 126607 N 0 0 0
0:00:00.00 126848 N 0 0 0
0:00:00.00 127094 N 0 0 0
0:00:00.00 127343 N 0 0 0
0:00:00.00 127595 N 0 0 0
0:00:00.00 127845 N 0 0 0
0:00:00.00 128095 N 0 0 0
0:00:00.00 128349 N 0 0 0
0:00:00.00 128592 N 0 0 0
0:00:00.00 128849 N 0 0 0
0:00:00.00 129098 N 0 0 0
0:00:00.00 129355 N 0 0 0
0:00:00.00 129600 N 0 0 0
0:00:00.00 129848 N 0 0 0
0:00:00.00 130104 N 0 0 0
0:00:00.00 130354 N 0 0 0
0:00:00.00 130608 N 0 0 0
0:00:00.00 130853 N 0 0 0
0:00:00.00 131107 N 0 0 0
0:00:00.00 131357 N 0 0 0
0:00:00.00 131607 N 0 0 0
0:00:00.00 131864 N 0 0 0
0:00:00.00 132116 N 0 0 0
0:00:00.00 132370 N 0 0 0
0:00:00.00 132620 N 0 0 0
0:00:00.00 132876 N 0 0 0
0:00:00.00 133128 N 0 0 0
0:00:00.00 133378 N 0 0 0
0:00:00.00 133630 N 0 0 0
0:00:00.00 133871 N 0 0 0
0:00:00.00 134123 N 0 0 0
0:00:00.00 134370 N 0 0 0
0:00:00.00 134620 N 0 0 0
0:00:00.00 134867 N 0 0 0
0:00:00.00 135113 N 0 0 0
0:00:00.00 135365 N 0 0 0
0:00:00.00 135614 N 0 0 0
0:00:00.00 135864 N 0 0 0
0:00:00.00 136109 N 0 0 0
0:00:00.00 136357 N 0 0 0
0:00:00.00 136609 N 0 0 0
0:00:00.00 136858 N 0 0 0
0:00:00.00 137111 N 0 0 0
0:00:00.00 137362 N 0 0 0
0:00:00.00 137615 N 0 0 0
0:00:00.00 137864 N 0 0 0
0:00:00.00 138118 N 0 0 0
0:00:00.00 138366 N 0 0 0
0:00:00.00 138618 N 0 0 0
0:00:00.00 138863 N 0 0 0
0:00:00.00 139113 N 0 0 0
0:00:00.00 139361 N 0 0 0
0:00:00.00 139608 N 0 0 0
0:00:00.00 139856 N 0 0 0
0:00:00.00 140108 N 0 0 0
0:00:00.00 140353 N 0 0 0
0:00:00.00 140600 N 0 0 0
0:00:00.00 140855 N 0 0 0
0:00:00.00 141104 N 0 0 0
0:00:00.00 141350 N 0 0 0
0:00:00.00 141602 N 0 0 0
0:00:00.00 141853 N 0 0 0
0:00:00.00 142097 N 0 0 0
0:00:00.00 142348 N 0 0 0
0:00:00.00 142601 N 0 0 0
0:00:00.00 142848 N 0 0 0
0:00:00.00 143087 N 0 0 0
0:00:00.00 143339 N 0 0 0
0:00:00.00 143586 N 0 0 0
0:00:00.00 143840 N 0 0 0
0:00:00.00 144081 N 0 0 0
0:00:00.00 144335 N 0 0 0
0:00:00.00 144585 N 0 0 0
0:00:00.00 144835 N 0 0 0
0:00:00.00 145094 N 0 0 0
0:00:00.00 145346 N 0 0 0
0:00:00.00 145602 N 0 0 0
0:00:00.00 145854 N 0 0 0
0:00:00.00 146122 N 0 0 0
0:00:00.00 146380 N 0 0 0
0:00:00.00 146635 N 0 0 0
0:00:00.00 146894 N 0 0 0
0:00:00.00 147154 N 0 0 0
0:00:00.00 147406 N 0 0 0
0:00:00.00 147667 N 0 0 0
0:00:00.00 147920 N 0 0 0
0:00:00.00 148176 N 0 0 0
0:00:00.00 148424 N 0 0 0
0:00:00.00 148687 N 0 0 0
0:00:00.00 148943 N 0 0 0
0:00:00.00 149200 N 0 0 0
0:00:00.00 149452 N 0 0 0
0:00:00.00 149710 N 0 0 0
0:00:00.00 149965 N 0 0 0
0:00:00.00 150224 N 0 0 0
0:00:00.00 150491 N 0 0 0
0:00:00.00 150750 N 0 0 0
0:00:00.00 151006 N 0 0 0
0:00:00.00 151268 N 0 0 0
0:00:00.00 151529 N 0 0 0
0:00:00.00 151790 N 0 0 0
0:00:00.00 152041 N 0 0 0
0:00:00.00 152300 N 0 0 0
0:00:00.00 152555 N 0 0 0
0:00:00.00 152815 N 0 0 0
0:00:00.00 153079 N 0 0 0
0:00:00.00 153337 N 0 0 0
0:00:00.00 153592 N 0 0 0
0:00:00.00 153851 N 0 0 0
0:00:00.00 154111 N 0 0 0
0:00:00.00 154368 N 0 0 0
0:00:00.00 154616 N 0 0 0
0:00:00.00 154879 N 0 0 0
0:00:00.00 155133 N 0 0 0
0:00:00.00 155387 N 0 0 0
0:00:00.00 155650 N 0 0 0
0:00:00.00 155905 N 0 0 0
0:00:00.00 156161 N 0 0 0
0:00:00.00 156416 N 0 0 0
0:00:00.00 156679 N 0 0 0
0:00:00.00 156928 N 0 0 0
0:00:00.00 157178 N 0 0 0
0:00:00.00 157428 N 0 0 0
0:00:00.00 157680 N 0 0 0
0:00:00.00 157921 N 0 0 0
0:00:00.00 158175 N 0 0 0
0:00:00.00 158425 N 0 0 0
0:00:00.00 158674 N 0 0 0
0:00:00.00 158920 N 0 0 0
0:00:00.00 159178 N 0 0 0
0:00:00.00 159428 N 0 0 0
0:00:00.00 159678 N 0 0 0
0:00:00.00 159917 N 0 0 0
0:00:00.00 160175 N 0 0 0
0:00:00.00 160420 N 0 0 0
0:00:00.00 160668 N 0 0 0
0:00:00.00 160922 N 0 0 0
0:00:00.00 161174 N 0 0 0
0:00:00.00 161422 N 0 0 0
0:00:00.00 161672 N 0 0 0
0:00:00.00 161930 N 0 0 0
0:00:00.00 162184 N 0 0 0
0:00:00.00 162437 N 0 0 0
0:00:00.00 162688 N 0 0 0
0:00:00.00 162941 N 0 0 0
0:00:00.00 163195 N 0 0 0
0:00:00.00 163454 N 0 0 0
0:00:00.00 163712 N 0 0 0
0:00:00.00 163966 N 0 0 0
0:00:00.00 164219 N 0 0 0
0:00:00.00 164480 N 0 0 0
0:00:00.00 164740 N 0 0 0
0:00:00.00 164995 N 0 0 0
0:00:00.00 165245 N 0 0 0
0:00:00.00 165503 N 0 0 0
0:00:00.00 165751 N 0 0 0
0:00:00.00 166005 N 0 0 0
0:00:00.00 166262 N 0 0 0
0:00:00.00 166514 N 0 0 0
0:00:00.00 166770 N 0 0 0
0:00:00.00 167020 N 0 0 0
0:00:00.00 167283 N 0 0 0
0:00:00.00 167533 N 0 0 0
0:00:00.00 167787 N 0 0 0
0:00:00.00 168037 N 0 0 0
0:00:00.00 168289 N 0 0 0
0:00:00.00 168541 N 0 0 0
0:00:00.00 168797 N 0 0 0
0:00:00.00 169052 N 0 0 0
0:00:00.00 169304 N 0 0 0
0:00:00.00 169558 N 0 0 0
0:00:00.00 169814 N 0 0 0
0:00:00.00 170068 N 0 0 0
0:00:00.00 170325 N 0 0 0
0:00:00.00 170581 N 0 0 0
0:00:00.00 170836 N 0 0 0
0:00:00.00 171092 N 0 0 0
0:00:00.00 171347 N 0 0 0
0:00:00.00 171608 N 0 0 0
0:00:00.00 171864 N 0 0 0
0:00:00.00 172123 N 0 0 0
0:00:00.00 172382 N 0 0 0
0:00:00.00 172649 N 0 0 0
0:00:00.00 172910 N 0 0 0
0:00:00.00 173165 N 0 0 0
0:00:00.00 173426 N 0 0 0
0:00:00.00 173682 N 0 0 0
0:00:00.00 173943 N 0 0 0
0:00:00.00 174199 N 0 0 0
0:00:00.00 174458 N 0 0 0
0:00:00.00 174710 N 0 0 0
0:00:00.00 174964 N 0 0 0
0:00:00.00 175225 N 0 0 0
0:00:00.00 175482 N 0 0 0
0:00:00.00 175734 N 0 0 0
0:00:00.00 175988 N 0 0 0
0:00:00.00 176245 N 0 0 0
0:00:00.00 176499 N 0 0 0
0:00:00.00 176756 N 0 0 0
0:00:00.00 177019 N 0 0 0
0:00:00.00 177273 N 0 0 0
0:00:00.00 177529 N 0 0 0
0:00:00.00 177791 N 0 0 0
0:00:00.00 178051 N 0 0 0
0:00:00.00 178308 N 0 0 0
0:00:00.00 178556 N 0 0 0
0:00:00.00 178812 N 0 0 0
0:00:00.00 179068 N 0 0 0
0:00:00.00 179321 N 0 0 0
0:00:00.00 179582 N 0 0 0
0:00:00.00 179834 N 0 0 0
0:00:00.00 180090 N 0 0 0
0:00:00.00 180349 N 0 0 0
0:00:00.00 180610 N 0 0 0
0:00:00.00 180869 N 0 0 0
0:00:00.00 181121 N 0 0 0
0:00:00.00 181381 N 0 0 0
0:00:00.00 181636 N 0 0 0
0:00:00.00 181894 N 0 0 0
0:00:00.00 182156 N 0 0 0
0:00:00.00 182417 N 0 0 0
0:00:00.00 182677 N 0 0 0
0:00:00.00 182932 N 0 0 0
0:00:00.00 183199 N 0 0 0
0:00:00.00 183460 N 0 0 0
0:00:00.00 183713 N 0 0 0
0:00:00.00 183980 N 0 0 0
0:00:00.00 184237 N 0 0 0
0:00:00.00 184498 N 0 0 0
0:00:00.00 184766 N 0 0 0
0:00:00.00 185035 N 0 0 0
0:00:00.00 185301 N 0 0 0
0:00:00.00 185567 N 0 0 0
0:00:00.00 185839 N 0 0 0
0:00:00.00 186107 N 0 0 0
0:00:00.00 186363 N 0 0 0
0:00:00.00 186635 N 0 0 0
0:00:00.00 186898 N 0 0 0
0:00:00.00 187159 N 0 0 0
0:00:00.00 187423 N 0 0 0
0:00:00.00 187684 N 0 0 0
0:00:00.00 187943 N 0 0 0
0:00:00.00 188201 N 0 0 0
0:00:00.00 188469 N 0 0 0
0:00:00.00 188732 N 0 0 0
0:00:00.00 188986 N 0 0 0
0:00:00.00 189256 N 0 0 0
0:00:00.00 189515 N 0 0 0
0:00:00.00 189774 N 0 0 0
0:00:00.00 190039 N 0 0 0
0:00:00.00 190301 N 0 0 0
0:00:00.00 190562 N 0 0 0
0:00:00.00 190822 N 0 0 0
0:00:00.00 191090 N 0 0 0
0:00:00.00 191349 N 0 0 0
0:00:00.00 191603 N 0 0 0
0:00:00.00 191866 N 0 0 0
0:00:00.00 192119 N 0 0 0
0:00:00.00 192377 N 0 0 0
0:00:00.00 192640 N 0 0 0
0:00:00.00 192895 N 0 0 0
0:00:00.00 193147 N 0 0 0
0:00:00.00 193406 N 0 0 0
0:00:00.00 193666 N 0 0 0
0:00:00.00 193919 N 0 0 0
0:00:00.00 194171 N 0 0 0
0:00:00.00 194418 N 0 0 0
0:00:00.00 194672 N 0 0 0
0:00:00.00 194920 N 0 0 0
0:00:00.00 195167 N 0 0 0
0:00:00.00 195417 N 0 0 0
0:00:00.00 195665 N 0 0 0
0:00:00.00 195903 N 0 0 0
0:00:00.00 196151 N 0 0 0
0:00:00.00 196403 N 0 0 0
0:00:00.00 196652 N 0 0 0
0:00:00.00 196891 N 0 0 0
0:00:00.00 197149 N 0 0 0
0:00:00.00 197388 N 0 0 0
0:00:00.00 197638 N 0 0 0
0:00:00.00 197892 N 0 0 0
0:00:00.00 198146 N 0 0 0
0:00:00.00 198394 N 0 0 0
0:00:00.00 198641 N 0 0 0
0:00:00.00 198898 N 0 0 0
0:00:00.00 199147 N 0 0 0
0:00:00.00 199400 N 0 0 0
0:00:00.00 199642 N 0 0 0
0:00:00.00 199890 N 0 0 0
0:00:00.00 200138 N 0 0 0
0:00:00.00 200387 N 0 0 0
0:00:00.00 200641 N 0 0 0
0:00:00.00 200894 N 0 0 0
0:00:00.00 201141 N 0 0 0
0:00:00.00 201395 N 0 0 0
0:00:00.00 201656 N 0 0 0
0:00:00.00 201908 N 0 0 0
0:00:00.00 202160 N 0 0 0
0:00:00.00 202414 N 0 0 0
0:00:00.00 202666 N 0 0 0
0:00:00.00 202916 N 0 0 0
0:00:00.00 203164 N 0 0 0
0:00:00.00 203418 N 0 0 0
0:00:00.00 203665 N 0 0 0
0:00:00.00 203913 N 0 0 0
0:00:00.00 204160 N 0 0 0
0:00:00.00 204413 N 0 0 0
0:00:00.00 204660 N 0 0 0
0:00:00.00 204907 N 0 0 0
0:00:00.00 205159 N 0 0 0
0:00:00.00 205407 N 0 0 0
0:00:00.00 205657 N 0 0 0
0:00:00.00 205911 N 0 0 0
0:00:00.00 206165 N 0 0 0
0:00:00.00 206410 N 0 0 0
0:00:00.00 206660 N 0 0 0
0:00:00.00 206910 N 0 0 0
0:00:00.00 207157 N 0 0 0
0:00:00.00 207409 N 0 0 0
0:00:00.00 207646 N 0 0 0
0:00:00.00 207898 N 0 0 0
0:00:00.00 208143 N 0 0 0
0:00:00.00 208390 N 0 0 0
0:00:00.00 208642 N 0 0 0
0:00:00.00 208886 N 0 0 0
0:00:00.00 209137 N 0 0 0
0:00:00.00 209383 N 0 0 0
0:00:00.00 209639 N 0 0 0
0:00:00.00 209889 N 0 0 0
0:00:00.00 210139 N 0 0 0
0:00:00.00 210388 N 0 0 0
0:00:00.00 210636 N 0 0 0
0:00:00.00 210884 N 0 0 0
0:00:00.00 211136 N 0 0 0
0:00:00.00 211387 N 0 0 0
0:00:00.00 211631 N 0 0 0
0:00:00.00 211874 N 0 0 0
0:00:00.00 212123 N 0 0 0
0:00:00.00 212371 N 0 0 0
0:00:00.00 212616 N 0 0 0
0:00:00.00 212855 N 0 0 0
0:00:00.00 213100 N 0 0 0
0:00:00.00 213343 N 0 0 0
0:00:00.00 213588 N 0 0 0
0:00:00.00 213836 N 0 0 0
0:00:00.00 214083 N 0 0 0
0:00:00.00 214330 N 0 0 0
0:00:00.00 214574 N 0 0 0
0:00:00.00 214825 N 0 0 0
0:00:00.00 215075 N 0 0 0
0:00:00.00 215327 N 0 0 0
0:00:00.00 215568 N 0 0 0
0:00:00.00 215820 N 0 0 0
0:00:00.00 216065 N 0 0 0
0:00:00.00 216315 N 0 0 0
0:00:00.00 216565 N 0 0 0
0:00:00.00 216815 N 0 0 0
0:00:00.00 217062 N 0 0 0
0:00:00.00 217309 N 0 0 0
0:00:00.00 217562 N 0 0 0
0:00:00.00 217811 N 0 0 0
0:00:00.00 218061 N 0 0 0
0:00:00.00 218309 N 0 0 0
0:00:00.00 218552 N 0 0 0
0:00:00.00 218804 N 0 0 0
0:00:00.00 219055 N 0 0 0
0:00:00.00 219314 N 0 0 0
0:00:00.00 219566 N 0 0 0
0:00:00.00 219816 N 0 0 0
0:00:00.00 220077 N 0 0 0
0:00:00.00 220331 N 0 0 0
0:00:00.00 220586 N 0 0 0
0:00:00.00 220828 N 0 0 0
0:00:00.00 221083 N 0 0 0
0:00:00.00 221332 N 0 0 0
0:00:00.00 221580 N 0 0 0
0:00:00.00 221832 N 0 0 0
0:00:00.00 222088 N 0 0 0
0:00:00.00 222340 N 0 0 0
0:00:00.00 222592 N 0 0 0
0:00:00.00 222853 N 0 0 0
0:00:00.00 223105 N 0 0 0
0:00:00.00 223355 N 0 0 0
0:00:00.00 223610 N 0 0 0
0:00:00.00 223864 N 0 0 0
0:00:00.00 224116 N 0 0 0
0:00:00.00 224372 N 0 0 0
0:00:00.00 224627 N 0 0 0
0:00:00.00 224881 N 0 0 0
0:00:00.00 225128 N 0 0 0
0:00:00.00 225391 N 0 0 0
0:00:00.00 225641 N 0 0 0
0:00:00.00 225893 N 0 0 0
0:00:00.00 226141 N 0 0 0
0:00:00.00 226395 N 0 0 0
0:00:00.00 226643 N 0 0 0
0:00:00.00 226890 N 0 0 0
0:00:00.00 227149 N 0 0 0
0:00:00.00 227399 N 0 0 0
0:00:00.00 227646 N 0 0 0
0:00:00.00 227902 N 0 0 0
0:00:00.00 228157 N 0 0 0
0:00:00.00 228416 N 0 0 0
0:00:00.00 228661 N 0 0 0
0:00:00.00 228922 N 0 0 0
0:00:00.00 229172 N 0 0 0
0:00:00.00 229428 N 0 0 0
0:00:00.00 229687 N 0 0 0
0:00:00.00 229945 N 0 0 0
0:00:00.00 230193 N 0 0 0
0:00:00.00 230443 N 0 0 0
0:00:00.00 230706 N 0 0 0
0:00:00.00 230960 N 0 0 0
0:00:00.00 231212 N 0 0 0
0:00:00.00 231462 N 0 0 0
0:00:00.00 231718 N 0 0 0
0:00:00.00 231966 N 0 0 0
0:00:00.00 232220 N 0 0 0
0:00:00.00 232475 N 0 0 0
0:00:00.00 232726 N 0 0 0
0:00:00.00 232972 N 0 0 0
0:00:00.00 233226 N 0 0 0
0:00:00.00 233478 N 0 0 0
0:00:00.00 233730 N 0 0 0
0:00:00.00 233975 N 0 0 0
0:00:00.00 234230 N 0 0 0
0:00:00.00 234477 N 0 0 0
0:00:00.00 234722 N 0 0 0
0:00:00.00 234972 N 0 0 0
0:00:00.00 235224 N 0 0 0
0:00:00.00 235469 N 0 0 0
0:00:00.00 235717 N 0 0 0
0:00:00.00 235975 N 0 0 0
0:00:00.00 236219 N 0 0 0
0:00:00.00 236471 N 0 0 0
0:00:00.00 236720 N 0 0 0
0:00:00.00 236974 N 0 0 0
0:00:00.00 237220 N 0 0 0
0:00:00.00 237474 N 0 0 0
0:00:00.00 237722 N 0 0 0
0:00:00.00 237973 N 0 0 0
0:00:00.00 238221 N 0 0 0
0:00:00.00 238469 N 0 0 0
0:00:00.00 238727 N 0 0 0
0:00:00.00 238973 N 0 0 0
0:00:00.00 239218 N 0 0 0
0:00:00.00 239470 N 0 0 0
0:00:00.00 239717 N 0 0 0
0:00:00.00 239967 N 0 0 0
0:00:00.00 240217 N 0 0 0
0:00:00.00 240475 N 0 0 0
0:00:00.00 240721 N 0 0 0
0:00:00.00 240971 N 0 0 0
0:00:00.00 241227 N 0 0 0
0:00:00.00 241481 N 0 0 0
0:00:00.00 241736 N 0 0 0
0:00:00.00 241979 N 0 0 0
0:00:00.00 242237 N 0 0 0
0:00:00.00 242482 N 0 0 0
0:00:00.00 242730 N 0 0 0
0:00:00.00 242980 N 0 0 0
0:00:00.00 243225 N 0 0 0
0:00:00.00 243468 N 0 0 0
0:00:00.00 243715 N 0 0 0
0:00:00.00 243967 N 0 0 0
0:00:00.00 244215 N 0 0 0
0:00:00.00 244465 N 0 0 0
0:00:00.00 244708 N 0 0 0
0:00:00.00 244958 N 0 0 0
0:00:00.00 245214 N 0 0 0
0:00:00.00 245468 N 0 0 0
0:00:00.00 245727 N 0 0 0
0:00:00.00 245979 N 0 0 0
0:00:00.00 246227 N 0 0 0
0:00:00.00 246481 N 0 0 0
0:00:00.00 246731 N 0 0 0
0:00:00.00 246985 N 0 0 0
0:00:00.00 247232 N 0 0 0
0:00:00.00 247484 N 0 0 0
0:00:00.00 247730 N 0 0 0
0:00:00.00 247979 N 0 0 0
0:00:00.00 248229 N 0 0 0
0:00:00.00 248481 N 0 0 0
0:00:00.00 248728 N 0 0 0
0:00:00.00 248978 N 0 0 0
0:00:00.00 249233 N 0 0 0
0:00:00.00 249491 N 0 0 0
0:00:00.00 249750 N 0 0 0
0:00:00.00 250004 N 0 0 0
0:00:00.00 250259 N 0 0 0
0:00:00.00 250519 N 0 0 0
0:00:00.00 250772 N 0 0 0
0:00:00.00 251030 N 0 0 0
0:00:00.00 251282 N 0 0 0
0:00:00.00 251536 N 0 0 0
0:00:00.00 251789 N 0 0 0
0:00:00.00 252047 N 0 0 0
0:00:00.00 252306 N 0 0 0
0:00:00.00 252563 N 0 0 0
0:00:00.00 252833 N 0 0 0
0:00:00.00 253100 N 0 0 0
0:00:00.00 253373 N 0 0 0
0:00:00.00 253598 N 0 0 0
0:00:00.00 253948 N 0 0 0
0:00:00.00 254239 N 0 0 0
0:00:00.00 254542 N 0 0 0
0:00:00.00 254826 N 0 0 0
0:00:00.00 255096 N 0 0 0
0:00:00.00 255364 N 0 0 0
0:00:00.00 255629 N 0 0 0
0:00:00.00 255888 N 0 0 0
0:00:00.00 256147 N 0 0 0
0:00:00.00 256401 N 0 0 0
0:00:00.00 256660 N 0 0 0
0:00:00.00 256909 N 0 0 0
0:00:00.00 257171 N 0 0 0
0:00:00.00 257423 N 0 0 0
0:00:00.00 257679 N 0 0 0
0:00:00.00 257926 N 0 0 0
0:00:00.00 258179 N 0 0 0
0:00:00.00 258430 N 0 0 0
0:00:00.00 258680 N 0 0 0
0:00:00.00 258939 N 0 0 0
0:00:00.00 259186 N 0 0 0
0:00:00.00 259434 N 0 0 0
0:00:00.00 259682 N 0 0 0
0:00:00.00 259933 N 0 0 0
0:00:00.00 260183 N 0 0 0
0:00:00.00 260422 N 0 0 0
0:00:00.00 260672 N 0 0 0
0:00:00.00 260919 N 0 0 0
0:00:00.00 261167 N 0 0 0
0:00:00.00 261418 N 0 0 0
0:00:00.00 261670 N 0 0 0
0:00:00.00 261920 N 0 0 0
0:00:00.00 262163 N 0 0 0
0:00:00.00 262424 N 0 0 0
0:00:00.00 262674 N 0 0 0
0:00:00.00 262926 N 0 0 0
0:00:00.00 263173 N 0 0 0
0:00:00.00 263423 N 0 0 0
0:00:00.00 263671 N 0 0 0
0:00:00.00 263920 N 0 0 0
0:00:00.00 264175 N 0 0 0
0:00:00.00 264427 N 0 0 0
0:00:00.00 264668 N 0 0 0
0:00:00.00 264913 N 0 0 0
0:00:00.00 265165 N 0 0 0
0:00:00.00 265408 N 0 0 0
0:00:00.00 265648 N 0 0 0
0:00:00.00 265894 N 0 0 0
0:00:00.00 266135 N 0 0 0
0:00:00.00 266378 N 0 0 0
0:00:00.00 266625 N 0 0 0
0:00:00.00 266879 N 0 0 0
0:00:00.00 267125 N 0 0 0
0:00:00.00 267368 N 0 0 0
0:00:00.00 267626 N 0 0 0
0:00:00.00 267872 N 0 0 0
0:00:00.00 268121 N 0 0 0
0:00:00.00 268364 N 0 0 0
0:00:00.00 268618 N 0 0 0
0:00:00.00 268871 N 0 0 0
0:00:00.00 269120 N 0 0 0
0:00:00.00 269375 N 0 0 0
0:00:00.00 269635 N 0 0 0
0:00:00.00 269883 N 0 0 0
0:00:00.00 270133 N 0 0 0
0:00:00.00 270394 N 0 0 0
0:00:00.00 270646 N 0 0 0
0:00:00.00 270895 N 0 0 0
0:00:00.00 271147 N 0 0 0
0:00:00.00 271393 N 0 0 0
0:00:00.00 271643 N 0 0 0
0:00:00.00 271890 N 0 0 0
0:00:00.00 272142 N 0 0 0
0:00:00.00 272385 N 0 0 0
0:00:00.00 272630 N 0 0 0
0:00:00.00 272882 N 0 0 0
0:00:00.00 273132 N 0 0 0
0:00:00.00 273377 N 0 0 0
0:00:00.00 273618 N 0 0 0
0:00:00.00 273870 N 0 0 0
0:00:00.00 274109 N 0 0 0
0:00:00.00 274356 N 0 0 0
0:00:00.00 274603 N 0 0 0
0:00:00.00 274853 N 0 0 0
0:00:00.00 275099 N 0 0 0
0:00:00.00 275346 N 0 0 0
0:00:00.00 275598 N 0 0 0
0:00:00.00 275848 N 0 0 0
0:00:00.00 276095 N 0 0 0
0:00:00.00 276336 N 0 0 0
0:00:00.00 276584 N 0 0 0
0:00:00.00 276826 N 0 0 0
0:00:00.00 277072 N 0 0 0
0:00:00.00 277321 N 0 0 0
0:00:00.00 277565 N 0 0 0
0:00:00.00 277808 N 0 0 0
0:00:00.00 278048 N 0 0 0
0:00:00.00 278303 N 0 0 0
0:00:00.00 278494 N 0 0 0
0:00:00.00 278789 N 0 0 0
0:00:00.00 279031 N 0 0 0
0:00:00.00 279283 N 0 0 0
0:00:00.00 279527 N 0 0 0
0:00:00.00 279781 N 0 0 0
0:00:00.00 280037 N 0 0 0
0:00:00.00 280291 N 0 0 0
0:00:00.00 280546 N 0 0 0
0:00:00.00 280802 N 0 0 0
0:00:00.00 281063 N 0 0 0
0:00:00.00 281318 N 0 0 0
0:00:00.00 281570 N 0 0 0
0:00:00.00 281826 N 0 0 0
0:00:00.00 282074 N 0 0 0
0:00:00.00 282326 N 0 0 0
0:00:00.00 282578 N 0 0 0
0:00:00.00 282829 N 0 0 0
0:00:00.00 283079 N 0 0 0
0:00:00.00 283327 N 0 0 0
0:00:00.00 283586 N 0 0 0
0:00:00.00 283837 N 0 0 0
0:00:00.00 284096 N 0 0 0
0:00:00.00 284342 N 0 0 0
0:00:00.00 284598 N 0 0 0
0:00:00.00 284850 N 0 0 0
0:00:00.00 285102 N 0 0 0
0:00:00.00 285358 N 0 0 0
0:00:00.00 285602 N 0 0 0
0:00:00.00 285854 N 0 0 0
0:00:00.00 286101 N 0 0 0
0:00:00.00 286349 N 0 0 0
0:00:00.00 286600 N 0 0 0
0:00:00.00 286844 N 0 0 0
0:00:00.00 287091 N 0 0 0
0:00:00.00 287336 N 0 0 0
0:00:00.00 287584 N 0 0 0
0:00:00.00 287834 N 0 0 0
0:00:00.00 288081 N 0 0 0
0:00:00.00 288329 N 0 0 0
0:00:00.00 288574 N 0 0 0
0:00:00.00 288826 N 0 0 0
0:00:00.00 289075 N 0 0 0
0:00:00.00 289323 N 0 0 0
0:00:00.00 289561 N 0 0 0
0:00:00.00 289809 N 0 0 0
0:00:00.00 290048 N 0 0 0
0:00:00.00 290291 N 0 0 0
0:00:00.00 290536 N 0 0 0
0:00:00.00 290777 N 0 0 0
0:00:00.00 291017 N 0 0 0
0:00:00.00 291254 N 0 0 0
0:00:00.00 291499 N 0 0 0
0:00:00.00 291740 N 0 0 0
0:00:00.00 291983 N 0 0 0
0:00:00.00 292217 N 0 0 0
0:00:00.00 292460 N 0 0 0
0:00:00.00 292703 N 0 0 0
0:00:00.00 292948 N 0 0 0
0:00:00.00 293198 N 0 0 0
0:00:00.00 293441 N 0 0 0
0:00:00.00 293686 N 0 0 0
0:00:00.00 293929 N 0 0 0
0:00:00.00 294181 N 0 0 0
0:00:00.00 294428 N 0 0 0
0:00:00.00 294671 N 0 0 0
0:00:00.00 294912 N 0 0 0
0:00:00.00 295153 N 0 0 0
0:00:00.00 295393 N 0 0 0
0:00:00.00 295630 N 0 0 0
0:00:00.00 295875 N 0 0 0
0:00:00.00 296114 N 0 0 0
0:00:00.00 296348 N 0 0 0
0:00:00.00 296586 N 0 0 0
0:00:00.00 296831 N 0 0 0
0:00:00.00 297072 N 0 0 0
0:00:00.00 297308 N 0 0 0
0:00:00.00 297544 N 0 0 0
0:00:00.00 297783 N 0 0 0
0:00:00.00 298022 N 0 0 0
0:00:00.00 298260 N 0 0 0
0:00:00.00 298505 N 0 0 0
0:00:00.00 298744 N 0 0 0
0:00:00.00 298985 N 0 0 0
0:00:00.00 299223 N 0 0 0
0:00:00.00 299468 N 0 0 0
0:00:00.00 299709 N 0 0 0
0:00:00.00 299948 N 0 0 0
0:00:00.00 300186 N 0 0 0
0:00:00.00 300431 N 0 0 0
0:00:00.00 300670 N 0 0 0
0:00:00.00 300911 N 0 0 0
0:00:00.00 301163 N 0 0 0
0:00:00.00 301401 N 0 0 0
0:00:00.00 301644 N 0 0 0
0:00:00.00 301887 N 0 0 0
0:00:00.00 302137 N 0 0 0
0:00:00.00 302377 N 0 0 0
0:00:00.00 302614 N 0 0 0
0:00:00.00 302857 N 0 0 0
0:00:00.00 303100 N 0 0 0
0:00:00.00 303340 N 0 0 0
0:00:00.00 303579 N 0 0 0
0:00:00.00 303820 N 0 0 0
0:00:00.00 304060 N 0 0 0
0:00:00.00 304299 N 0 0 0
0:00:00.00 304538 N 0 0 0
0:00:00.00 304783 N 0 0 0
0:00:00.00 305026 N 0 0 0
0:00:00.00 305264 N 0 0 0
0:00:00.00 305505 N 0 0 0
0:00:00.00 305750 N 0 0 0
0:00:00.00 305996 N 0 0 0
0:00:00.00 306239 N 0 0 0
0:00:00.00 306488 N 0 0 0
0:00:00.00 306733 N 0 0 0
0:00:00.00 306972 N 0 0 0
0:00:00.00 307217 N 0 0 0
0:00:00.00 307465 N 0 0 0
0:00:00.00 307710 N 0 0 0
0:00:00.00 307946 N 0 0 0
0:00:00.00 308196 N 0 0 0
0:00:00.00 308435 N 0 0 0
0:00:00.00 308678 N 0 0 0
0:00:00.00 308925 N 0 0 0
0:00:00.00 309173 N 0 0 0
0:00:00.00 309416 N 0 0 0
0:00:00.00 309658 N 0 0 0
0:00:00.00 309906 N 0 0 0
0:00:00.00 310153 N 0 0 0
0:00:00.00 310401 N 0 0 0
0:00:00.00 310640 N 0 0 0
0:00:00.00 310891 N 0 0 0
0:00:00.00 311134 N 0 0 0
0:00:00.00 311378 N 0 0 0
0:00:00.00 311629 N 0 0 0
0:00:00.00 311879 N 0 0 0
0:00:00.00 312120 N 0 0 0
0:00:00.00 312370 N 0 0 0
0:00:00.00 312622 N 0 0 0
0:00:00.00 312871 N 0 0 0
0:00:00.00 313119 N 0 0 0
0:00:00.00 313360 N 0 0 0
0:00:00.00 313609 N 0 0 0
0:00:00.00 313855 N 0 0 0
0:00:00.00 314102 N 0 0 0
0:00:00.00 314356 N 0 0 0
0:00:00.00 314602 N 0 0 0
0:00:00.00 314852 N 0 0 0
0:00:00.00 315097 N 0 0 0
0:00:00.00 315353 N 0 0 0
0:00:00.00 315598 N 0 0 0
0:00:00.00 315841 N 0 0 0
0:00:00.00 316089 N 0 0 0
0:00:00.00 316337 N 0 0 0
0:00:00.00 316580 N 0 0 0
0:00:00.00 316829 N 0 0 0
0:00:00.00 317083 N 0 0 0
0:00:00.00 317331 N 0 0 0
0:00:00.00 317579 N 0 0 0
0:00:00.00 317837 N 0 0 0
0:00:00.00 318092 N 0 0 0
0:00:00.00 318344 N 0 0 0
0:00:00.00 318595 N 0 0 0
0:00:00.00 318852 N 0 0 0
0:00:00.00 319106 N 0 0 0
0:00:00.00 319363 N 0 0 0
0:00:00.00 319624 N 0 0 0
0:00:00.00 319882 N 0 0 0
0:00:00.00 320137 N 0 0 0
0:00:00.00 320395 N 0 0 0
0:00:00.00 320657 N 0 0 0
0:00:00.00 320911 N 0 0 0
0:00:00.00 321165 N 0 0 0
0:00:00.00 321421 N 0 0 0
0:00:00.00 321674 N 0 0 0
0:00:00.00 321932 N 0 0 0
0:00:00.00 322184 N 0 0 0
0:00:00.00 322445 N 0 0 0
0:00:00.00 322695 N 0 0 0
0:00:00.00 322947 N 0 0 0
0:00:00.00 323208 N 0 0 0
0:00:00.00 323462 N 0 0 0
0:00:00.00 323719 N 0 0 0
0:00:00.00 323971 N 0 0 0
0:00:00.00 324227 N 0 0 0
0:00:00.00 324481 N 0 0 0
0:00:00.00 324734 N 0 0 0
0:00:00.00 324992 N 0 0 0
0:00:00.00 325244 N 0 0 0
0:00:00.00 325494 N 0 0 0
0:00:00.00 325750 N 0 0 0
0:00:00.00 326002 N 0 0 0
0:00:00.00 326263 N 0 0 0
0:00:00.00 326509 N 0 0 0
0:00:00.00 326767 N 0 0 0
0:00:00.00 327017 N 0 0 0
0:00:00.00 327278 N 0 0 0
0:00:00.00 327537 N 0 0 0
0:00:00.00 327798 N 0 0 0
0:00:00.00 328055 N 0 0 0
0:00:00.00 328311 N 0 0 0
0:00:00.00 328570 N 0 0 0
0:00:00.00 328831 N 0 0 0
0:00:00.00 329080 N 0 0 0
0:00:00.00 329335 N 0 0 0
0:00:00.00 329584 N 0 0 0
0:00:00.00 329837 N 0 0 0
0:00:00.00 330093 N 0 0 0
0:00:00.00 330350 N 0 0 0
0:00:00.00 330606 N 0 0 0
0:00:00.00 330860 N 0 0 0
0:00:00.00 331123 N 0 0 0
0:00:00.00 331378 N 0 0 0
0:00:00.00 331632 N 0 0 0
0:00:00.00 331886 N 0 0 0
0:00:00.00 332138 N 0 0 0
0:00:00.00 332392 N 0 0 0
0:00:00.00 332647 N 0 0 0
0:00:00.00 332905 N 0 0 0
0:00:00.00 333158 N 0 0 0
0:00:00.00 333416 N 0 0 0
0:00:00.00 333675 N 0 0 0
0:00:00.00 333927 N 0 0 0
0:00:00.00 334186 N 0 0 0
0:00:00.00 334436 N 0 0 0
0:00:00.00 334694 N 0 0 0
0:00:00.00 334951 N 0 0 0
0:00:00.00 335207 N 0 0 0
0:00:00.00 335468 N 0 0 0
0:00:00.00 335723 N 0 0 0
0:00:00.00 335975 N 0 0 0
0:00:00.00 336233 N 0 0 0
0:00:00.00 336490 N 0 0 0
0:00:00.00 336748 N 0 0 0
0:00:00.00 336996 N 0 0 0
0:00:00.00 337255 N 0 0 0
0:00:00.00 337509 N 0 0 0
0:00:00.00 337766 N 0 0 0
0:00:00.00 338024 N 0 0 0
0:00:00.00 338283 N 0 0 0
0:00:00.00 338531 N 0 0 0
0:00:00.00 338780 N 0 0 0
0:00:00.00 339039 N 0 0 0
0:00:00.00 339295 N 0 0 0
0:00:00.00 339543 N 0 0 0
0:00:00.00 339791 N 0 0 0
0:00:00.00 340043 N 0 0 0
0:00:00.00 340295 N 0 0 0
0:00:00.00 340549 N 0 0 0
0:00:00.00 340807 N 0 0 0
0:00:00.00 341060 N 0 0 0
0:00:00.00 341309 N 0 0 0
0:00:00.00 341564 N 0 0 0
0:00:00.00 341816 N 0 0 0
0:00:00.00 342070 N 0 0 0
0:00:00.00 342315 N 0 0 0
0:00:00.00 342571 N 0 0 0
0:00:00.00 342821 N 0 0 0
0:00:00.00 343073 N 0 0 0
0:00:00.00 343328 N 0 0 0
0:00:00.00 343582 N 0 0 0
0:00:00.00 343831 N 0 0 0
0:00:00.00 344083 N 0 0 0
0:00:00.00 344340 N 0 0 0
0:00:00.00 344594 N 0 0 0
0:00:00.00 344844 N 0 0 0
0:00:00.00 345101 N 0 0 0
0:00:00.00 345355 N 0 0 0
0:00:00.00 345609 N 0 0 0
0:00:00.00 345866 N 0 0 0
0:00:00.00 346126 N 0 0 0
0:00:00.00 346379 N 0 0 0
0:00:00.00 346628 N 0 0 0
0:00:00.00 346887 N 0 0 0
0:00:00.00 347141 N 0 0 0
0:00:00.00 347395 N 0 0 0
0:00:00.00 347641 N 0 0 0
0:00:00.00 347900 N 0 0 0
0:00:00.00 348151 N 0 0 0
0:00:00.00 348401 N 0 0 0
0:00:00.00 348656 N 0 0 0
0:00:00.00 348908 N 0 0 0
0:00:00.00 349157 N 0 0 0
0:00:00.00 349409 N 0 0 0
0:00:00.00 349666 N 0 0 0
0:00:00.00 349918 N 0 0 0
0:00:00.00 350165 N 0 0 0
0:00:00.00 350419 N 0 0 0
0:00:00.00 350669 N 0 0 0
0:00:00.00 350919 N 0 0 0
0:00:00.00 351171 N 0 0 0
0:00:00.00 351427 N 0 0 0
0:00:00.00 351675 N 0 0 0
0:00:00.00 351923 N 0 0 0
0:00:00.00 352184 N 0 0 0
0:00:00.00 352433 N 0 0 0
0:00:00.00 352692 N 0 0 0
0:00:00.00 352940 N 0 0 0
0:00:00.00 353205 N 0 0 0
0:00:00.00 353464 N 0 0 0
0:00:00.00 353727 N 0 0 0
0:00:00.00 353995 N 0 0 0
0:00:00.00 354254 N 0 0 0
0:00:00.00 354517 N 0 0 0
0:00:00.00 354785 N 0 0 0
0:00:00.00 355050 N 0 0 0
0:00:00.00 355315 N 0 0 0
0:00:00.00 355570 N 0 0 0
0:00:00.00 355837 N 0 0 0
0:00:00.00 356094 N 0 0 0
0:00:00.00 356353 N 0 0 0
0:00:00.00 356620 N 0 0 0
0:00:00.00 356877 N 0 0 0
0:00:00.00 357136 N 0 0 0
0:00:00.00 357399 N 0 0 0
0:00:00.00 357669 N 0 0 0
0:00:00.00 357932 N 0 0 0
0:00:00.00 358187 N 0 0 0
0:00:00.00 358452 N 0 0 0
0:00:00.00 358708 N 0 0 0
0:00:00.00 358969 N 0 0 0
0:00:00.00 359231 N 0 0 0
0:00:00.00 359487 N 0 0 0
0:00:00.00 359739 N 0 0 0
0:00:00.00 359995 N 0 0 0
0:00:00.00 360250 N 0 0 0
0:00:00.00 360499 N 0 0 0
0:00:00.00 360747 N 0 0 0
0:00:00.00 360999 N 0 0 0
0:00:00.00 361246 N 0 0 0
0:00:00.00 361496 N 0 0 0
0:00:00.00 361751 N 0 0 0
0:00:00.00 362011 N 0 0 0
0:00:00.00 362264 N 0 0 0
0:00:00.00 362518 N 0 0 0
0:00:00.00 362783 N 0 0 0
0:00:00.00 363037 N 0 0 0
0:00:00.00 363298 N 0 0 0
0:00:00.00 363550 N 0 0 0
0:00:00.00 363805 N 0 0 0
0:00:00.00 364054 N 0 0 0
0:00:00.00 364309 N 0 0 0
0:00:00.00 364565 N 0 0 0
0:00:00.00 364808 N 0 0 0
0:00:00.00 365056 N 0 0 0
0:00:00.00 365308 N 0 0 0
0:00:00.00 365560 N 0 0 0
0:00:00.00 365810 N 0 0 0
0:00:00.00 366055 N 0 0 0
0:00:00.00 366313 N 0 0 0
0:00:00.00 366561 N 0 0 0
0:00:00.00 366813 N 0 0 0
0:00:00.00 367067 N 0 0 0
0:00:00.00 367317 N 0 0 0
0:00:00.00 367567 N 0 0 0
0:00:00.00 367819 N 0 0 0
0:00:00.00 368078 N 0 0 0
0:00:00.00 368325 N 0 0 0
0:00:00.00 368579 N 0 0 0
0:00:00.00 368827 N 0 0 0
0:00:00.00 369081 N 0 0 0
0:00:00.00 369338 N 0 0 0
0:00:00.00 369598 N 0 0 0
0:00:00.00 369857 N 0 0 0
0:00:00.00 370112 N 0 0 0
0:00:00.00 370372 N 0 0 0
0:00:00.00 370638 N 0 0 0
0:00:00.00 370895 N 0 0 0
0:00:00.00 371158 N 0 0 0
0:00:00.00 371412 N 0 0 0
0:00:00.00 371664 N 0 0 0
0:00:00.00 371921 N 0 0 0
0:00:00.00 372175 N 0 0 0
0:00:00.00 372434 N 0 0 0
0:00:00.00 372688 N 0 0 0
0:00:00.00 372940 N 0 0 0
0:00:00.00 373194 N 0 0 0
0:00:00.00 373448 N 0 0 0
0:00:00.00 373711 N 0 0 0
0:00:00.00 373959 N 0 0 0
0:00:00.00 374218 N 0 0 0
0:00:00.00 374479 N 0 0 0
0:00:00.00 374740 N 0 0 0
0:00:00.00 375008 N 0 0 0
0:00:00.00 375269 N 0 0 0
0:00:00.00 375536 N 0 0 0
0:00:00.00 375800 N 0 0 0
0:00:00.00 376063 N 0 0 0
0:00:00.00 376331 N 0 0 0
0:00:00.00 376587 N 0 0 0
0:00:00.00 376852 N 0 0 0
0:00:00.00 377111 N 0 0 0
0:00:00.00 377372 N 0 0 0
0:00:00.00 377635 N 0 0 0
0:00:00.00 377892 N 0 0 0
0:00:00.00 378153 N 0 0 0
0:00:00.00 378409 N 0 0 0
0:00:00.00 378670 N 0 0 0
0:00:00.00 378927 N 0 0 0
0:00:00.00 379183 N 0 0 0
0:00:00.00 379436 N 0 0 0
0:00:00.00 379694 N 0 0 0
0:00:00.00 379948 N 0 0 0
0:00:00.00 380201 N 0 0 0
0:00:00.00 380457 N 0 0 0
0:00:00.00 380707 N 0 0 0
0:00:00.00 380957 N 0 0 0
0:00:00.00 381215 N 0 0 0
0:00:00.00 381463 N 0 0 0
0:00:00.00 381712 N 0 0 0
0:00:00.00 381962 N 0 0 0
0:00:00.00 382212 N 0 0 0
0:00:00.00 382462 N 0 0 0
0:00:00.00 382711 N 0 0 0
0:00:00.00 382968 N 0 0 0
0:00:00.00 383220 N 0 0 0
0:00:00.00 383470 N 0 0 0
0:00:00.00 383724 N 0 0 0
0:00:00.00 383980 N 0 0 0
0:00:00.00 384237 N 0 0 0
0:00:00.00 384484 N 0 0 0
0:00:00.00 384737 N 0 0 0
0:00:00.00 384991 N 0 0 0
0:00:00.00 385247 N 0 0 0
0:00:00.00 385501 N 0 0 0
0:00:00.00 385762 N 0 0 0
0:00:00.00 386015 N 0 0 0
0:00:00.00 386266 N 0 0 0
0:00:00.00 386530 N 0 0 0
0:00:00.00 386786 N 0 0 0
0:00:00.00 387040 N 0 0 0
0:00:00.00 387290 N 0 0 0
0:00:00.00 387547 N 0 0 0
0:00:00.00 387803 N 0 0 0
0:00:00.00 388055 N 0 0 0
0:00:00.00 388314 N 0 0 0
0:00:00.00 388566 N 0 0 0
0:00:00.00 388813 N 0 0 0
0:00:00.00 389070 N 0 0 0
0:00:00.00 389327 N 0 0 0
0:00:00.00 389583 N 0 0 0
0:00:00.00 389828 N 0 0 0
0:00:00.00 390087 N 0 0 0
0:00:00.00 390335 N 0 0 0
0:00:00.00 390586 N 0 0 0
0:00:00.00 390841 N 0 0 0
0:00:00.00 391100 N 0 0 0
0:00:00.00 391352 N 0 0 0
0:00:00.00 391603 N 0 0 0
0:00:00.00 391869 N 0 0 0
0:00:00.00 392125 N 0 0 0
0:00:00.00 392380 N 0 0 0
0:00:00.00 392641 N 0 0 0
0:00:00.00 392899 N 0 0 0
0:00:00.00 393152 N 0 0 0
0:00:00.00 393412 N 0 0 0
0:00:00.00 393674 N 0 0 0
0:00:00.00 393926 N 0 0 0
0:00:00.00 394180 N 0 0 0
0:00:00.00 394439 N 0 0 0
0:00:00.00 394695 N 0 0 0
0:00:00.00 394951 N 0 0 0
0:00:00.00 395199 N 0 0 0
0:00:00.00 395453 N 0 0 0
0:00:00.00 395707 N 0 0 0
0:00:00.00 395962 N 0 0 0
0:00:00.00 396221 N 0 0 0
0:00:00.00 396477 N 0 0 0
0:00:00.00 396727 N 0 0 0
0:00:00.00 396985 N 0 0 0
0:00:00.00 397244 N 0 0 0
0:00:00.00 397498 N 0 0 0
0:00:00.00 397746 N 0 0 0
0:00:00.00 398005 N 0 0 0
0:00:00.00 398254 N 0 0 0
0:00:00.00 398504 N 0 0 0
0:00:00.00 398758 N 0 0 0
0:00:00.00 399015 N 0 0 0
0:00:00.00 399265 N 0 0 0
0:00:00.00 399514 N 0 0 0
0:00:00.00 399780 N 0 0 0
0:00:00.00 400030 N 0 0 0
0:00:00.00 400284 N 0 0 0
0:00:00.00 400543 N 0 0 0
0:00:00.00 400797 N 0 0 0
0:00:00.00 401053 N 0 0 0
0:00:00.00 401319 N 0 0 0
0:00:00.00 401587 N 0 0 0
0:00:00.00 401845 N 0 0 0
0:00:00.00 402106 N 0 0 0
0:00:00.00 402379 N 0 0 0
0:00:00.00 402638 N 0 0 0
0:00:00.00 402903 N 0 0 0
0:00:00.00 403164 N 0 0 0
0:00:00.00 403420 N 0 0 0
0:00:00.00 403681 N 0 0 0
0:00:00.00 403942 N 0 0 0
0:00:00.00 404208 N 0 0 0
0:00:00.00 404467 N 0 0 0
0:00:00.00 404728 N 0 0 0
0:00:00.00 405000 N 0 0 0
0:00:00.00 405257 N 0 0 0
0:00:00.00 405522 N 0 0 0
0:00:00.00 405783 N 0 0 0
0:00:00.00 406044 N 0 0 0
0:00:00.00 406300 N 0 0 0
0:00:00.00 406568 N 0 0 0
0:00:00.00 406831 N 0 0 0
0:00:00.00 407088 N 0 0 0
0:00:00.00 407347 N 0 0 0
0:00:00.00 407614 N 0 0 0
0:00:00.00 407873 N 0 0 0
0:00:00.00 408132 N 0 0 0
0:00:00.00 408398 N 0 0 0
0:00:00.00 408656 N 0 0 0
0:00:00.00 408915 N 0 0 0
0:00:00.00 409181 N 0 0 0
0:00:00.00 409444 N 0 0 0
0:00:00.00 409711 N 0 0 0
0:00:00.00 409972 N 0 0 0
0:00:00.00 410242 N 0 0 0
0:00:00.00 410503 N 0 0 0
0:00:00.00 410762 N 0 0 0
0:00:00.00 411025 N 0 0 0
0:00:00.00 411277 N 0 0 0
0:00:00.00 411536 N 0 0 0
0:00:00.00 411797 N 0 0 0
0:00:00.00 412060 N 0 0 0
0:00:00.00 412315 N 0 0 0
0:00:00.00 412571 N 0 0 0
0:00:00.00 412835 N 0 0 0
0:00:00.00 413095 N 0 0 0
0:00:00.00 413352 N 0 0 0
0:00:00.00 413608 N 0 0 0
0:00:00.00 413863 N 0 0 0
0:00:00.00 414124 N 0 0 0
0:00:00.00 414389 N 0 0 0
0:00:00.00 414655 N 0 0 0
0:00:00.00 414911 N 0 0 0
0:00:00.00 415172 N 0 0 0
0:00:00.00 415436 N 0 0 0
0:00:00.00 415697 N 0 0 0
0:00:00.00 415955 N 0 0 0
0:00:00.00 416209 N 0 0 0
0:00:00.00 416462 N 0 0 0
0:00:00.00 416720 N 0 0 0
0:00:00.00 416977 N 0 0 0
0:00:00.00 417238 N 0 0 0
0:00:00.00 417497 N 0 0 0
0:00:00.00 417751 N 0 0 0
0:00:00.00 418012 N 0 0 0
0:00:00.00 418277 N 0 0 0
0:00:00.00 418541 N 0 0 0
0:00:00.00 418797 N 0 0 0
0:00:00.00 419062 N 0 0 0
0:00:00.00 419321 N 0 0 0
0:00:00.00 419584 N 0 0 0
0:00:00.00 419848 N 0 0 0
0:00:00.00 420106 N 0 0 0
0:00:00.00 420365 N 0 0 0
0:00:00.00 420622 N 0 0 0
0:00:00.00 420880 N 0 0 0
0:00:00.00 421139 N 0 0 0
0:00:00.00 421393 N 0 0 0
0:00:00.00 421654 N 0 0 0
0:00:00.00 421911 N 0 0 0
0:00:00.00 422170 N 0 0 0
0:00:00.00 422433 N 0 0 0
0:00:00.00 422698 N 0 0 0
0:00:00.00 422959 N 0 0 0
0:00:00.00 423214 N 0 0 0
0:00:00.00 423479 N 0 0 0
0:00:00.00 423740 N 0 0 0
0:00:00.00 423995 N 0 0 0
0:00:00.00 424255 N 0 0 0
0:00:00.00 424512 N 0 0 0
0:00:00.00 424771 N 0 0 0
0:00:00.00 425030 N 0 0 0
0:00:00.00 425297 N 0 0 0
0:00:00.00 425554 N 0 0 0
0:00:00.00 425813 N 0 0 0
0:00:00.00 426080 N 0 0 0
0:00:00.00 426343 N 0 0 0
0:00:00.00 426604 N 0 0 0
0:00:00.00 426863 N 0 0 0
0:00:00.00 427129 N 0 0 0
0:00:00.00 427390 N 0 0 0
0:00:00.00 427651 N 0 0 0
0:00:00.00 427918 N 0 0 0
0:00:00.00 428179 N 0 0 0
0:00:00.00 428440 N 0 0 0
0:00:00.00 428704 N 0 0 0
0:00:00.00 428965 N 0 0 0
0:00:00.00 429224 N 0 0 0
0:00:00.00 429484 N 0 0 0
0:00:00.00 429745 N 0 0 0
0:00:00.00 430006 N 0 0 0
0:00:00.00 430268 N 0 0 0
0:00:00.00 430538 N 0 0 0
0:00:00.00 430799 N 0 0 0
0:00:00.00 431057 N 0 0 0
0:00:00.00 431327 N 0 0 0
0:00:00.00 431591 N 0 0 0
0:00:00.00 431852 N 0 0 0
0:00:00.00 432112 N 0 0 0
0:00:00.00 432373 N 0 0 0
0:00:00.00 432632 N 0 0 0
0:00:00.00 432895 N 0 0 0
0:00:00.00 433161 N 0 0 0
0:00:00.00 433420 N 0 0 0
0:00:00.00 433672 N 0 0 0
0:00:00.00 433944 N 0 0 0
0:00:00.00 434207 N 0 0 0
0:00:00.00 434471 N 0 0 0
0:00:00.00 434734 N 0 0 0
0:00:00.00 435001 N 0 0 0
0:00:00.00 435267 N 0 0 0
0:00:00.00 435532 N 0 0 0
0:00:00.00 435803 N 0 0 0
0:00:00.00 436068 N 0 0 0
0:00:00.00 436325 N 0 0 0
0:00:00.00 436594 N 0 0 0
0:00:00.00 436858 N 0 0 0
0:00:00.00 437119 N 0 0 0
0:00:00.00 437384 N 0 0 0
0:00:00.00 437645 N 0 0 0
0:00:00.00 437904 N 0 0 0
0:00:00.00 438165 N 0 0 0
0:00:00.00 438431 N 0 0 0
0:00:00.00 438692 N 0 0 0
0:00:00.00 438946 N 0 0 0
0:00:00.00 439216 N 0 0 0
0:00:00.00 439475 N 0 0 0
0:00:00.00 439736 N 0 0 0
0:00:00.00 439997 N 0 0 0
0:00:00.00 440260 N 0 0 0
0:00:00.00 440519 N 0 0 0
0:00:00.00 440777 N 0 0 0
0:00:00.00 441045 N 0 0 0
0:00:00.00 441301 N 0 0 0
0:00:00.00 441558 N 0 0 0
0:00:00.00 441823 N 0 0 0
0:00:00.00 442085 N 0 0 0
0:00:00.00 442343 N 0 0 0
0:00:00.00 442600 N 0 0 0
0:00:00.00 442863 N 0 0 0
0:00:00.00 443120 N 0 0 0
0:00:00.00 443387 N 0 0 0
0:00:00.00 443653 N 0 0 0
0:00:00.00 443912 N 0 0 0
0:00:00.00 444173 N 0 0 0
0:00:00.00 444443 N 0 0 0
0:00:00.00 444706 N 0 0 0
0:00:00.00 444965 N 0 0 0
0:00:00.00 445223 N 0 0 0
0:00:00.00 445484 N 0 0 0
0:00:00.00 445739 N 0 0 0
0:00:00.00 446002 N 0 0 0
0:00:00.00 446265 N 0 0 0
0:00:00.00 446521 N 0 0 0
0:00:00.00 446774 N 0 0 0
0:00:00.00 447039 N 0 0 0
0:00:00.00 447295 N 0 0 0
0:00:00.00 447554 N 0 0 0
0:00:00.00 447809 N 0 0 0
0:00:00.00 448070 N 0 0 0
0:00:00.00 448330 N 0 0 0
0:00:00.00 448591 N 0 0 0
0:00:00.00 448861 N 0 0 0
0:00:00.00 449118 N 0 0 0
0:00:00.00 449374 N 0 0 0
0:00:00.00 449638 N 0 0 0
0:00:00.00 449901 N 0 0 0
0:00:00.00 450162 N 0 0 0
0:00:00.00 450418 N 0 0 0
0:00:00.00 450684 N 0 0 0
0:00:00.00 450943 N 0 0 0
0:00:00.00 451208 N 0 0 0
0:00:00.00 451476 N 0 0 0
0:00:00.00 451739 N 0 0 0
0:00:00.00 452003 N 0 0 0
0:00:00.00 452273 N 0 0 0
0:00:00.00 452543 N 0 0 0
0:00:00.00 452812 N 0 0 0
0:00:00.00 453074 N 0 0 0
0:00:00.00 453343 N 0 0 0
0:00:00.00 453602 N 0 0 0
0:00:00.00 453861 N 0 0 0
0:00:00.00 454126 N 0 0 0
0:00:00.00 454383 N 0 0 0
0:00:00.00 454640 N 0 0 0
0:00:00.00 454901 N 0 0 0
0:00:00.00 455161 N 0 0 0
0:00:00.00 455418 N 0 0 0
0:00:00.00 455674 N 0 0 0
0:00:00.00 455935 N 0 0 0
0:00:00.00 456190 N 0 0 0
0:00:00.00 456453 N 0 0 0
0:00:00.00 456718 N 0 0 0
0:00:00.00 456977 N 0 0 0
0:00:00.00 457236 N 0 0 0
0:00:00.00 457499 N 0 0 0
0:00:00.00 457763 N 0 0 0
0:00:00.00 458023 N 0 0 0
0:00:00.00 458276 N 0 0 0
0:00:00.00 458539 N 0 0 0
0:00:00.00 458795 N 0 0 0
0:00:00.00 459056 N 0 0 0
0:00:00.00 459319 N 0 0 0
0:00:00.00 459576 N 0 0 0
0:00:00.00 459835 N 0 0 0
0:00:00.00 460091 N 0 0 0
0:00:00.00 460359 N 0 0 0
0:00:00.00 460613 N 0 0 0
0:00:00.00 460872 N 0 0 0
0:00:00.00 461128 N 0 0 0
0:00:00.00 461387 N 0 0 0
0:00:00.00 461644 N 0 0 0
0:00:00.00 461905 N 0 0 0
0:00:00.00 462166 N 0 0 0
0:00:00.00 462424 N 0 0 0
0:00:00.00 462679 N 0 0 0
0:00:00.00 462944 N 0 0 0
0:00:00.00 463201 N 0 0 0
0:00:00.00 463460 N 0 0 0
0:00:00.00 463714 N 0 0 0
0:00:00.00 463972 N 0 0 0
0:00:00.00 464231 N 0 0 0
0:00:00.00 464490 N 0 0 0
0:00:00.00 464756 N 0 0 0
0:00:00.00 465012 N 0 0 0
0:00:00.00 465271 N 0 0 0
0:00:00.00 465536 N 0 0 0
0:00:00.00 465799 N 0 0 0
0:00:00.00 466067 N 0 0 0
0:00:00.00 466321 N 0 0 0
0:00:00.00 466585 N 0 0 0
0:00:00.00 466844 N 0 0 0
0:00:00.00 467107 N 0 0 0
0:00:00.00 467374 N 0 0 0
0:00:00.00 467633 N 0 0 0
0:00:00.00 467892 N 0 0 0
0:00:00.00 468149 N 0 0 0
0:00:00.00 468412 N 0 0 0
0:00:00.00 468673 N 0 0 0
0:00:00.00 468925 N 0 0 0
0:00:00.00 469186 N 0 0 0
0:00:00.00 469447 N 0 0 0
0:00:00.00 469708 N 0 0 0
0:00:00.00 469973 N 0 0 0
0:00:00.00 470239 N 0 0 0
0:00:00.00 470500 N 0 0 0
0:00:00.00 470767 N 0 0 0
0:00:00.00 471035 N 0 0 0
0:00:00.00 471301 N 0 0 0
0:00:00.00 471560 N 0 0 0
0:00:00.00 471829 N 0 0 0
0:00:00.00 472090 N 0 0 0
0:00:00.00 472354 N 0 0 0
0:00:00.00 472622 N 0 0 0
0:00:00.00 472891 N 0 0 0
0:00:00.00 473155 N 0 0 0
0:00:00.00 473427 N 0 0 0
0:00:00.00 473695 N 0 0 0
0:00:00.00 473965 N 0 0 0
0:00:00.00 474228 N 0 0 0
0:00:00.00 474500 N 0 0 0
0:00:00.00 474770 N 0 0 0
0:00:00.00 475040 N 0 0 0
0:00:00.00 475315 N 0 0 0
0:00:00.00 475582 N 0 0 0
0:00:00.00 475844 N 0 0 0
0:00:00.00 476120 N 0 0 0
0:00:00.00 476386 N 0 0 0
0:00:00.00 476649 N 0 0 0
0:00:00.00 476910 N 0 0 0
0:00:00.00 477173 N 0 0 0
0:00:00.00 477434 N 0 0 0
0:00:00.00 477700 N 0 0 0
0:00:00.00 477967 N 0 0 0
0:00:00.00 478228 N 0 0 0
0:00:00.00 478487 N 0 0 0
0:00:00.00 478760 N 0 0 0
0:00:00.00 479030 N 0 0 0
0:00:00.00 479291 N 0 0 0
0:00:00.00 479561 N 0 0 0
0:00:00.00 479824 N 0 0 0
0:00:00.00 480087 N 0 0 0
0:00:00.00 480353 N 0 0 0
0:00:00.00 480618 N 0 0 0
0:00:00.00 480877 N 0 0 0
0:00:00.00 481135 N 0 0 0
0:00:00.00 481403 N 0 0 0
0:00:00.00 481662 N 0 0 0
0:00:00.00 481919 N 0 0 0
0:00:00.00 482182 N 0 0 0
0:00:00.00 482440 N 0 0 0
0:00:00.00 482695 N 0 0 0
0:00:00.00 482956 N 0 0 0
0:00:00.00 483223 N 0 0 0
0:00:00.00 483485 N 0 0 0
0:00:00.00 483739 N 0 0 0
0:00:00.00 484007 N 0 0 0
0:00:00.00 484265 N 0 0 0
0:00:00.00 484520 N 0 0 0
0:00:00.00 484780 N 0 0 0
0:00:00.00 485039 N 0 0 0
0:00:00.00 485294 N 0 0 0
0:00:00.00 485557 N 0 0 0
0:00:00.00 485824 N 0 0 0
0:00:00.00 486081 N 0 0 0
0:00:00.00 486338 N 0 0 0
0:00:00.00 486610 N 0 0 0
0:00:00.00 486875 N 0 0 0
0:00:00.00 487136 N 0 0 0
0:00:00.00 487402 N 0 0 0
0:00:00.00 487669 N 0 0 0
0:00:00.00 487928 N 0 0 0
0:00:00.00 488194 N 0 0 0
0:00:00.00 488457 N 0 0 0
0:00:00.00 488713 N 0 0 0
0:00:00.00 488972 N 0 0 0
0:00:00.00 489240 N 0 0 0
0:00:00.00 489497 N 0 0 0
0:00:00.00 489749 N 0 0 0
0:00:00.00 490005 N 0 0 0
0:00:00.00 490259 N 0 0 0
0:00:00.00 490514 N 0 0 0
0:00:00.00 490770 N 0 0 0
0:00:00.00 491036 N 0 0 0
0:00:00.00 491290 N 0 0 0
0:00:00.00 491553 N 0 0 0
0:00:00.00 491819 N 0 0 0
0:00:00.00 492079 N 0 0 0
0:00:00.00 492340 N 0 0 0
0:00:00.00 492595 N 0 0 0
0:00:00.00 492858 N 0 0 0
0:00:00.00 493112 N 0 0 0
0:00:00.00 493375 N 0 0 0
0:00:00.00 493639 N 0 0 0
0:00:00.00 493897 N 0 0 0
0:00:00.00 494156 N 0 0 0
0:00:00.00 494422 N 0 0 0
0:00:00.00 494685 N 0 0 0
0:00:00.00 494953 N 0 0 0
0:00:00.00 495212 N 0 0 0
0:00:00.00 495479 N 0 0 0
0:00:00.00 495742 N 0 0 0
0:00:00.00 496010 N 0 0 0
0:00:00.00 496282 N 0 0 0
0:00:00.00 496541 N 0 0 0
0:00:00.00 496802 N 0 0 0
0:00:00.00 497066 N 0 0 0
0:00:00.00 497333 N 0 0 0
0:00:00.00 497592 N 0 0 0
0:00:00.00 497849 N 0 0 0
0:00:00.00 498110 N 0 0 0
0:00:00.00 498364 N 0 0 0
0:00:00.00 498623 N 0 0 0
0:00:00.00 498886 N 0 0 0
0:00:00.00 499145 N 0 0 0
0:00:00.00 499403 N 0 0 0
0:00:00.00 499667 N 0 0 0
0:00:00.00 499932 N 0 0 0
0:00:00.00 500195 N 0 0 0
0:00:00.00 500450 N 0 0 0
0:00:00.00 500717 N 0 0 0
0:00:00.00 500974 N 0 0 0
0:00:00.00 501235 N 0 0 0
0:00:00.00 501502 N 0 0 0
0:00:00.00 501763 N 0 0 0
0:00:00.00 502027 N 0 0 0
0:00:00.00 502290 N 0 0 0
0:00:00.00 502555 N 0 0 0
0:00:00.00 502819 N 0 0 0
0:00:00.00 503078 N 0 0 0
0:00:00.00 503345 N 0 0 0
0:00:00.00 503602 N 0 0 0
0:00:00.00 503865 N 0 0 0
0:00:00.00 504133 N 0 0 0
0:00:00.00 504394 N 0 0 0
0:00:00.00 504659 N 0 0 0
0:00:00.00 504922 N 0 0 0
0:00:00.00 505190 N 0 0 0
0:00:00.00 505460 N 0 0 0
0:00:00.00 505717 N 0 0 0
0:00:00.00 505987 N 0 0 0
0:00:00.00 506248 N 0 0 0
0:00:00.00 506515 N 0 0 0
0:00:00.00 506783 N 0 0 0
0:00:00.00 507047 N 0 0 0
0:00:00.00 507310 N 0 0 0
0:00:00.00 507577 N 0 0 0
0:00:00.00 507845 N 0 0 0
0:00:00.00 508111 N 0 0 0
0:00:00.00 508374 N 0 0 0
0:00:00.00 508640 N 0 0 0
0:00:00.00 508907 N 0 0 0
0:00:00.00 509175 N 0 0 0
0:00:00.00 509445 N 0 0 0
0:00:00.00 509711 N 0 0 0
0:00:00.00 509974 N 0 0 0
0:00:00.00 510244 N 0 0 0
0:00:00.00 510512 N 0 0 0
0:00:00.00 510782 N 0 0 0
0:00:00.00 511042 N 0 0 0
0:00:00.00 511306 N 0 0 0
0:00:00.00 511569 N 0 0 0
0:00:00.00 511832 N 0 0 0
0:00:00.00 512102 N 0 0 0
0:00:00.00 512363 N 0 0 0
0:00:00.00 512627 N 0 0 0
0:00:00.00 512892 N 0 0 0
0:00:00.00 513157 N 0 0 0
0:00:00.00 513425 N 0 0 0
0:00:00.00 513682 N 0 0 0
0:00:00.00 513945 N 0 0 0
0:00:00.00 514204 N 0 0 0
0:00:00.00 514465 N 0 0 0
0:00:00.00 514730 N 0 0 0
0:00:00.00 514989 N 0 0 0
0:00:00.00 515248 N 0 0 0
0:00:00.00 515509 N 0 0 0
0:00:00.00 515772 N 0 0 0
0:00:00.00 516035 N 0 0 0
0:00:00.00 516287 N 0 0 0
0:00:00.00 516550 N 0 0 0
0:00:00.00 516807 N 0 0 0
0:00:00.00 517066 N 0 0 0
0:00:00.00 517331 N 0 0 0
0:00:00.00 517592 N 0 0 0
0:00:00.00 517853 N 0 0 0
0:00:00.00 518121 N 0 0 0
0:00:00.00 518386 N 0 0 0
0:00:00.00 518650 N 0 0 0
0:00:00.00 518909 N 0 0 0
0:00:00.00 519170 N 0 0 0
0:00:00.00 519435 N 0 0 0
0:00:00.00 519694 N 0 0 0
0:00:00.00 519959 N 0 0 0
0:00:00.00 520220 N 0 0 0
0:00:00.00 520477 N 0 0 0
0:00:00.00 520740 N 0 0 0
0:00:00.00 521001 N 0 0 0
0:00:00.00 521266 N 0 0 0
0:00:00.00 521514 N 0 0 0
0:00:00.00 521777 N 0 0 0
0:00:00.00 522036 N 0 0 0
0:00:00.00 522295 N 0 0 0
0:00:00.00 522560 N 0 0 0
0:00:00.00 522821 N 0 0 0
0:00:00.00 523080 N 0 0 0
0:00:00.00 523337 N 0 0 0
0:00:00.00 523607 N 0 0 0
0:00:00.00 523868 N 0 0 0
0:00:00.00 524124 N 0 0 0
0:00:00.00 524387 N 0 0 0
0:00:00.00 524648 N 0 0 0
0:00:00.00 524911 N 0 0 0
0:00:00.00 525181 N 0 0 0
0:00:00.00 525447 N 0 0 0
0:00:00.00 525712 N 0 0 0
0:00:00.00 525978 N 0 0 0
0:00:00.00 526252 N 0 0 0
0:00:00.00 526523 N 0 0 0
0:00:00.00 526783 N 0 0 0
0:00:00.00 527056 N 0 0 0
0:00:00.00 527321 N 0 0 0
0:00:00.00 527587 N 0 0 0
0:00:00.00 527859 N 0 0 0
0:00:00.00 528124 N 0 0 0
0:00:00.00 528385 N 0 0 0
0:00:00.00 528651 N 0 0 0
0:00:00.00 528917 N 0 0 0
0:00:00.00 529180 N 0 0 0
0:00:00.00 529438 N 0 0 0
0:00:00.00 529700 N 0 0 0
0:00:00.00 529963 N 0 0 0
0:00:00.00 530222 N 0 0 0
0:00:00.00 530494 N 0 0 0
0:00:00.00 530757 N 0 0 0
0:00:00.00 531020 N 0 0 0
0:00:00.00 531290 N 0 0 0
0:00:00.00 531556 N 0 0 0
0:00:00.00 531824 N 0 0 0
0:00:00.00 532084 N 0 0 0
0:00:00.00 532354 N 0 0 0
0:00:00.00 532618 N 0 0 0
0:00:00.00 532881 N 0 0 0
0:00:00.00 533151 N 0 0 0
0:00:00.00 533416 N 0 0 0
0:00:00.00 533678 N 0 0 0
0:00:00.00 533948 N 0 0 0
0:00:00.00 534218 N 0 0 0
0:00:00.00 534483 N 0 0 0
0:00:00.00 534746 N 0 0 0
0:00:00.00 535018 N 0 0 0
0:00:00.00 535286 N 0 0 0
0:00:00.00 535552 N 0 0 0
0:00:00.00 535826 N 0 0 0
0:00:00.00 536089 N 0 0 0
0:00:00.00 536353 N 0 0 0
0:00:00.00 536621 N 0 0 0
0:00:00.00 536884 N 0 0 0
0:00:00.00 537147 N 0 0 0
0:00:00.00 537403 N 0 0 0
0:00:00.00 537667 N 0 0 0
0:00:00.00 537925 N 0 0 0
0:00:00.00 538187 N 0 0 0
0:00:00.00 538456 N 0 0 0
0:00:00.00 538713 N 0 0 0
0:00:00.00 538976 N 0 0 0
0:00:00.00 539244 N 0 0 0
0:00:00.00 539512 N 0 0 0
0:00:00.00 539780 N 0 0 0
0:00:00.00 540040 N 0 0 0
0:00:00.00 540308 N 0 0 0
0:00:00.00 540569 N 0 0 0
0:00:00.00 540835 N 0 0 0
0:00:00.00 541107 N 0 0 0
0:00:00.00 541368 N 0 0 0
0:00:00.00 541629 N 0 0 0
0:00:00.00 541906 N 0 0 0
0:00:00.00 542173 N 0 0 0
0:00:00.00 542443 N 0 0 0
0:00:00.00 542711 N 0 0 0
0:00:00.00 542979 N 0 0 0
0:00:00.00 543249 N 0 0 0
0:00:00.00 543524 N 0 0 0
0:00:00.00 543803 N 0 0 0
0:00:00.00 544066 N 0 0 0
0:00:00.00 544334 N 0 0 0
0:00:00.00 544610 N 0 0 0
0:00:00.00 544874 N 0 0 0
0:00:00.00 545144 N 0 0 0
0:00:00.00 545414 N 0 0 0
0:00:00.00 545674 N 0 0 0
0:00:00.00 545938 N 0 0 0
0:00:00.00 546206 N 0 0 0
0:00:00.00 546469 N 0 0 0
0:00:00.00 546734 N 0 0 0
0:00:00.00 546993 N 0 0 0
0:00:00.00 547268 N 0 0 0
0:00:00.00 547533 N 0 0 0
0:00:00.00 547798 N 0 0 0
0:00:00.00 548068 N 0 0 0
0:00:00.00 548329 N 0 0 0
0:00:00.00 548595 N 0 0 0
0:00:00.00 548865 N 0 0 0
0:00:00.00 549131 N 0 0 0
0:00:00.00 549398 N 0 0 0
0:00:00.00 549666 N 0 0 0
0:00:00.00 549934 N 0 0 0
0:00:00.00 550201 N 0 0 0
0:00:00.00 550462 N 0 0 0
0:00:00.00 550728 N 0 0 0
0:00:00.00 550993 N 0 0 0
0:00:00.00 551261 N 0 0 0
0:00:00.00 551533 N 0 0 0
0:00:00.00 551797 N 0 0 0
0:00:00.00 552065 N 0 0 0
0:00:00.00 552335 N 0 0 0
0:00:00.00 552604 N 0 0 0
0:00:00.00 552870 N 0 0 0
0:00:00.00 553126 N 0 0 0
0:00:00.00 553392 N 0 0 0
0:00:00.00 553648 N 0 0 0
0:00:00.00 553912 N 0 0 0
0:00:00.00 554175 N 0 0 0
0:00:00.00 554432 N 0 0 0
0:00:00.00 554693 N 0 0 0
0:00:00.00 554958 N 0 0 0
0:00:00.00 555223 N 0 0 0
0:00:00.00 555489 N 0 0 0
0:00:00.00 555750 N 0 0 0
0:00:00.00 556016 N 0 0 0
0:00:00.00 556279 N 0 0 0
0:00:00.00 556547 N 0 0 0
0:00:00.00 556816 N 0 0 0
0:00:00.00 557078 N 0 0 0
0:00:00.00 557345 N 0 0 0
0:00:00.00 557609 N 0 0 0
0:00:00.00 557874 N 0 0 0
0:00:00.00 558140 N 0 0 0
0:00:00.00 558400 N 0 0 0
0:00:00.00 558664 N 0 0 0
0:00:00.00 558923 N 0 0 0
0:00:00.00 559186 N 0 0 0
0:00:00.00 559454 N 0 0 0
0:00:00.00 559715 N 0 0 0
0:00:00.00 559978 N 0 0 0
0:00:00.00 560245 N 0 0 0
0:00:00.00 560507 N 0 0 0
0:00:00.00 560774 N 0 0 0
0:00:00.00 561033 N 0 0 0
0:00:00.00 561298 N 0 0 0
0:00:00.00 561559 N 0 0 0
0:00:00.00 561820 N 0 0 0
0:00:00.00 562086 N 0 0 0
0:00:00.00 562345 N 0 0 0
0:00:00.00 562606 N 0 0 0
0:00:00.00 562869 N 0 0 0
0:00:00.00 563128 N 0 0 0
0:00:00.00 563391 N 0 0 0
0:00:00.00 563647 N 0 0 0
0:00:00.00 563908 N 0 0 0
0:00:00.00 564169 N 0 0 0
0:00:00.00 564430 N 0 0 0
0:00:00.00 564692 N 0 0 0
0:00:00.00 564952 N 0 0 0
0:00:00.00 565207 N 0 0 0
0:00:00.00 565472 N 0 0 0
0:00:00.00 565729 N 0 0 0
0:00:00.00 565994 N 0 0 0
0:00:00.00 566242 N 0 0 0
0:00:00.00 566507 N 0 0 0
0:00:00.00 566762 N 0 0 0
0:00:00.00 567020 N 0 0 0
0:00:00.00 567279 N 0 0 0
0:00:00.00 567536 N 0 0 0
0:00:00.00 567794 N 0 0 0
0:00:00.00 568049 N 0 0 0
0:00:00.00 568314 N 0 0 0
0:00:00.00 568573 N 0 0 0
0:00:00.00 568827 N 0 0 0
0:00:00.00 569086 N 0 0 0
0:00:00.00 569347 N 0 0 0
0:00:00.00 569605 N 0 0 0
0:00:00.00 569867 N 0 0 0
0:00:00.00 570128 N 0 0 0
0:00:00.00 570389 N 0 0 0
0:00:00.00 570643 N 0 0 0
0:00:00.00 570911 N 0 0 0
0:00:00.00 571172 N 0 0 0
0:00:00.00 571426 N 0 0 0
0:00:00.00 571687 N 0 0 0
0:00:00.00 571943 N 0 0 0
0:00:00.00 572202 N 0 0 0
0:00:00.00 572456 N 0 0 0
0:00:00.00 572720 N 0 0 0
0:00:00.00 572974 N 0 0 0
0:00:00.00 573230 N 0 0 0
0:00:00.00 573491 N 0 0 0
0:00:00.00 573750 N 0 0 0
0:00:00.00 574009 N 0 0 0
0:00:00.00 574263 N 0 0 0
0:00:00.00 574524 N 0 0 0
0:00:00.00 574780 N 0 0 0
0:00:00.00 575039 N 0 0 0
0:00:00.00 575303 N 0 0 0
0:00:00.00 575564 N 0 0 0
0:00:00.00 575820 N 0 0 0
0:00:00.00 576086 N 0 0 0
0:00:00.00 576346 N 0 0 0
0:00:00.00 576607 N 0 0 0
0:00:00.00 576859 N 0 0 0
0:00:00.00 577123 N 0 0 0
0:00:00.00 577381 N 0 0 0
0:00:00.00 577636 N 0 0 0
0:00:00.00 577901 N 0 0 0
0:00:00.00 578155 N 0 0 0
0:00:00.00 578412 N 0 0 0
0:00:00.00 578671 N 0 0 0
0:00:00.00 578934 N 0 0 0
0:00:00.00 579190 N 0 0 0
0:00:00.00 579443 N 0 0 0
0:00:00.00 579703 N 0 0 0
0:00:00.00 579960 N 0 0 0
0:00:00.00 580216 N 0 0 0
0:00:00.00 580478 N 0 0 0
0:00:00.00 580734 N 0 0 0
0:00:00.00 580991 N 0 0 0
0:00:00.00 581251 N 0 0 0
0:00:00.00 581517 N 0 0 0
0:00:00.00 581776 N 0 0 0
0:00:00.00 582028 N 0 0 0
0:00:00.00 582296 N 0 0 0
0:00:00.00 582557 N 0 0 0
0:00:00.00 582818 N 0 0 0
0:00:00.00 583085 N 0 0 0
0:00:00.00 583348 N 0 0 0
0:00:00.00 583607 N 0 0 0
0:00:00.00 583871 N 0 0 0
0:00:00.00 584140 N 0 0 0
0:00:00.00 584399 N 0 0 0
0:00:00.00 584653 N 0 0 0
0:00:00.00 584914 N 0 0 0
0:00:00.00 585169 N 0 0 0
0:00:00.00 585423 N 0 0 0
0:00:00.00 585688 N 0 0 0
0:00:00.00 585941 N 0 0 0
0:00:00.00 586195 N 0 0 0
0:00:00.00 586454 N 0 0 0
0:00:00.00 586719 N 0 0 0
0:00:00.00 586982 N 0 0 0
0:00:00.00 587236 N 0 0 0
0:00:00.00 587502 N 0 0 0
0:00:00.00 587759 N 0 0 0
0:00:00.00 588020 N 0 0 0
0:00:00.00 588285 N 0 0 0
0:00:00.00 588550 N 0 0 0
0:00:00.00 588807 N 0 0 0
0:00:00.00 589072 N 0 0 0
0:00:00.00 589340 N 0 0 0
0:00:00.00 589603 N 0 0 0
0:00:00.00 589858 N 0 0 0
0:00:00.00 590126 N 0 0 0
0:00:00.00 590386 N 0 0 0
0:00:00.00 590645 N 0 0 0
0:00:00.00 590913 N 0 0 0
0:00:00.00 591174 N 0 0 0
0:00:00.00 591435 N 0 0 0
0:00:00.00 591698 N 0 0 0
0:00:00.00 591964 N 0 0 0
0:00:00.00 592222 N 0 0 0
0:00:00.00 592475 N 0 0 0
0:00:00.00 592736 N 0 0 0
0:00:00.00 592992 N 0 0 0
0:00:00.00 593246 N 0 0 0
0:00:00.00 593507 N 0 0 0
0:00:00.00 593764 N 0 0 0
0:00:00.00 594022 N 0 0 0
0:00:00.00 594281 N 0 0 0
0:00:00.00 594545 N 0 0 0
0:00:00.00 594808 N 0 0 0
0:00:00.00 595060 N 0 0 0
0:00:00.00 595327 N 0 0 0
0:00:00.00 595586 N 0 0 0
0:00:00.00 595847 N 0 0 0
0:00:00.00 596119 N 0 0 0
0:00:00.00 596380 N 0 0 0
0:00:00.00 596644 N 0 0 0
0:00:00.00 596903 N 0 0 0
0:00:00.00 597173 N 0 0 0
0:00:00.00 597433 N 0 0 0
0:00:00.00 597688 N 0 0 0
0:00:00.00 597951 N 0 0 0
0:00:00.00 598207 N 0 0 0
0:00:00.00 598469 N 0 0 0
0:00:00.00 598732 N 0 0 0
0:00:00.00 598997 N 0 0 0
0:00:00.00 599256 N 0 0 0
0:00:00.00 599517 N 0 0 0
0:00:00.00 599789 N 0 0 0
0:00:00.00 600050 N 0 0 0
0:00:00.00 600311 N 0 0 0
0:00:00.00 600574 N 0 0 0
0:00:00.00 600831 N 0 0 0
0:00:00.00 601092 N 0 0 0
0:00:00.00 601355 N 0 0 0
0:00:00.00 601618 N 0 0 0
0:00:00.00 601873 N 0 0 0
0:00:00.00 602131 N 0 0 0
0:00:00.00 602397 N 0 0 0
0:00:00.00 602654 N 0 0 0
0:00:00.00 602914 N 0 0 0
0:00:00.00 603176 N 0 0 0
0:00:00.00 603434 N 0 0 0
0:00:00.00 603693 N 0 0 0
0:00:00.00 603959 N 0 0 0
0:00:00.00 604222 N 0 0 0
0:00:00.00 604483 N 0 0 0
0:00:00.00 604741 N 0 0 0
0:00:00.00 605009 N 0 0 0
0:00:00.00 605266 N 0 0 0
0:00:00.00 605525 N 0 0 0
0:00:00.00 605785 N 0 0 0
0:00:00.00 606038 N 0 0 0
0:00:00.00 606298 N 0 0 0
0:00:00.00 606553 N 0 0 0
0:00:00.00 606818 N 0 0 0
0:00:00.00 607070 N 0 0 0
0:00:00.00 607331 N 0 0 0
0:00:00.00 607590 N 0 0 0
0:00:00.00 607849 N 0 0 0
0:00:00.00 608110 N 0 0 0
0:00:00.00 608368 N 0 0 0
0:00:00.00 608627 N 0 0 0
0:00:00.00 608884 N 0 0 0
0:00:00.00 609147 N 0 0 0
0:00:00.00 609406 N 0 0 0
0:00:00.00 609664 N 0 0 0
0:00:00.00 609921 N 0 0 0
0:00:00.00 610180 N 0 0 0
0:00:00.00 610436 N 0 0 0
0:00:00.00 610693 N 0 0 0
0:00:00.00 610938 N 0 0 0
0:00:00.00 611197 N 0 0 0
0:00:00.00 611449 N 0 0 0
0:00:00.00 611708 N 0 0 0
0:00:00.00 611969 N 0 0 0
0:00:00.00 612227 N 0 0 0
0:00:00.00 612490 N 0 0 0
0:00:00.00 612747 N 0 0 0
0:00:00.00 613013 N 0 0 0
0:00:00.00 613276 N 0 0 0
0:00:00.00 613530 N 0 0 0
0:00:00.00 613791 N 0 0 0
0:00:00.00 614048 N 0 0 0
0:00:00.00 614308 N 0 0 0
0:00:00.00 614570 N 0 0 0
0:00:00.00 614830 N 0 0 0
0:00:00.00 615089 N 0 0 0
0:00:00.00 615343 N 0 0 0
0:00:00.00 615609 N 0 0 0
0:00:00.00 615868 N 0 0 0
0:00:00.00 616127 N 0 0 0
0:00:00.00 616388 N 0 0 0
0:00:00.00 616646 N 0 0 0
0:00:00.00 616909 N 0 0 0
0:00:00.00 617168 N 0 0 0
0:00:00.00 617436 N 0 0 0
0:00:00.00 617695 N 0 0 0
0:00:00.00 617951 N 0 0 0
0:00:00.00 618219 N 0 0 0
0:00:00.00 618478 N 0 0 0
0:00:00.00 618741 N 0 0 0
0:00:00.00 618998 N 0 0 0
0:00:00.00 619259 N 0 0 0
0:00:00.00 619519 N 0 0 0
0:00:00.00 619785 N 0 0 0
0:00:00.00 620051 N 0 0 0
0:00:00.00 620316 N 0 0 0
0:00:00.00 620577 N 0 0 0
0:00:00.00 620852 N 0 0 0
0:00:00.00 621121 N 0 0 0
0:00:00.00 621385 N 0 0 0
0:00:00.00 621657 N 0 0 0
0:00:00.00 621922 N 0 0 0
0:00:00.00 622186 N 0 0 0
0:00:00.00 622453 N 0 0 0
0:00:00.00 622721 N 0 0 0
0:00:00.00 622985 N 0 0 0
0:00:00.00 623248 N 0 0 0
0:00:00.00 623522 N 0 0 0
0:00:00.00 623788 N 0 0 0
0:00:00.00 624044 N 0 0 0
0:00:00.00 624314 N 0 0 0
0:00:00.00 624578 N 0 0 0
0:00:00.00 624839 N 0 0 0
0:00:00.00 625108 N 0 0 0
0:00:00.00 625369 N 0 0 0
0:00:00.00 625633 N 0 0 0
0:00:00.00 625894 N 0 0 0
0:00:00.00 626164 N 0 0 0
0:00:00.00 626427 N 0 0 0
0:00:00.00 626677 N 0 0 0
0:00:00.00 626945 N 0 0 0
0:00:00.00 627199 N 0 0 0
0:00:00.00 627460 N 0 0 0
0:00:00.00 627719 N 0 0 0
0:00:00.00 627979 N 0 0 0
0:00:00.00 628232 N 0 0 0
0:00:00.00 628492 N 0 0 0
0:00:00.00 628753 N 0 0 0
0:00:00.00 629014 N 0 0 0
0:00:00.00 629267 N 0 0 0
0:00:00.00 629530 N 0 0 0
0:00:00.00 629791 N 0 0 0
0:00:00.00 630049 N 0 0 0
0:00:00.00 630319 N 0 0 0
0:00:00.00 630580 N 0 0 0
0:00:00.00 630841 N 0 0 0
0:00:00.00 631102 N 0 0 0
0:00:00.00 631368 N 0 0 0
0:00:00.00 631636 N 0 0 0
0:00:00.00 631890 N 0 0 0
0:00:00.00 632156 N 0 0 0
0:00:00.00 632416 N 0 0 0
0:00:00.00 632675 N 0 0 0
0:00:00.00 632941 N 0 0 0
0:00:00.00 633202 N 0 0 0
0:00:00.00 633460 N 0 0 0
0:00:00.00 633721 N 0 0 0
0:00:00.00 633989 N 0 0 0
0:00:00.00 634250 N 0 0 0
0:00:00.00 634505 N 0 0 0
0:00:00.00 634770 N 0 0 0
0:00:00.00 635031 N 0 0 0
0:00:00.00 635294 N 0 0 0
0:00:00.00 635560 N 0 0 0
0:00:00.00 635823 N 0 0 0
0:00:00.00 636084 N 0 0 0
0:00:00.00 636345 N 0 0 0
0:00:00.00 636613 N 0 0 0
0:00:00.00 636872 N 0 0 0
0:00:00.00 637132 N 0 0 0
0:00:00.00 637396 N 0 0 0
0:00:00.00 637657 N 0 0 0
0:00:00.00 637918 N 0 0 0
0:00:00.00 638185 N 0 0 0
0:00:00.00 638449 N 0 0 0
0:00:00.00 638708 N 0 0 0
0:00:00.00 638971 N 0 0 0
0:00:00.00 639239 N 0 0 0
0:00:00.00 639499 N 0 0 0
0:00:00.00 639752 N 0 0 0
0:00:00.00 640015 N 0 0 0
0:00:00.00 640276 N 0 0 0
0:00:00.00 640532 N 0 0 0
0:00:00.00 640795 N 0 0 0
0:00:00.00 641052 N 0 0 0
0:00:00.00 641308 N 0 0 0
0:00:00.00 641561 N 0 0 0
0:00:00.00 641830 N 0 0 0
0:00:00.00 642085 N 0 0 0
0:00:00.00 642339 N 0 0 0
0:00:00.00 642598 N 0 0 0
0:00:00.00 642857 N 0 0 0
0:00:00.00 643115 N 0 0 0
0:00:00.00 643376 N 0 0 0
0:00:00.00 643640 N 0 0 0
0:00:00.00 643900 N 0 0 0
0:00:00.00 644157 N 0 0 0
0:00:00.00 644427 N 0 0 0
0:00:00.00 644686 N 0 0 0
0:00:00.00 644944 N 0 0 0
0:00:00.00 645201 N 0 0 0
0:00:00.00 645458 N 0 0 0
0:00:00.00 645716 N 0 0 0
0:00:00.00 645977 N 0 0 0
0:00:00.00 646241 N 0 0 0
0:00:00.00 646497 N 0 0 0
0:00:00.00 646753 N 0 0 0
0:00:00.00 647019 N 0 0 0
0:00:00.00 647278 N 0 0 0
0:00:00.00 647541 N 0 0 0
0:00:00.00 647800 N 0 0 0
0:00:00.00 648059 N 0 0 0
0:00:00.00 648322 N 0 0 0
0:00:00.00 648585 N 0 0 0
0:00:00.00 648850 N 0 0 0
0:00:00.00 649107 N 0 0 0
0:00:00.00 649363 N 0 0 0
0:00:00.00 649627 N 0 0 0
0:00:00.00 649885 N 0 0 0
