0:00:00.00 11 N 0 0 0
0:00:00.00 83 N 0 0 0
0:00:00.00 173 N 0 0 0
0:00:00.00 585 N 0 0 0
0:00:00.00 968 N 0 0 0
0:00:00.00 1327 N 0 0 0
0:00:00.00 1706 N 0 0 0
0:00:00.00 2095 N 0 0 0
0:00:00.00 2513 N 0 0 0
0:00:00.00 2875 N 0 0 0
0:00:00.00 3253 N 0 0 0
0:00:00.00 3649 N 0 0 0
0:00:00.00 4018 N 0 0 0
0:00:00.00 4354 N 0 0 0
0:00:00.00 4702 N 0 0 0
0:00:00.00 5087 N 0 0 0
0:00:00.00 5456 N 0 0 0
0:00:00.00 5776 N 0 0 0
0:00:00.00 6154 N 0 0 0
0:00:00.00 6586 N 0 0 0
0:00:00.00 6980 N 0 0 0
0:00:00.00 7331 N 0 0 0
0:00:00.00 7733 N 0 0 0
0:00:00.00 8120 N 0 0 0
0:00:00.00 8453 N 0 0 0
0:00:00.00 8647 N 0 0 0
0:00:00.00 9050 N 0 0 0
0:00:00.00 9454 N 0 0 0
0:00:00.00 9832 N 0 0 0
0:00:00.00 10199 N 0 0 0
0:00:00.00 10580 N 0 0 0
0:00:00.00 10989 N 0 0 0
0:00:00.00 11387 N 0 0 0
0:00:00.00 11745 N 0 0 0
0:00:00.00 12121 N 0 0 0
0:00:00.00 12497 N 0 0 0
0:00:00.00 12875 N 0 0 0
0:00:00.00 13241 N 0 0 0
0:00:00.00 13612 N 0 0 0
0:00:00.00 13984 N 0 0 0
0:00:00.00 14368 N 0 0 0
0:00:00.00 14701 N 0 0 0
0:00:00.00 15053 N 0 0 0
0:00:00.00 15462 N 0 0 0
0:00:00.00 15838 N 0 0 0
0:00:00.00 16166 N 0 0 0
0:00:00.00 16522 N 0 0 0
0:00:00.00 16904 N 0 0 0
0:00:00.00 17293 N 0 0 0
0:00:00.00 17647 N 0 0 0
0:00:00.00 18016 N 0 0 0
0:00:00.00 18396 N 0 0 0
0:00:00.00 18776 N 0 0 0
0:00:00.00 19116 N 0 0 0
0:00:00.00 19514 N 0 0 0
0:00:00.00 19924 N 0 0 0
0:00:00.00 20317 N 0 0 0
0:00:00.00 20668 N 0 0 0
0:00:00.00 21029 N 0 0 0
0:00:00.00 21391 N 0 0 0
0:00:00.00 21775 N 0 0 0
0:00:00.00 22144 N 0 0 0
0:00:00.00 22500 N 0 0 0
0:00:00.00 22905 N 0 0 0
0:00:00.00 23260 N 0 0 0
0:00:00.00 23627 N 0 0 0
0:00:00.00 24037 N 0 0 0
0:00:00.00 24444 N 0 0 0
0:00:00.00 24795 N 0 0 0
0:00:00.00 25135 N 0 0 0
0:00:00.00 25519 N 0 0 0
0:00:00.00 25900 N 0 0 0
0:00:00.00 26257 N 0 0 0
0:00:00.00 26640 N 0 0 0
0:00:00.00 27031 N 0 0 0
0:00:00.00 27398 N 0 0 0
0:00:00.00 27722 N 0 0 0
0:00:00.00 28123 N 0 0 0
0:00:00.00 28530 N 0 0 0
0:00:00.00 28917 N 0 0 0
0:00:00.00 29299 N 0 0 0
0:00:00.00 29684 N 0 0 0
0:00:00.00 30053 N 0 0 0
0:00:00.00 30418 N 0 0 0
0:00:00.00 30782 N 0 0 0
0:00:00.00 31138 N 0 0 0
0:00:00.00 31507 N 0 0 0
0:00:00.00 31862 N 0 0 0
0:00:00.00 32227 N 0 0 0
0:00:00.00 32618 N 0 0 0
0:00:00.00 33005 N 0 0 0
0:00:00.00 33345 N 0 0 0
0:00:00.00 33710 N 0 0 0
0:00:00.00 34094 N 0 0 0
0:00:00.00 34484 N 0 0 0
0:00:00.00 34862 N 0 0 0
0:00:00.00 35233 N 0 0 0
0:00:00.00 35629 N 0 0 0
0:00:00.00 36011 N 0 0 0
0:00:00.00 36342 N 0 0 0
0:00:00.00 36709 N 0 0 0
0:00:00.00 37116 N 0 0 0
0:00:00.00 37507 N 0 0 0
0:00:00.00 37858 N 0 0 0
0:00:00.00 38216 N 0 0 0
0:00:00.00 38574 N 0 0 0
0:00:00.00 38965 N 0 0 0
0:00:00.00 39328 N 0 0 0
0:00:00.00 39690 N 0 0 0
0:00:00.00 40088 N 0 0 0
0:00:00.00 40462 N 0 0 0
0:00:00.00 40797 N 0 0 0
0:00:00.00 41193 N 0 0 0
0:00:00.00 41591 N 0 0 0
0:00:00.00 41947 N 0 0 0
0:00:00.00 42289 N 0 0 0
0:00:00.00 42676 N 0 0 0
0:00:00.00 43024 N 0 0 0
0:00:00.00 43394 N 0 0 0
0:00:00.00 43760 N 0 0 0
0:00:00.00 44114 N 0 0 0
0:00:00.00 44473 N 0 0 0
0:00:00.00 44800 N 0 0 0
0:00:00.00 45153 N 0 0 0
0:00:00.00 45554 N 0 0 0
0:00:00.00 45972 N 0 0 0
0:00:00.00 46336 N 0 0 0
0:00:00.00 46705 N 0 0 0
0:00:00.00 47083 N 0 0 0
0:00:00.00 47473 N 0 0 0
0:00:00.00 47844 N 0 0 0
0:00:00.00 48215 N 0 0 0
0:00:00.00 48611 N 0 0 0
0:00:00.00 48992 N 0 0 0
0:00:00.00 49322 N 0 0 0
0:00:00.00 49698 N 0 0 0
0:00:00.00 50108 N 0 0 0
0:00:00.00 50495 N 0 0 0
0:00:00.00 50845 N 0 0 0
0:00:00.00 51196 N 0 0 0
0:00:00.00 51547 N 0 0 0
0:00:00.00 51941 N 0 0 0
0:00:00.00 52301 N 0 0 0
0:00:00.00 52681 N 0 0 0
0:00:00.00 53084 N 0 0 0
0:00:00.00 53471 N 0 0 0
0:00:00.00 53852 N 0 0 0
0:00:00.00 54261 N 0 0 0
0:00:00.00 54664 N 0 0 0
0:00:00.00 55021 N 0 0 0
0:00:00.00 55400 N 0 0 0
0:00:00.00 55769 N 0 0 0
0:00:00.00 56187 N 0 0 0
0:00:00.00 56567 N 0 0 0
0:00:00.00 56939 N 0 0 0
0:00:00.00 57317 N 0 0 0
0:00:00.00 57690 N 0 0 0
0:00:00.00 58009 N 0 0 0
0:00:00.00 58383 N 0 0 0
0:00:00.00 58793 N 0 0 0
0:00:00.00 59173 N 0 0 0
0:00:00.00 59517 N 0 0 0
0:00:00.00 59875 N 0 0 0
0:00:00.00 60239 N 0 0 0
0:00:00.00 60602 N 0 0 0
0:00:00.00 60932 N 0 0 0
0:00:00.00 61306 N 0 0 0
0:00:00.00 61681 N 0 0 0
0:00:00.00 62042 N 0 0 0
0:00:00.00 62363 N 0 0 0
0:00:00.00 62775 N 0 0 0
0:00:00.00 63184 N 0 0 0
0:00:00.00 63554 N 0 0 0
0:00:00.00 63902 N 0 0 0
0:00:00.00 64258 N 0 0 0
0:00:00.00 64642 N 0 0 0
0:00:00.00 65045 N 0 0 0
0:00:00.00 65419 N 0 0 0
0:00:00.00 65794 N 0 0 0
0:00:00.00 66179 N 0 0 0
0:00:00.00 66551 N 0 0 0
0:00:00.00 66886 N 0 0 0
0:00:00.00 67221 N 0 0 0
0:00:00.00 67590 N 0 0 0
0:00:00.00 68000 N 0 0 0
0:00:00.00 68314 N 0 0 0
0:00:00.00 68596 N 0 0 0
0:00:00.00 68882 N 0 0 0
0:00:00.00 69221 N 0 0 0
0:00:00.00 69538 N 0 0 0
0:00:00.00 69869 N 0 0 0
0:00:00.00 70322 N 0 0 0
0:00:00.00 70772 N 0 0 0
0:00:00.00 71168 N 0 0 0
0:00:00.00 71624 N 0 0 0
0:00:00.00 72049 N 0 0 0
0:00:00.00 72477 N 0 0 0
0:00:00.00 72868 N 0 0 0
0:00:00.00 73255 N 0 0 0
0:00:00.00 73676 N 0 0 0
0:00:00.00 74108 N 0 0 0
0:00:00.00 74497 N 0 0 0
0:00:00.00 74848 N 0 0 0
0:00:00.00 75217 N 0 0 0
0:00:00.00 75638 N 0 0 0
0:00:00.00 76043 N 0 0 0
0:00:00.00 76399 N 0 0 0
0:00:00.00 76786 N 0 0 0
0:00:00.00 77168 N 0 0 0
0:00:00.00 77526 N 0 0 0
0:00:00.00 77873 N 0 0 0
0:00:00.00 78230 N 0 0 0
0:00:00.00 78599 N 0 0 0
0:00:00.00 78975 N 0 0 0
0:00:00.00 79344 N 0 0 0
0:00:00.00 79682 N 0 0 0
0:00:00.00 80073 N 0 0 0
0:00:00.00 80485 N 0 0 0
0:00:00.00 80867 N 0 0 0
0:00:00.00 81180 N 0 0 0
0:00:00.00 81495 N 0 0 0
0:00:00.00 81851 N 0 0 0
0:00:00.00 82269 N 0 0 0
0:00:00.00 82660 N 0 0 0
0:00:00.00 83038 N 0 0 0
0:00:00.00 83434 N 0 0 0
0:00:00.00 83806 N 0 0 0
0:00:00.00 84159 N 0 0 0
0:00:00.00 84537 N 0 0 0
0:00:00.00 84913 N 0 0 0
0:00:00.00 85291 N 0 0 0
0:00:00.00 85631 N 0 0 0
0:00:00.00 85984 N 0 0 0
0:00:00.00 86377 N 0 0 0
0:00:00.00 86800 N 0 0 0
0:00:00.00 87158 N 0 0 0
0:00:00.00 87505 N 0 0 0
0:00:00.00 87858 N 0 0 0
0:00:00.00 88182 N 0 0 0
0:00:00.00 88560 N 0 0 0
0:00:00.00 88983 N 0 0 0
0:00:00.00 89399 N 0 0 0
0:00:00.00 89759 N 0 0 0
0:00:00.00 90140 N 0 0 0
0:00:00.00 90526 N 0 0 0
0:00:00.00 90925 N 0 0 0
0:00:00.00 91278 N 0 0 0
0:00:00.00 91636 N 0 0 0
0:00:00.00 92034 N 0 0 0
0:00:00.00 92414 N 0 0 0
0:00:00.00 92761 N 0 0 0
0:00:00.00 93150 N 0 0 0
0:00:00.00 93569 N 0 0 0
0:00:00.00 93956 N 0 0 0
0:00:00.00 94320 N 0 0 0
0:00:00.00 94689 N 0 0 0
0:00:00.00 95087 N 0 0 0
0:00:00.00 95485 N 0 0 0
0:00:00.00 95839 N 0 0 0
0:00:00.00 96221 N 0 0 0
0:00:00.00 96604 N 0 0 0
0:00:00.00 96988 N 0 0 0
0:00:00.00 97364 N 0 0 0
0:00:00.00 97726 N 0 0 0
0:00:00.00 98089 N 0 0 0
0:00:00.00 98460 N 0 0 0
0:00:00.00 98800 N 0 0 0
0:00:00.00 99149 N 0 0 0
0:00:00.00 99583 N 0 0 0
0:00:00.00 99988 N 0 0 0
0:00:00.00 100355 N 0 0 0
0:00:00.00 100742 N 0 0 0
0:00:00.00 101131 N 0 0 0
0:00:00.00 101513 N 0 0 0
0:00:00.00 101855 N 0 0 0
0:00:00.00 102202 N 0 0 0
0:00:00.00 102562 N 0 0 0
0:00:00.00 102931 N 0 0 0
0:00:00.00 103253 N 0 0 0
0:00:00.00 103597 N 0 0 0
0:00:00.00 104015 N 0 0 0
0:00:00.00 104416 N 0 0 0
0:00:00.00 104798 N 0 0 0
0:00:00.00 105174 N 0 0 0
0:00:00.00 105552 N 0 0 0
0:00:00.00 105952 N 0 0 0
0:00:00.00 106315 N 0 0 0
0:00:00.00 106673 N 0 0 0
0:00:00.00 107064 N 0 0 0
0:00:00.00 107440 N 0 0 0
0:00:00.00 107762 N 0 0 0
0:00:00.00 108128 N 0 0 0
0:00:00.00 108538 N 0 0 0
0:00:00.00 108934 N 0 0 0
0:00:00.00 109283 N 0 0 0
0:00:00.00 109643 N 0 0 0
0:00:00.00 110025 N 0 0 0
0:00:00.00 110426 N 0 0 0
0:00:00.00 110799 N 0 0 0
0:00:00.00 111119 N 0 0 0
0:00:00.00 111472 N 0 0 0
0:00:00.00 111829 N 0 0 0
0:00:00.00 112149 N 0 0 0
0:00:00.00 112552 N 0 0 0
0:00:00.00 112975 N 0 0 0
0:00:00.00 113366 N 0 0 0
0:00:00.00 113719 N 0 0 0
0:00:00.00 114086 N 0 0 0
0:00:00.00 114475 N 0 0 0
0:00:00.00 114849 N 0 0 0
0:00:00.00 115218 N 0 0 0
0:00:00.00 115598 N 0 0 0
0:00:00.00 115970 N 0 0 0
0:00:00.00 116303 N 0 0 0
0:00:00.00 116683 N 0 0 0
0:00:00.00 117065 N 0 0 0
0:00:00.00 117437 N 0 0 0
0:00:00.00 117788 N 0 0 0
0:00:00.00 118147 N 0 0 0
0:00:00.00 118516 N 0 0 0
0:00:00.00 118926 N 0 0 0
0:00:00.00 119306 N 0 0 0
0:00:00.00 119669 N 0 0 0
0:00:00.00 120062 N 0 0 0
0:00:00.00 120454 N 0 0 0
0:00:00.00 120796 N 0 0 0
0:00:00.00 121147 N 0 0 0
0:00:00.00 121538 N 0 0 0
0:00:00.00 121948 N 0 0 0
0:00:00.00 122324 N 0 0 0
0:00:00.00 122717 N 0 0 0
0:00:00.00 123127 N 0 0 0
0:00:00.00 123550 N 0 0 0
0:00:00.00 123926 N 0 0 0
0:00:00.00 124310 N 0 0 0
0:00:00.00 124697 N 0 0 0
0:00:00.00 125080 N 0 0 0
0:00:00.00 125473 N 0 0 0
0:00:00.00 125870 N 0 0 0
0:00:00.00 126257 N 0 0 0
0:00:00.00 126644 N 0 0 0
0:00:00.00 126999 N 0 0 0
0:00:00.00 127363 N 0 0 0
0:00:00.00 127793 N 0 0 0
0:00:00.00 128173 N 0 0 0
0:00:00.00 128509 N 0 0 0
0:00:00.00 128857 N 0 0 0
0:00:00.00 129220 N 0 0 0
0:00:00.00 129604 N 0 0 0
0:00:00.00 129960 N 0 0 0
0:00:00.00 130331 N 0 0 0
0:00:00.00 130709 N 0 0 0
0:00:00.00 131080 N 0 0 0
0:00:00.00 131398 N 0 0 0
0:00:00.00 131769 N 0 0 0
0:00:00.00 132160 N 0 0 0
0:00:00.00 132523 N 0 0 0
0:00:00.00 132883 N 0 0 0
0:00:00.00 133236 N 0 0 0
0:00:00.00 133619 N 0 0 0
0:00:00.00 134030 N 0 0 0
0:00:00.00 134397 N 0 0 0
0:00:00.00 134743 N 0 0 0
0:00:00.00 135124 N 0 0 0
0:00:00.00 135522 N 0 0 0
0:00:00.00 135844 N 0 0 0
0:00:00.00 136190 N 0 0 0
0:00:00.00 136588 N 0 0 0
0:00:00.00 136996 N 0 0 0
0:00:00.00 137371 N 0 0 0
0:00:00.00 137756 N 0 0 0
0:00:00.00 138146 N 0 0 0
0:00:00.00 138537 N 0 0 0
0:00:00.00 138897 N 0 0 0
0:00:00.00 139277 N 0 0 0
0:00:00.00 139662 N 0 0 0
0:00:00.00 140006 N 0 0 0
0:00:00.00 140368 N 0 0 0
0:00:00.00 140746 N 0 0 0
0:00:00.00 141133 N 0 0 0
0:00:00.00 141521 N 0 0 0
0:00:00.00 141878 N 0 0 0
0:00:00.00 142056 N 0 0 0
0:00:00.00 142412 N 0 0 0
0:00:00.00 142787 N 0 0 0
0:00:00.00 143138 N 0 0 0
0:00:00.00 143456 N 0 0 0
0:00:00.00 143815 N 0 0 0
0:00:00.00 144212 N 0 0 0
0:00:00.00 144590 N 0 0 0
0:00:00.00 145008 N 0 0 0
0:00:00.00 145420 N 0 0 0
0:00:00.00 145811 N 0 0 0
0:00:00.00 146169 N 0 0 0
0:00:00.00 146531 N 0 0 0
0:00:00.00 146716 N 0 0 0
0:00:00.00 147136 N 0 0 0
0:00:00.00 147506 N 0 0 0
0:00:00.00 147881 N 0 0 0
0:00:00.00 148277 N 0 0 0
0:00:00.00 148642 N 0 0 0
0:00:00.00 148986 N 0 0 0
0:00:00.00 149377 N 0 0 0
0:00:00.00 149789 N 0 0 0
0:00:00.00 150161 N 0 0 0
0:00:00.00 150511 N 0 0 0
0:00:00.00 150883 N 0 0 0
0:00:00.00 151299 N 0 0 0
0:00:00.00 151691 N 0 0 0
0:00:00.00 152035 N 0 0 0
0:00:00.00 152404 N 0 0 0
0:00:00.00 152770 N 0 0 0
0:00:00.00 153130 N 0 0 0
0:00:00.00 153504 N 0 0 0
0:00:00.00 153884 N 0 0 0
0:00:00.00 154262 N 0 0 0
0:00:00.00 154645 N 0 0 0
0:00:00.00 154987 N 0 0 0
0:00:00.00 155329 N 0 0 0
0:00:00.00 155743 N 0 0 0
0:00:00.00 156143 N 0 0 0
0:00:00.00 156488 N 0 0 0
0:00:00.00 156861 N 0 0 0
0:00:00.00 157241 N 0 0 0
0:00:00.00 157613 N 0 0 0
0:00:00.00 158013 N 0 0 0
0:00:00.00 158423 N 0 0 0
0:00:00.00 158807 N 0 0 0
0:00:00.00 159129 N 0 0 0
0:00:00.00 159491 N 0 0 0
0:00:00.00 159914 N 0 0 0
0:00:00.00 160322 N 0 0 0
0:00:00.00 160679 N 0 0 0
0:00:00.00 161064 N 0 0 0
0:00:00.00 161435 N 0 0 0
0:00:00.00 161813 N 0 0 0
0:00:00.00 162196 N 0 0 0
0:00:00.00 162589 N 0 0 0
0:00:00.00 162970 N 0 0 0
0:00:00.00 163341 N 0 0 0
0:00:00.00 163681 N 0 0 0
0:00:00.00 164038 N 0 0 0
0:00:00.00 164446 N 0 0 0
0:00:00.00 164839 N 0 0 0
0:00:00.00 165188 N 0 0 0
0:00:00.00 165546 N 0 0 0
0:00:00.00 165926 N 0 0 0
0:00:00.00 166336 N 0 0 0
0:00:00.00 166700 N 0 0 0
0:00:00.00 167062 N 0 0 0
0:00:00.00 167445 N 0 0 0
0:00:00.00 167823 N 0 0 0
0:00:00.00 168145 N 0 0 0
0:00:00.00 168534 N 0 0 0
0:00:00.00 168944 N 0 0 0
0:00:00.00 169317 N 0 0 0
0:00:00.00 169670 N 0 0 0
0:00:00.00 170033 N 0 0 0
0:00:00.00 170384 N 0 0 0
0:00:00.00 170761 N 0 0 0
0:00:00.00 171121 N 0 0 0
0:00:00.00 171479 N 0 0 0
0:00:00.00 171850 N 0 0 0
0:00:00.00 172228 N 0 0 0
0:00:00.00 172575 N 0 0 0
0:00:00.00 172960 N 0 0 0
0:00:00.00 173338 N 0 0 0
0:00:00.00 173713 N 0 0 0
0:00:00.00 174042 N 0 0 0
0:00:00.00 174388 N 0 0 0
0:00:00.00 174748 N 0 0 0
0:00:00.00 175142 N 0 0 0
0:00:00.00 175511 N 0 0 0
0:00:00.00 175876 N 0 0 0
0:00:00.00 176267 N 0 0 0
0:00:00.00 176627 N 0 0 0
0:00:00.00 176940 N 0 0 0
0:00:00.00 177316 N 0 0 0
0:00:00.00 177718 N 0 0 0
0:00:00.00 178105 N 0 0 0
0:00:00.00 178443 N 0 0 0
0:00:00.00 178803 N 0 0 0
0:00:00.00 179185 N 0 0 0
0:00:00.00 179581 N 0 0 0
0:00:00.00 179942 N 0 0 0
0:00:00.00 180308 N 0 0 0
0:00:00.00 180670 N 0 0 0
0:00:00.00 181022 N 0 0 0
0:00:00.00 181375 N 0 0 0
0:00:00.00 181741 N 0 0 0
0:00:00.00 182115 N 0 0 0
0:00:00.00 182482 N 0 0 0
0:00:00.00 182842 N 0 0 0
0:00:00.00 183024 N 0 0 0
0:00:00.00 183389 N 0 0 0
0:00:00.00 183803 N 0 0 0
0:00:00.00 184196 N 0 0 0
0:00:00.00 184550 N 0 0 0
0:00:00.00 184918 N 0 0 0
0:00:00.00 185296 N 0 0 0
0:00:00.00 185645 N 0 0 0
0:00:00.00 185983 N 0 0 0
0:00:00.00 186332 N 0 0 0
0:00:00.00 186719 N 0 0 0
0:00:00.00 187061 N 0 0 0
0:00:00.00 187403 N 0 0 0
0:00:00.00 187776 N 0 0 0
0:00:00.00 188208 N 0 0 0
0:00:00.00 188573 N 0 0 0
0:00:00.00 188935 N 0 0 0
0:00:00.00 189320 N 0 0 0
0:00:00.00 189688 N 0 0 0
0:00:00.00 190053 N 0 0 0
0:00:00.00 190422 N 0 0 0
0:00:00.00 190805 N 0 0 0
0:00:00.00 191178 N 0 0 0
0:00:00.00 191509 N 0 0 0
0:00:00.00 191849 N 0 0 0
0:00:00.00 192238 N 0 0 0
0:00:00.00 192636 N 0 0 0
0:00:00.00 192974 N 0 0 0
0:00:00.00 193331 N 0 0 0
0:00:00.00 193687 N 0 0 0
0:00:00.00 194045 N 0 0 0
0:00:00.00 194425 N 0 0 0
0:00:00.00 194796 N 0 0 0
0:00:00.00 195179 N 0 0 0
0:00:00.00 195563 N 0 0 0
0:00:00.00 195926 N 0 0 0
0:00:00.00 196276 N 0 0 0
0:00:00.00 196704 N 0 0 0
0:00:00.00 197100 N 0 0 0
0:00:00.00 197428 N 0 0 0
0:00:00.00 197797 N 0 0 0
0:00:00.00 198182 N 0 0 0
0:00:00.00 198549 N 0 0 0
0:00:00.00 198941 N 0 0 0
0:00:00.00 199346 N 0 0 0
0:00:00.00 199721 N 0 0 0
0:00:00.00 200054 N 0 0 0
0:00:00.00 200378 N 0 0 0
0:00:00.00 200709 N 0 0 0
0:00:00.00 201130 N 0 0 0
0:00:00.00 201506 N 0 0 0
0:00:00.00 201899 N 0 0 0
0:00:00.00 202293 N 0 0 0
0:00:00.00 202653 N 0 0 0
0:00:00.00 203008 N 0 0 0
0:00:00.00 203398 N 0 0 0
0:00:00.00 203780 N 0 0 0
0:00:00.00 204161 N 0 0 0
0:00:00.00 204523 N 0 0 0
0:00:00.00 204871 N 0 0 0
0:00:00.00 205272 N 0 0 0
0:00:00.00 205666 N 0 0 0
0:00:00.00 206019 N 0 0 0
0:00:00.00 206352 N 0 0 0
0:00:00.00 206708 N 0 0 0
0:00:00.00 207059 N 0 0 0
0:00:00.00 207405 N 0 0 0
0:00:00.00 207767 N 0 0 0
0:00:00.00 208143 N 0 0 0
0:00:00.00 208530 N 0 0 0
0:00:00.00 208861 N 0 0 0
0:00:00.00 209165 N 0 0 0
0:00:00.00 209576 N 0 0 0
0:00:00.00 209977 N 0 0 0
0:00:00.00 210335 N 0 0 0
0:00:00.00 210704 N 0 0 0
0:00:00.00 211088 N 0 0 0
0:00:00.00 211459 N 0 0 0
0:00:00.00 211831 N 0 0 0
0:00:00.00 212236 N 0 0 0
0:00:00.00 212614 N 0 0 0
0:00:00.00 212999 N 0 0 0
0:00:00.00 213365 N 0 0 0
0:00:00.00 213710 N 0 0 0
0:00:00.00 214097 N 0 0 0
0:00:00.00 214490 N 0 0 0
0:00:00.00 214866 N 0 0 0
0:00:00.00 215195 N 0 0 0
0:00:00.00 215554 N 0 0 0
0:00:00.00 215951 N 0 0 0
0:00:00.00 216358 N 0 0 0
0:00:00.00 216711 N 0 0 0
0:00:00.00 217089 N 0 0 0
0:00:00.00 217481 N 0 0 0
0:00:00.00 217823 N 0 0 0
0:00:00.00 218176 N 0 0 0
0:00:00.00 218554 N 0 0 0
0:00:00.00 218923 N 0 0 0
0:00:00.00 219274 N 0 0 0
0:00:00.00 219595 N 0 0 0
0:00:00.00 219944 N 0 0 0
0:00:00.00 220336 N 0 0 0
0:00:00.00 220703 N 0 0 0
0:00:00.00 221042 N 0 0 0
0:00:00.00 221400 N 0 0 0
0:00:00.00 221758 N 0 0 0
0:00:00.00 222086 N 0 0 0
0:00:00.00 222455 N 0 0 0
0:00:00.00 222849 N 0 0 0
0:00:00.00 223227 N 0 0 0
0:00:00.00 223616 N 0 0 0
0:00:00.00 223976 N 0 0 0
0:00:00.00 224341 N 0 0 0
0:00:00.00 224753 N 0 0 0
0:00:00.00 225149 N 0 0 0
0:00:00.00 225488 N 0 0 0
0:00:00.00 225855 N 0 0 0
0:00:00.00 226229 N 0 0 0
0:00:00.00 226593 N 0 0 0
0:00:00.00 226967 N 0 0 0
0:00:00.00 227353 N 0 0 0
0:00:00.00 227723 N 0 0 0
0:00:00.00 228074 N 0 0 0
0:00:00.00 228388 N 0 0 0
0:00:00.00 228704 N 0 0 0
0:00:00.00 229093 N 0 0 0
0:00:00.00 229491 N 0 0 0
0:00:00.00 229851 N 0 0 0
0:00:00.00 230216 N 0 0 0
0:00:00.00 230582 N 0 0 0
0:00:00.00 230936 N 0 0 0
0:00:00.00 231302 N 0 0 0
0:00:00.00 231692 N 0 0 0
0:00:00.00 232065 N 0 0 0
0:00:00.00 232414 N 0 0 0
0:00:00.00 232767 N 0 0 0
0:00:00.00 233127 N 0 0 0
0:00:00.00 233541 N 0 0 0
0:00:00.00 233919 N 0 0 0
0:00:00.00 234272 N 0 0 0
0:00:00.00 234644 N 0 0 0
0:00:00.00 235010 N 0 0 0
0:00:00.00 235400 N 0 0 0
0:00:00.00 235753 N 0 0 0
0:00:00.00 236111 N 0 0 0
0:00:00.00 236489 N 0 0 0
0:00:00.00 236871 N 0 0 0
0:00:00.00 237209 N 0 0 0
0:00:00.00 237611 N 0 0 0
0:00:00.00 238030 N 0 0 0
0:00:00.00 238388 N 0 0 0
0:00:00.00 238723 N 0 0 0
0:00:00.00 239069 N 0 0 0
0:00:00.00 239425 N 0 0 0
0:00:00.00 239823 N 0 0 0
0:00:00.00 240201 N 0 0 0
0:00:00.00 240579 N 0 0 0
0:00:00.00 240946 N 0 0 0
0:00:00.00 241294 N 0 0 0
0:00:00.00 241605 N 0 0 0
0:00:00.00 241965 N 0 0 0
0:00:00.00 242314 N 0 0 0
0:00:00.00 242681 N 0 0 0
0:00:00.00 243041 N 0 0 0
0:00:00.00 243383 N 0 0 0
0:00:00.00 243713 N 0 0 0
0:00:00.00 244084 N 0 0 0
0:00:00.00 244436 N 0 0 0
0:00:00.00 244778 N 0 0 0
0:00:00.00 245167 N 0 0 0
0:00:00.00 245552 N 0 0 0
0:00:00.00 245884 N 0 0 0
0:00:00.00 246265 N 0 0 0
0:00:00.00 246667 N 0 0 0
0:00:00.00 247054 N 0 0 0
0:00:00.00 247397 N 0 0 0
0:00:00.00 247748 N 0 0 0
0:00:00.00 248108 N 0 0 0
0:00:00.00 248504 N 0 0 0
0:00:00.00 248864 N 0 0 0
0:00:00.00 249199 N 0 0 0
0:00:00.00 249565 N 0 0 0
0:00:00.00 249946 N 0 0 0
0:00:00.00 250297 N 0 0 0
0:00:00.00 250702 N 0 0 0
0:00:00.00 251100 N 0 0 0
0:00:00.00 251473 N 0 0 0
0:00:00.00 251815 N 0 0 0
0:00:00.00 252167 N 0 0 0
0:00:00.00 252531 N 0 0 0
0:00:00.00 252941 N 0 0 0
0:00:00.00 253318 N 0 0 0
0:00:00.00 253678 N 0 0 0
0:00:00.00 254036 N 0 0 0
0:00:00.00 254374 N 0 0 0
0:00:00.00 254686 N 0 0 0
0:00:00.00 254981 N 0 0 0
0:00:00.00 255258 N 0 0 0
0:00:00.00 255553 N 0 0 0
0:00:00.00 255848 N 0 0 0
0:00:00.00 256124 N 0 0 0
0:00:00.00 256383 N 0 0 0
0:00:00.00 256664 N 0 0 0
0:00:00.00 257150 N 0 0 0
0:00:00.00 257596 N 0 0 0
0:00:00.00 257935 N 0 0 0
0:00:00.00 258232 N 0 0 0
0:00:00.00 258520 N 0 0 0
0:00:00.00 258793 N 0 0 0
0:00:00.00 259229 N 0 0 0
0:00:00.00 259637 N 0 0 0
0:00:00.00 260012 N 0 0 0
0:00:00.00 260379 N 0 0 0
0:00:00.00 260775 N 0 0 0
0:00:00.00 261171 N 0 0 0
0:00:00.00 261578 N 0 0 0
0:00:00.00 261979 N 0 0 0
0:00:00.00 262372 N 0 0 0
0:00:00.00 262706 N 0 0 0
0:00:00.00 263005 N 0 0 0
0:00:00.00 263324 N 0 0 0
0:00:00.00 263687 N 0 0 0
0:00:00.00 264064 N 0 0 0
0:00:00.00 264438 N 0 0 0
0:00:00.00 264821 N 0 0 0
0:00:00.00 265180 N 0 0 0
0:00:00.00 265502 N 0 0 0
0:00:00.00 265846 N 0 0 0
0:00:00.00 266170 N 0 0 0
0:00:00.00 266521 N 0 0 0
0:00:00.00 266906 N 0 0 0
0:00:00.00 267295 N 0 0 0
0:00:00.00 267637 N 0 0 0
0:00:00.00 267959 N 0 0 0
0:00:00.00 268261 N 0 0 0
0:00:00.00 268542 N 0 0 0
0:00:00.00 268816 N 0 0 0
0:00:00.00 269084 N 0 0 0
0:00:00.00 269348 N 0 0 0
0:00:00.00 269591 N 0 0 0
0:00:00.00 269881 N 0 0 0
0:00:00.00 270250 N 0 0 0
0:00:00.00 270605 N 0 0 0
0:00:00.00 270945 N 0 0 0
0:00:00.00 271361 N 0 0 0
0:00:00.00 271753 N 0 0 0
0:00:00.00 272183 N 0 0 0
0:00:00.00 272612 N 0 0 0
0:00:00.00 273006 N 0 0 0
0:00:00.00 273415 N 0 0 0
0:00:00.00 273820 N 0 0 0
0:00:00.00 274199 N 0 0 0
0:00:00.00 274579 N 0 0 0
0:00:00.00 274937 N 0 0 0
0:00:00.00 275308 N 0 0 0
0:00:00.00 275688 N 0 0 0
0:00:00.00 276048 N 0 0 0
0:00:00.00 276460 N 0 0 0
0:00:00.00 276876 N 0 0 0
0:00:00.00 277276 N 0 0 0
0:00:00.00 277654 N 0 0 0
0:00:00.00 277974 N 0 0 0
0:00:00.00 278285 N 0 0 0
0:00:00.00 278694 N 0 0 0
0:00:00.00 279097 N 0 0 0
0:00:00.00 279454 N 0 0 0
0:00:00.00 279860 N 0 0 0
0:00:00.00 280264 N 0 0 0
0:00:00.00 280656 N 0 0 0
0:00:00.00 281047 N 0 0 0
0:00:00.00 281421 N 0 0 0
0:00:00.00 281783 N 0 0 0
0:00:00.00 282143 N 0 0 0
0:00:00.00 282485 N 0 0 0
0:00:00.00 282800 N 0 0 0
0:00:00.00 283131 N 0 0 0
0:00:00.00 283527 N 0 0 0
0:00:00.00 283928 N 0 0 0
0:00:00.00 284297 N 0 0 0
0:00:00.00 284665 N 0 0 0
0:00:00.00 285070 N 0 0 0
0:00:00.00 285491 N 0 0 0
0:00:00.00 285878 N 0 0 0
0:00:00.00 286238 N 0 0 0
0:00:00.00 286587 N 0 0 0
0:00:00.00 286940 N 0 0 0
0:00:00.00 287338 N 0 0 0
0:00:00.00 287710 N 0 0 0
0:00:00.00 288070 N 0 0 0
0:00:00.00 288452 N 0 0 0
0:00:00.00 288830 N 0 0 0
0:00:00.00 289163 N 0 0 0
0:00:00.00 289492 N 0 0 0
0:00:00.00 289859 N 0 0 0
0:00:00.00 290245 N 0 0 0
0:00:00.00 290615 N 0 0 0
0:00:00.00 290943 N 0 0 0
0:00:00.00 291278 N 0 0 0
0:00:00.00 291703 N 0 0 0
0:00:00.00 292099 N 0 0 0
0:00:00.00 292435 N 0 0 0
0:00:00.00 292779 N 0 0 0
0:00:00.00 293141 N 0 0 0
0:00:00.00 293488 N 0 0 0
0:00:00.00 293848 N 0 0 0
0:00:00.00 294212 N 0 0 0
0:00:00.00 294574 N 0 0 0
0:00:00.00 294944 N 0 0 0
0:00:00.00 295292 N 0 0 0
0:00:00.00 295630 N 0 0 0
0:00:00.00 295996 N 0 0 0
0:00:00.00 296363 N 0 0 0
0:00:00.00 296707 N 0 0 0
0:00:00.00 297041 N 0 0 0
0:00:00.00 297385 N 0 0 0
0:00:00.00 297751 N 0 0 0
0:00:00.00 298112 N 0 0 0
0:00:00.00 298431 N 0 0 0
0:00:00.00 298775 N 0 0 0
0:00:00.00 299201 N 0 0 0
0:00:00.00 299599 N 0 0 0
0:00:00.00 299956 N 0 0 0
0:00:00.00 300391 N 0 0 0
0:00:00.00 300836 N 0 0 0
0:00:00.00 301217 N 0 0 0
0:00:00.00 301534 N 0 0 0
0:00:00.00 301878 N 0 0 0
0:00:00.00 302272 N 0 0 0
0:00:00.00 302692 N 0 0 0
0:00:00.00 303059 N 0 0 0
0:00:00.00 303431 N 0 0 0
0:00:00.00 303820 N 0 0 0
0:00:00.00 304195 N 0 0 0
0:00:00.00 304621 N 0 0 0
0:00:00.00 305028 N 0 0 0
0:00:00.00 305422 N 0 0 0
0:00:00.00 305771 N 0 0 0
0:00:00.00 306088 N 0 0 0
0:00:00.00 306441 N 0 0 0
0:00:00.00 306880 N 0 0 0
0:00:00.00 307267 N 0 0 0
0:00:00.00 307643 N 0 0 0
0:00:00.00 308043 N 0 0 0
0:00:00.00 308435 N 0 0 0
0:00:00.00 308830 N 0 0 0
0:00:00.00 309260 N 0 0 0
0:00:00.00 309676 N 0 0 0
0:00:00.00 310059 N 0 0 0
0:00:00.00 310401 N 0 0 0
0:00:00.00 310741 N 0 0 0
0:00:00.00 311146 N 0 0 0
0:00:00.00 311546 N 0 0 0
0:00:00.00 311917 N 0 0 0
0:00:00.00 312257 N 0 0 0
0:00:00.00 312599 N 0 0 0
0:00:00.00 312961 N 0 0 0
0:00:00.00 313378 N 0 0 0
0:00:00.00 313733 N 0 0 0
0:00:00.00 314068 N 0 0 0
0:00:00.00 314455 N 0 0 0
0:00:00.00 314836 N 0 0 0
0:00:00.00 315191 N 0 0 0
0:00:00.00 315589 N 0 0 0
0:00:00.00 315997 N 0 0 0
0:00:00.00 316366 N 0 0 0
0:00:00.00 316694 N 0 0 0
0:00:00.00 317048 N 0 0 0
0:00:00.00 317430 N 0 0 0
0:00:00.00 317792 N 0 0 0
0:00:00.00 318121 N 0 0 0
0:00:00.00 318476 N 0 0 0
0:00:00.00 318839 N 0 0 0
0:00:00.00 319165 N 0 0 0
0:00:00.00 319523 N 0 0 0
0:00:00.00 319925 N 0 0 0
0:00:00.00 320299 N 0 0 0
0:00:00.00 320634 N 0 0 0
0:00:00.00 320976 N 0 0 0
0:00:00.00 321320 N 0 0 0
0:00:00.00 321660 N 0 0 0
0:00:00.00 322002 N 0 0 0
0:00:00.00 322357 N 0 0 0
0:00:00.00 322702 N 0 0 0
0:00:00.00 323068 N 0 0 0
0:00:00.00 323381 N 0 0 0
0:00:00.00 323689 N 0 0 0
0:00:00.00 324032 N 0 0 0
0:00:00.00 324376 N 0 0 0
0:00:00.00 324700 N 0 0 0
0:00:00.00 325069 N 0 0 0
0:00:00.00 325444 N 0 0 0
0:00:00.00 325798 N 0 0 0
0:00:00.00 326160 N 0 0 0
0:00:00.00 326551 N 0 0 0
0:00:00.00 326936 N 0 0 0
0:00:00.00 327332 N 0 0 0
0:00:00.00 327677 N 0 0 0
0:00:00.00 327994 N 0 0 0
0:00:00.00 328390 N 0 0 0
0:00:00.00 328817 N 0 0 0
0:00:00.00 329191 N 0 0 0
0:00:00.00 329549 N 0 0 0
0:00:00.00 329942 N 0 0 0
0:00:00.00 330318 N 0 0 0
0:00:00.00 330669 N 0 0 0
0:00:00.00 331043 N 0 0 0
0:00:00.00 331432 N 0 0 0
0:00:00.00 331772 N 0 0 0
0:00:00.00 332084 N 0 0 0
0:00:00.00 332408 N 0 0 0
0:00:00.00 332786 N 0 0 0
0:00:00.00 333110 N 0 0 0
0:00:00.00 333434 N 0 0 0
0:00:00.00 333859 N 0 0 0
0:00:00.00 334264 N 0 0 0
0:00:00.00 334625 N 0 0 0
0:00:00.00 335045 N 0 0 0
0:00:00.00 335430 N 0 0 0
0:00:00.00 335758 N 0 0 0
0:00:00.00 336065 N 0 0 0
0:00:00.00 336400 N 0 0 0
0:00:00.00 336762 N 0 0 0
0:00:00.00 337117 N 0 0 0
0:00:00.00 337489 N 0 0 0
0:00:00.00 337869 N 0 0 0
0:00:00.00 338227 N 0 0 0
0:00:00.00 338551 N 0 0 0
0:00:00.00 338899 N 0 0 0
0:00:00.00 339307 N 0 0 0
0:00:00.00 339689 N 0 0 0
0:00:00.00 340013 N 0 0 0
0:00:00.00 340330 N 0 0 0
0:00:00.00 340655 N 0 0 0
0:00:00.00 340990 N 0 0 0
0:00:00.00 341334 N 0 0 0
0:00:00.00 341689 N 0 0 0
0:00:00.00 342038 N 0 0 0
0:00:00.00 342419 N 0 0 0
0:00:00.00 342758 N 0 0 0
0:00:00.00 343094 N 0 0 0
0:00:00.00 343505 N 0 0 0
0:00:00.00 343899 N 0 0 0
0:00:00.00 344236 N 0 0 0
0:00:00.00 344563 N 0 0 0
0:00:00.00 344891 N 0 0 0
0:00:00.00 345229 N 0 0 0
0:00:00.00 345575 N 0 0 0
0:00:00.00 345919 N 0 0 0
0:00:00.00 346282 N 0 0 0
0:00:00.00 346680 N 0 0 0
0:00:00.00 347018 N 0 0 0
0:00:00.00 347337 N 0 0 0
0:00:00.00 347733 N 0 0 0
0:00:00.00 348093 N 0 0 0
0:00:00.00 348395 N 0 0 0
0:00:00.00 348712 N 0 0 0
0:00:00.00 349083 N 0 0 0
0:00:00.00 349447 N 0 0 0
0:00:00.00 349794 N 0 0 0
0:00:00.00 350201 N 0 0 0
0:00:00.00 350586 N 0 0 0
0:00:00.00 350937 N 0 0 0
0:00:00.00 351245 N 0 0 0
0:00:00.00 351553 N 0 0 0
0:00:00.00 351929 N 0 0 0
0:00:00.00 352357 N 0 0 0
0:00:00.00 352737 N 0 0 0
0:00:00.00 353117 N 0 0 0
0:00:00.00 353488 N 0 0 0
0:00:00.00 353815 N 0 0 0
0:00:00.00 354143 N 0 0 0
0:00:00.00 354472 N 0 0 0
0:00:00.00 354791 N 0 0 0
0:00:00.00 355099 N 0 0 0
0:00:00.00 355394 N 0 0 0
0:00:00.00 355664 N 0 0 0
0:00:00.00 355918 N 0 0 0
0:00:00.00 356216 N 0 0 0
0:00:00.00 356564 N 0 0 0
0:00:00.00 356974 N 0 0 0
0:00:00.00 357359 N 0 0 0
0:00:00.00 357755 N 0 0 0
0:00:00.00 358157 N 0 0 0
0:00:00.00 358558 N 0 0 0
0:00:00.00 358985 N 0 0 0
0:00:00.00 359386 N 0 0 0
0:00:00.00 359780 N 0 0 0
0:00:00.00 360135 N 0 0 0
0:00:00.00 360529 N 0 0 0
0:00:00.00 360932 N 0 0 0
0:00:00.00 361305 N 0 0 0
0:00:00.00 361642 N 0 0 0
0:00:00.00 361960 N 0 0 0
0:00:00.00 362304 N 0 0 0
0:00:00.00 362682 N 0 0 0
0:00:00.00 363091 N 0 0 0
0:00:00.00 363469 N 0 0 0
0:00:00.00 363821 N 0 0 0
0:00:00.00 364210 N 0 0 0
0:00:00.00 364556 N 0 0 0
0:00:00.00 364910 N 0 0 0
0:00:00.00 365213 N 0 0 0
0:00:00.00 365497 N 0 0 0
0:00:00.00 365798 N 0 0 0
0:00:00.00 366140 N 0 0 0
0:00:00.00 366415 N 0 0 0
0:00:00.00 366683 N 0 0 0
0:00:00.00 366984 N 0 0 0
0:00:00.00 367477 N 0 0 0
0:00:00.00 367902 N 0 0 0
0:00:00.00 368334 N 0 0 0
0:00:00.00 368752 N 0 0 0
0:00:00.00 369158 N 0 0 0
0:00:00.00 369590 N 0 0 0
0:00:00.00 369981 N 0 0 0
0:00:00.00 370373 N 0 0 0
0:00:00.00 370768 N 0 0 0
0:00:00.00 371164 N 0 0 0
0:00:00.00 371579 N 0 0 0
0:00:00.00 371966 N 0 0 0
0:00:00.00 372370 N 0 0 0
0:00:00.00 372766 N 0 0 0
0:00:00.00 373145 N 0 0 0
0:00:00.00 373523 N 0 0 0
0:00:00.00 373946 N 0 0 0
0:00:00.00 374346 N 0 0 0
0:00:00.00 374713 N 0 0 0
0:00:00.00 375055 N 0 0 0
0:00:00.00 375379 N 0 0 0
0:00:00.00 375784 N 0 0 0
0:00:00.00 376191 N 0 0 0
0:00:00.00 376522 N 0 0 0
0:00:00.00 376898 N 0 0 0
0:00:00.00 377303 N 0 0 0
0:00:00.00 377685 N 0 0 0
0:00:00.00 378032 N 0 0 0
0:00:00.00 378380 N 0 0 0
0:00:00.00 378733 N 0 0 0
0:00:00.00 379109 N 0 0 0
0:00:00.00 379462 N 0 0 0
0:00:00.00 379813 N 0 0 0
0:00:00.00 380248 N 0 0 0
0:00:00.00 380641 N 0 0 0
0:00:00.00 380995 N 0 0 0
0:00:00.00 381352 N 0 0 0
0:00:00.00 381731 N 0 0 0
0:00:00.00 382113 N 0 0 0
0:00:00.00 382511 N 0 0 0
0:00:00.00 382894 N 0 0 0
0:00:00.00 383279 N 0 0 0
0:00:00.00 383675 N 0 0 0
0:00:00.00 384030 N 0 0 0
0:00:00.00 384397 N 0 0 0
0:00:00.00 384791 N 0 0 0
0:00:00.00 385184 N 0 0 0
0:00:00.00 385555 N 0 0 0
0:00:00.00 385909 N 0 0 0
0:00:00.00 386271 N 0 0 0
0:00:00.00 386665 N 0 0 0
0:00:00.00 387027 N 0 0 0
0:00:00.00 387353 N 0 0 0
0:00:00.00 387751 N 0 0 0
0:00:00.00 388134 N 0 0 0
0:00:00.00 388481 N 0 0 0
0:00:00.00 388865 N 0 0 0
0:00:00.00 389239 N 0 0 0
0:00:00.00 389630 N 0 0 0
0:00:00.00 389986 N 0 0 0
0:00:00.00 390328 N 0 0 0
0:00:00.00 390701 N 0 0 0
0:00:00.00 391118 N 0 0 0
0:00:00.00 391489 N 0 0 0
0:00:00.00 391797 N 0 0 0
0:00:00.00 392155 N 0 0 0
0:00:00.00 392526 N 0 0 0
0:00:00.00 392895 N 0 0 0
0:00:00.00 393289 N 0 0 0
0:00:00.00 393678 N 0 0 0
0:00:00.00 394049 N 0 0 0
0:00:00.00 394362 N 0 0 0
0:00:00.00 394693 N 0 0 0
0:00:00.00 395048 N 0 0 0
0:00:00.00 395464 N 0 0 0
0:00:00.00 395813 N 0 0 0
0:00:00.00 396182 N 0 0 0
0:00:00.00 396578 N 0 0 0
0:00:00.00 396938 N 0 0 0
0:00:00.00 397296 N 0 0 0
0:00:00.00 397672 N 0 0 0
0:00:00.00 398054 N 0 0 0
0:00:00.00 398394 N 0 0 0
0:00:00.00 398700 N 0 0 0
0:00:00.00 399047 N 0 0 0
0:00:00.00 399440 N 0 0 0
0:00:00.00 399843 N 0 0 0
0:00:00.00 400205 N 0 0 0
0:00:00.00 400576 N 0 0 0
0:00:00.00 400945 N 0 0 0
0:00:00.00 401267 N 0 0 0
0:00:00.00 401652 N 0 0 0
0:00:00.00 402057 N 0 0 0
0:00:00.00 402435 N 0 0 0
0:00:00.00 402788 N 0 0 0
0:00:00.00 403169 N 0 0 0
0:00:00.00 403531 N 0 0 0
0:00:00.00 403916 N 0 0 0
0:00:00.00 404289 N 0 0 0
0:00:00.00 404662 N 0 0 0
0:00:00.00 405043 N 0 0 0
0:00:00.00 405396 N 0 0 0
0:00:00.00 405711 N 0 0 0
0:00:00.00 406085 N 0 0 0
0:00:00.00 406494 N 0 0 0
0:00:00.00 406903 N 0 0 0
0:00:00.00 407282 N 0 0 0
0:00:00.00 407673 N 0 0 0
0:00:00.00 408064 N 0 0 0
0:00:00.00 408483 N 0 0 0
0:00:00.00 408883 N 0 0 0
0:00:00.00 409282 N 0 0 0
0:00:00.00 409633 N 0 0 0
0:00:00.00 409981 N 0 0 0
0:00:00.00 410391 N 0 0 0
0:00:00.00 410758 N 0 0 0
0:00:00.00 411124 N 0 0 0
0:00:00.00 411473 N 0 0 0
0:00:00.00 411817 N 0 0 0
0:00:00.00 412108 N 0 0 0
0:00:00.00 412475 N 0 0 0
0:00:00.00 412870 N 0 0 0
0:00:00.00 413235 N 0 0 0
0:00:00.00 413564 N 0 0 0
0:00:00.00 413906 N 0 0 0
0:00:00.00 414243 N 0 0 0
0:00:00.00 414576 N 0 0 0
0:00:00.00 414893 N 0 0 0
0:00:00.00 415199 N 0 0 0
0:00:00.00 415503 N 0 0 0
0:00:00.00 415811 N 0 0 0
0:00:00.00 416093 N 0 0 0
0:00:00.00 416389 N 0 0 0
0:00:00.00 416731 N 0 0 0
0:00:00.00 417109 N 0 0 0
0:00:00.00 417434 N 0 0 0
0:00:00.00 417744 N 0 0 0
0:00:00.00 418079 N 0 0 0
0:00:00.00 418435 N 0 0 0
0:00:00.00 418741 N 0 0 0
0:00:00.00 419056 N 0 0 0
0:00:00.00 419382 N 0 0 0
0:00:00.00 419711 N 0 0 0
0:00:00.00 420005 N 0 0 0
0:00:00.00 420296 N 0 0 0
0:00:00.00 420619 N 0 0 0
0:00:00.00 421002 N 0 0 0
0:00:00.00 421389 N 0 0 0
0:00:00.00 421789 N 0 0 0
0:00:00.00 422177 N 0 0 0
0:00:00.00 422532 N 0 0 0
0:00:00.00 422912 N 0 0 0
0:00:00.00 423335 N 0 0 0
0:00:00.00 423711 N 0 0 0
0:00:00.00 424075 N 0 0 0
0:00:00.00 424471 N 0 0 0
0:00:00.00 424829 N 0 0 0
0:00:00.00 425191 N 0 0 0
0:00:00.00 425599 N 0 0 0
0:00:00.00 425979 N 0 0 0
0:00:00.00 426334 N 0 0 0
0:00:00.00 426706 N 0 0 0
0:00:00.00 427077 N 0 0 0
0:00:00.00 427403 N 0 0 0
0:00:00.00 427768 N 0 0 0
0:00:00.00 428200 N 0 0 0
0:00:00.00 428607 N 0 0 0
0:00:00.00 429003 N 0 0 0
0:00:00.00 429379 N 0 0 0
0:00:00.00 429809 N 0 0 0
0:00:00.00 430231 N 0 0 0
0:00:00.00 430618 N 0 0 0
0:00:00.00 431024 N 0 0 0
0:00:00.00 431431 N 0 0 0
0:00:00.00 431825 N 0 0 0
0:00:00.00 432274 N 0 0 0
0:00:00.00 432664 N 0 0 0
0:00:00.00 433028 N 0 0 0
0:00:00.00 433424 N 0 0 0
0:00:00.00 433818 N 0 0 0
0:00:00.00 434212 N 0 0 0
0:00:00.00 434601 N 0 0 0
0:00:00.00 434974 N 0 0 0
0:00:00.00 435317 N 0 0 0
0:00:00.00 435699 N 0 0 0
0:00:00.00 436091 N 0 0 0
0:00:00.00 436475 N 0 0 0
0:00:00.00 436838 N 0 0 0
0:00:00.00 437200 N 0 0 0
0:00:00.00 437571 N 0 0 0
0:00:00.00 437931 N 0 0 0
0:00:00.00 438334 N 0 0 0
0:00:00.00 438707 N 0 0 0
0:00:00.00 439065 N 0 0 0
0:00:00.00 439402 N 0 0 0
0:00:00.00 439738 N 0 0 0
0:00:00.00 440053 N 0 0 0
0:00:00.00 440410 N 0 0 0
0:00:00.00 440840 N 0 0 0
0:00:00.00 441243 N 0 0 0
0:00:00.00 441614 N 0 0 0
0:00:00.00 441976 N 0 0 0
0:00:00.00 442296 N 0 0 0
0:00:00.00 442620 N 0 0 0
0:00:00.00 442957 N 0 0 0
0:00:00.00 443300 N 0 0 0
0:00:00.00 443597 N 0 0 0
0:00:00.00 443898 N 0 0 0
0:00:00.00 444224 N 0 0 0
0:00:00.00 444569 N 0 0 0
0:00:00.00 444924 N 0 0 0
0:00:00.00 445257 N 0 0 0
0:00:00.00 445592 N 0 0 0
0:00:00.00 445927 N 0 0 0
0:00:00.00 446245 N 0 0 0
0:00:00.00 446544 N 0 0 0
0:00:00.00 446861 N 0 0 0
0:00:00.00 447214 N 0 0 0
0:00:00.00 447525 N 0 0 0
0:00:00.00 447799 N 0 0 0
0:00:00.00 448074 N 0 0 0
0:00:00.00 448358 N 0 0 0
0:00:00.00 448765 N 0 0 0
0:00:00.00 449179 N 0 0 0
0:00:00.00 449555 N 0 0 0
0:00:00.00 449932 N 0 0 0
0:00:00.00 450301 N 0 0 0
0:00:00.00 450625 N 0 0 0
0:00:00.00 450913 N 0 0 0
0:00:00.00 451237 N 0 0 0
0:00:00.00 451669 N 0 0 0
0:00:00.00 452054 N 0 0 0
0:00:00.00 452358 N 0 0 0
0:00:00.00 452659 N 0 0 0
0:00:00.00 452993 N 0 0 0
0:00:00.00 453366 N 0 0 0
0:00:00.00 453771 N 0 0 0
0:00:00.00 454136 N 0 0 0
0:00:00.00 454473 N 0 0 0
0:00:00.00 454847 N 0 0 0
0:00:00.00 455215 N 0 0 0
0:00:00.00 455522 N 0 0 0
0:00:00.00 455839 N 0 0 0
0:00:00.00 456183 N 0 0 0
0:00:00.00 456539 N 0 0 0
0:00:00.00 456905 N 0 0 0
0:00:00.00 457078 N 0 0 0
0:00:00.00 457420 N 0 0 0
0:00:00.00 457787 N 0 0 0
0:00:00.00 458152 N 0 0 0
0:00:00.00 458473 N 0 0 0
0:00:00.00 458795 N 0 0 0
0:00:00.00 459144 N 0 0 0
0:00:00.00 459473 N 0 0 0
0:00:00.00 459769 N 0 0 0
0:00:00.00 460094 N 0 0 0
0:00:00.00 460440 N 0 0 0
0:00:00.00 460796 N 0 0 0
0:00:00.00 461133 N 0 0 0
0:00:00.00 461473 N 0 0 0
0:00:00.00 461835 N 0 0 0
0:00:00.00 462235 N 0 0 0
0:00:00.00 462584 N 0 0 0
0:00:00.00 462947 N 0 0 0
0:00:00.00 463340 N 0 0 0
0:00:00.00 463725 N 0 0 0
0:00:00.00 464087 N 0 0 0
0:00:00.00 464522 N 0 0 0
0:00:00.00 464922 N 0 0 0
0:00:00.00 465287 N 0 0 0
0:00:00.00 465671 N 0 0 0
0:00:00.00 466052 N 0 0 0
0:00:00.00 466441 N 0 0 0
0:00:00.00 466857 N 0 0 0
0:00:00.00 467251 N 0 0 0
0:00:00.00 467608 N 0 0 0
0:00:00.00 467991 N 0 0 0
0:00:00.00 468380 N 0 0 0
0:00:00.00 468758 N 0 0 0
0:00:00.00 469163 N 0 0 0
0:00:00.00 469566 N 0 0 0
0:00:00.00 469912 N 0 0 0
0:00:00.00 470223 N 0 0 0
0:00:00.00 470617 N 0 0 0
0:00:00.00 471060 N 0 0 0
0:00:00.00 471422 N 0 0 0
0:00:00.00 471730 N 0 0 0
0:00:00.00 472072 N 0 0 0
0:00:00.00 472433 N 0 0 0
0:00:00.00 472802 N 0 0 0
0:00:00.00 473173 N 0 0 0
0:00:00.00 473551 N 0 0 0
0:00:00.00 473929 N 0 0 0
0:00:00.00 474271 N 0 0 0
0:00:00.00 474595 N 0 0 0
0:00:00.00 474941 N 0 0 0
0:00:00.00 475321 N 0 0 0
0:00:00.00 475672 N 0 0 0
0:00:00.00 476039 N 0 0 0
0:00:00.00 476413 N 0 0 0
0:00:00.00 476759 N 0 0 0
0:00:00.00 477065 N 0 0 0
0:00:00.00 477434 N 0 0 0
0:00:00.00 477808 N 0 0 0
0:00:00.00 478145 N 0 0 0
0:00:00.00 478469 N 0 0 0
0:00:00.00 478816 N 0 0 0
0:00:00.00 479198 N 0 0 0
0:00:00.00 479590 N 0 0 0
0:00:00.00 479961 N 0 0 0
0:00:00.00 480328 N 0 0 0
0:00:00.00 480701 N 0 0 0
0:00:00.00 481052 N 0 0 0
0:00:00.00 481221 N 0 0 0
0:00:00.00 481617 N 0 0 0
0:00:00.00 482036 N 0 0 0
0:00:00.00 482409 N 0 0 0
0:00:00.00 482747 N 0 0 0
0:00:00.00 483131 N 0 0 0
0:00:00.00 483505 N 0 0 0
0:00:00.00 483860 N 0 0 0
0:00:00.00 484234 N 0 0 0
0:00:00.00 484573 N 0 0 0
0:00:00.00 484915 N 0 0 0
0:00:00.00 485217 N 0 0 0
0:00:00.00 485521 N 0 0 0
0:00:00.00 485883 N 0 0 0
0:00:00.00 486248 N 0 0 0
0:00:00.00 486562 N 0 0 0
0:00:00.00 486882 N 0 0 0
0:00:00.00 487211 N 0 0 0
0:00:00.00 487532 N 0 0 0
0:00:00.00 487818 N 0 0 0
0:00:00.00 488138 N 0 0 0
0:00:00.00 488484 N 0 0 0
0:00:00.00 488777 N 0 0 0
0:00:00.00 489056 N 0 0 0
0:00:00.00 489380 N 0 0 0
0:00:00.00 489766 N 0 0 0
0:00:00.00 490153 N 0 0 0
0:00:00.00 490502 N 0 0 0
0:00:00.00 490889 N 0 0 0
0:00:00.00 491278 N 0 0 0
0:00:00.00 491612 N 0 0 0
0:00:00.00 491940 N 0 0 0
0:00:00.00 492300 N 0 0 0
0:00:00.00 492685 N 0 0 0
0:00:00.00 493018 N 0 0 0
0:00:00.00 493378 N 0 0 0
0:00:00.00 493740 N 0 0 0
0:00:00.00 494080 N 0 0 0
0:00:00.00 494440 N 0 0 0
0:00:00.00 494822 N 0 0 0
0:00:00.00 495176 N 0 0 0
0:00:00.00 495513 N 0 0 0
0:00:00.00 495855 N 0 0 0
0:00:00.00 496177 N 0 0 0
0:00:00.00 496492 N 0 0 0
0:00:00.00 496881 N 0 0 0
0:00:00.00 497234 N 0 0 0
0:00:00.00 497560 N 0 0 0
0:00:00.00 497934 N 0 0 0
0:00:00.00 498289 N 0 0 0
0:00:00.00 498618 N 0 0 0
0:00:00.00 499010 N 0 0 0
0:00:00.00 499406 N 0 0 0
0:00:00.00 499763 N 0 0 0
0:00:00.00 500114 N 0 0 0
0:00:00.00 500470 N 0 0 0
0:00:00.00 500805 N 0 0 0
0:00:00.00 501188 N 0 0 0
0:00:00.00 501574 N 0 0 0
0:00:00.00 501939 N 0 0 0
0:00:00.00 502276 N 0 0 0
0:00:00.00 502632 N 0 0 0
0:00:00.00 502988 N 0 0 0
0:00:00.00 503338 N 0 0 0
0:00:00.00 503694 N 0 0 0
0:00:00.00 504056 N 0 0 0
0:00:00.00 504412 N 0 0 0
0:00:00.00 504779 N 0 0 0
0:00:00.00 505154 N 0 0 0
0:00:00.00 505530 N 0 0 0
0:00:00.00 505895 N 0 0 0
0:00:00.00 506272 N 0 0 0
0:00:00.00 506623 N 0 0 0
0:00:00.00 506954 N 0 0 0
0:00:00.00 507317 N 0 0 0
0:00:00.00 507721 N 0 0 0
0:00:00.00 508088 N 0 0 0
0:00:00.00 508451 N 0 0 0
0:00:00.00 508826 N 0 0 0
0:00:00.00 509162 N 0 0 0
0:00:00.00 509513 N 0 0 0
0:00:00.00 509900 N 0 0 0
0:00:00.00 510264 N 0 0 0
0:00:00.00 510642 N 0 0 0
0:00:00.00 510988 N 0 0 0
0:00:00.00 511364 N 0 0 0
0:00:00.00 511758 N 0 0 0
0:00:00.00 512122 N 0 0 0
0:00:00.00 512476 N 0 0 0
0:00:00.00 512843 N 0 0 0
0:00:00.00 513185 N 0 0 0
0:00:00.00 513488 N 0 0 0
0:00:00.00 513839 N 0 0 0
0:00:00.00 514267 N 0 0 0
0:00:00.00 514606 N 0 0 0
0:00:00.00 514930 N 0 0 0
0:00:00.00 515273 N 0 0 0
0:00:00.00 515633 N 0 0 0
0:00:00.00 515923 N 0 0 0
0:00:00.00 516238 N 0 0 0
0:00:00.00 516578 N 0 0 0
0:00:00.00 516910 N 0 0 0
0:00:00.00 517212 N 0 0 0
0:00:00.00 517554 N 0 0 0
0:00:00.00 517898 N 0 0 0
0:00:00.00 518254 N 0 0 0
0:00:00.00 518607 N 0 0 0
0:00:00.00 518962 N 0 0 0
0:00:00.00 519286 N 0 0 0
0:00:00.00 519590 N 0 0 0
0:00:00.00 519937 N 0 0 0
0:00:00.00 520263 N 0 0 0
0:00:00.00 520625 N 0 0 0
0:00:00.00 520981 N 0 0 0
0:00:00.00 521329 N 0 0 0
0:00:00.00 521647 N 0 0 0
0:00:00.00 521937 N 0 0 0
0:00:00.00 522214 N 0 0 0
0:00:00.00 522542 N 0 0 0
0:00:00.00 522862 N 0 0 0
0:00:00.00 523224 N 0 0 0
0:00:00.00 523606 N 0 0 0
0:00:00.00 523948 N 0 0 0
0:00:00.00 524257 N 0 0 0
0:00:00.00 524603 N 0 0 0
0:00:00.00 524997 N 0 0 0
0:00:00.00 525352 N 0 0 0
0:00:00.00 525676 N 0 0 0
0:00:00.00 526003 N 0 0 0
0:00:00.00 526320 N 0 0 0
0:00:00.00 526601 N 0 0 0
0:00:00.00 526927 N 0 0 0
0:00:00.00 527263 N 0 0 0
0:00:00.00 527611 N 0 0 0
0:00:00.00 527902 N 0 0 0
0:00:00.00 528185 N 0 0 0
0:00:00.00 528444 N 0 0 0
0:00:00.00 528691 N 0 0 0
0:00:00.00 528934 N 0 0 0
0:00:00.00 529209 N 0 0 0
0:00:00.00 529666 N 0 0 0
0:00:00.00 530053 N 0 0 0
0:00:00.00 530392 N 0 0 0
0:00:00.00 530759 N 0 0 0
0:00:00.00 531153 N 0 0 0
0:00:00.00 531545 N 0 0 0
0:00:00.00 531886 N 0 0 0
0:00:00.00 532231 N 0 0 0
0:00:00.00 532593 N 0 0 0
0:00:00.00 532957 N 0 0 0
0:00:00.00 533353 N 0 0 0
0:00:00.00 533776 N 0 0 0
0:00:00.00 534164 N 0 0 0
0:00:00.00 534541 N 0 0 0
0:00:00.00 534911 N 0 0 0
0:00:00.00 535279 N 0 0 0
0:00:00.00 535639 N 0 0 0
0:00:00.00 536015 N 0 0 0
0:00:00.00 536393 N 0 0 0
0:00:00.00 536789 N 0 0 0
0:00:00.00 537149 N 0 0 0
0:00:00.00 537507 N 0 0 0
0:00:00.00 537892 N 0 0 0
0:00:00.00 538223 N 0 0 0
0:00:00.00 538558 N 0 0 0
0:00:00.00 538929 N 0 0 0
0:00:00.00 539291 N 0 0 0
0:00:00.00 539636 N 0 0 0
0:00:00.00 540059 N 0 0 0
0:00:00.00 540439 N 0 0 0
0:00:00.00 540792 N 0 0 0
0:00:00.00 541148 N 0 0 0
0:00:00.00 541465 N 0 0 0
0:00:00.00 541746 N 0 0 0
0:00:00.00 542110 N 0 0 0
0:00:00.00 542491 N 0 0 0
0:00:00.00 542804 N 0 0 0
0:00:00.00 543107 N 0 0 0
0:00:00.00 543440 N 0 0 0
0:00:00.00 543791 N 0 0 0
0:00:00.00 544104 N 0 0 0
0:00:00.00 544464 N 0 0 0
0:00:00.00 544833 N 0 0 0
0:00:00.00 545132 N 0 0 0
0:00:00.00 545431 N 0 0 0
0:00:00.00 545753 N 0 0 0
0:00:00.00 546140 N 0 0 0
0:00:00.00 546556 N 0 0 0
0:00:00.00 546955 N 0 0 0
0:00:00.00 547342 N 0 0 0
0:00:00.00 547693 N 0 0 0
0:00:00.00 548057 N 0 0 0
0:00:00.00 548428 N 0 0 0
0:00:00.00 548840 N 0 0 0
0:00:00.00 549207 N 0 0 0
0:00:00.00 549531 N 0 0 0
0:00:00.00 549889 N 0 0 0
0:00:00.00 550255 N 0 0 0
0:00:00.00 550620 N 0 0 0
0:00:00.00 551016 N 0 0 0
0:00:00.00 551372 N 0 0 0
0:00:00.00 551675 N 0 0 0
0:00:00.00 552002 N 0 0 0
0:00:00.00 552357 N 0 0 0
0:00:00.00 552672 N 0 0 0
0:00:00.00 553010 N 0 0 0
0:00:00.00 553421 N 0 0 0
0:00:00.00 553819 N 0 0 0
0:00:00.00 554202 N 0 0 0
0:00:00.00 554584 N 0 0 0
0:00:00.00 554971 N 0 0 0
0:00:00.00 555345 N 0 0 0
0:00:00.00 555710 N 0 0 0
0:00:00.00 556043 N 0 0 0
0:00:00.00 556358 N 0 0 0
0:00:00.00 556666 N 0 0 0
0:00:00.00 556961 N 0 0 0
0:00:00.00 557284 N 0 0 0
0:00:00.00 557615 N 0 0 0
0:00:00.00 557953 N 0 0 0
0:00:00.00 558265 N 0 0 0
0:00:00.00 558592 N 0 0 0
0:00:00.00 558952 N 0 0 0
0:00:00.00 559292 N 0 0 0
0:00:00.00 559615 N 0 0 0
0:00:00.00 559958 N 0 0 0
0:00:00.00 560273 N 0 0 0
0:00:00.00 560576 N 0 0 0
0:00:00.00 560974 N 0 0 0
0:00:00.00 561362 N 0 0 0
0:00:00.00 561739 N 0 0 0
0:00:00.00 562102 N 0 0 0
0:00:00.00 562460 N 0 0 0
0:00:00.00 562786 N 0 0 0
0:00:00.00 563135 N 0 0 0
0:00:00.00 563483 N 0 0 0
0:00:00.00 563810 N 0 0 0
0:00:00.00 564138 N 0 0 0
0:00:00.00 564437 N 0 0 0
0:00:00.00 564764 N 0 0 0
0:00:00.00 565065 N 0 0 0
0:00:00.00 565391 N 0 0 0
0:00:00.00 565756 N 0 0 0
0:00:00.00 566145 N 0 0 0
0:00:00.00 566492 N 0 0 0
0:00:00.00 566829 N 0 0 0
0:00:00.00 567160 N 0 0 0
0:00:00.00 567488 N 0 0 0
0:00:00.00 567772 N 0 0 0
0:00:00.00 568087 N 0 0 0
0:00:00.00 568406 N 0 0 0
0:00:00.00 568724 N 0 0 0
0:00:00.00 569038 N 0 0 0
0:00:00.00 569311 N 0 0 0
0:00:00.00 569590 N 0 0 0
0:00:00.00 569952 N 0 0 0
0:00:00.00 570371 N 0 0 0
0:00:00.00 570712 N 0 0 0
0:00:00.00 571009 N 0 0 0
0:00:00.00 571306 N 0 0 0
0:00:00.00 571640 N 0 0 0
0:00:00.00 571939 N 0 0 0
0:00:00.00 572247 N 0 0 0
0:00:00.00 572612 N 0 0 0
0:00:00.00 572999 N 0 0 0
0:00:00.00 573359 N 0 0 0
0:00:00.00 573658 N 0 0 0
0:00:00.00 573950 N 0 0 0
0:00:00.00 574272 N 0 0 0
0:00:00.00 574650 N 0 0 0
0:00:00.00 574972 N 0 0 0
0:00:00.00 575276 N 0 0 0
0:00:00.00 575636 N 0 0 0
0:00:00.00 576002 N 0 0 0
0:00:00.00 576351 N 0 0 0
0:00:00.00 576709 N 0 0 0
0:00:00.00 577064 N 0 0 0
0:00:00.00 577400 N 0 0 0
0:00:00.00 577728 N 0 0 0
0:00:00.00 578014 N 0 0 0
0:00:00.00 578291 N 0 0 0
0:00:00.00 578578 N 0 0 0
0:00:00.00 578939 N 0 0 0
0:00:00.00 579314 N 0 0 0
0:00:00.00 579641 N 0 0 0
0:00:00.00 579973 N 0 0 0
0:00:00.00 580324 N 0 0 0
0:00:00.00 580685 N 0 0 0
0:00:00.00 581044 N 0 0 0
0:00:00.00 581389 N 0 0 0
0:00:00.00 581746 N 0 0 0
0:00:00.00 582109 N 0 0 0
0:00:00.00 582421 N 0 0 0
0:00:00.00 582727 N 0 0 0
0:00:00.00 583096 N 0 0 0
0:00:00.00 583459 N 0 0 0
0:00:00.00 583785 N 0 0 0
0:00:00.00 584102 N 0 0 0
0:00:00.00 584455 N 0 0 0
0:00:00.00 584829 N 0 0 0
0:00:00.00 585157 N 0 0 0
0:00:00.00 585500 N 0 0 0
0:00:00.00 585857 N 0 0 0
0:00:00.00 586226 N 0 0 0
0:00:00.00 586600 N 0 0 0
0:00:00.00 586964 N 0 0 0
0:00:00.00 587354 N 0 0 0
0:00:00.00 587763 N 0 0 0
0:00:00.00 588159 N 0 0 0
0:00:00.00 588521 N 0 0 0
0:00:00.00 588884 N 0 0 0
0:00:00.00 589246 N 0 0 0
0:00:00.00 589624 N 0 0 0
0:00:00.00 590011 N 0 0 0
0:00:00.00 590405 N 0 0 0
0:00:00.00 590812 N 0 0 0
0:00:00.00 591192 N 0 0 0
0:00:00.00 591593 N 0 0 0
0:00:00.00 592015 N 0 0 0
0:00:00.00 592416 N 0 0 0
0:00:00.00 592807 N 0 0 0
0:00:00.00 593195 N 0 0 0
0:00:00.00 593552 N 0 0 0
0:00:00.00 593969 N 0 0 0
0:00:00.00 594371 N 0 0 0
0:00:00.00 594763 N 0 0 0
0:00:00.00 595141 N 0 0 0
0:00:00.00 595489 N 0 0 0
0:00:00.00 595856 N 0 0 0
0:00:00.00 596270 N 0 0 0
0:00:00.00 596639 N 0 0 0
0:00:00.00 596999 N 0 0 0
0:00:00.00 597402 N 0 0 0
0:00:00.00 597762 N 0 0 0
0:00:00.00 598090 N 0 0 0
0:00:00.00 598450 N 0 0 0
0:00:00.00 598831 N 0 0 0
0:00:00.00 599161 N 0 0 0
0:00:00.00 599450 N 0 0 0
0:00:00.00 599760 N 0 0 0
0:00:00.00 600152 N 0 0 0
0:00:00.00 600554 N 0 0 0
0:00:00.00 600903 N 0 0 0
0:00:00.00 601259 N 0 0 0
0:00:00.00 601652 N 0 0 0
0:00:00.00 602014 N 0 0 0
0:00:00.00 602359 N 0 0 0
0:00:00.00 602737 N 0 0 0
0:00:00.00 603097 N 0 0 0
0:00:00.00 603421 N 0 0 0
0:00:00.00 603745 N 0 0 0
0:00:00.00 604093 N 0 0 0
0:00:00.00 604420 N 0 0 0
0:00:00.00 604782 N 0 0 0
0:00:00.00 605158 N 0 0 0
0:00:00.00 605534 N 0 0 0
0:00:00.00 605907 N 0 0 0
0:00:00.00 606245 N 0 0 0
0:00:00.00 606609 N 0 0 0
0:00:00.00 607023 N 0 0 0
0:00:00.00 607396 N 0 0 0
0:00:00.00 607757 N 0 0 0
0:00:00.00 608121 N 0 0 0
0:00:00.00 608468 N 0 0 0
0:00:00.00 608762 N 0 0 0
0:00:00.00 609082 N 0 0 0
0:00:00.00 609426 N 0 0 0
0:00:00.00 609750 N 0 0 0
0:00:00.00 610045 N 0 0 0
0:00:00.00 610339 N 0 0 0
0:00:00.00 610627 N 0 0 0
0:00:00.00 610927 N 0 0 0
0:00:00.00 611226 N 0 0 0
0:00:00.00 611510 N 0 0 0
0:00:00.00 611779 N 0 0 0
0:00:00.00 612040 N 0 0 0
0:00:00.00 612356 N 0 0 0
0:00:00.00 612637 N 0 0 0
0:00:00.00 612941 N 0 0 0
0:00:00.00 613301 N 0 0 0
0:00:00.00 613701 N 0 0 0
0:00:00.00 614043 N 0 0 0
0:00:00.00 614329 N 0 0 0
0:00:00.00 614635 N 0 0 0
0:00:00.00 614961 N 0 0 0
0:00:00.00 615307 N 0 0 0
0:00:00.00 615676 N 0 0 0
0:00:00.00 615996 N 0 0 0
0:00:00.00 616340 N 0 0 0
0:00:00.00 616707 N 0 0 0
0:00:00.00 617078 N 0 0 0
0:00:00.00 617407 N 0 0 0
0:00:00.00 617805 N 0 0 0
0:00:00.00 618185 N 0 0 0
0:00:00.00 618529 N 0 0 0
0:00:00.00 618869 N 0 0 0
0:00:00.00 619222 N 0 0 0
0:00:00.00 619605 N 0 0 0
0:00:00.00 620014 N 0 0 0
0:00:00.00 620420 N 0 0 0
0:00:00.00 620809 N 0 0 0
0:00:00.00 621184 N 0 0 0
0:00:00.00 621569 N 0 0 0
0:00:00.00 621956 N 0 0 0
0:00:00.00 622345 N 0 0 0
0:00:00.00 622690 N 0 0 0
0:00:00.00 623030 N 0 0 0
0:00:00.00 623378 N 0 0 0
0:00:00.00 623743 N 0 0 0
0:00:00.00 624092 N 0 0 0
0:00:00.00 624461 N 0 0 0
0:00:00.00 624838 N 0 0 0
0:00:00.00 625165 N 0 0 0
0:00:00.00 625491 N 0 0 0
0:00:00.00 625846 N 0 0 0
0:00:00.00 626261 N 0 0 0
0:00:00.00 626645 N 0 0 0
0:00:00.00 626972 N 0 0 0
0:00:00.00 627307 N 0 0 0
0:00:00.00 627597 N 0 0 0
0:00:00.00 627865 N 0 0 0
0:00:00.00 628112 N 0 0 0
0:00:00.00 628387 N 0 0 0
0:00:00.00 628888 N 0 0 0
0:00:00.00 629280 N 0 0 0
0:00:00.00 629676 N 0 0 0
0:00:00.00 630079 N 0 0 0
0:00:00.00 630482 N 0 0 0
0:00:00.00 630826 N 0 0 0
0:00:00.00 631168 N 0 0 0
0:00:00.00 631559 N 0 0 0
0:00:00.00 631933 N 0 0 0
0:00:00.00 632277 N 0 0 0
0:00:00.00 632561 N 0 0 0
0:00:00.00 632930 N 0 0 0
0:00:00.00 633348 N 0 0 0
0:00:00.00 633746 N 0 0 0
0:00:00.00 634102 N 0 0 0
0:00:00.00 634444 N 0 0 0
0:00:00.00 634810 N 0 0 0
0:00:00.00 635195 N 0 0 0
0:00:00.00 635549 N 0 0 0
0:00:00.00 635864 N 0 0 0
0:00:00.00 636206 N 0 0 0
0:00:00.00 636586 N 0 0 0
0:00:00.00 636964 N 0 0 0
0:00:00.00 637328 N 0 0 0
0:00:00.00 637704 N 0 0 0
0:00:00.00 638073 N 0 0 0
0:00:00.00 638428 N 0 0 0
0:00:00.00 638743 N 0 0 0
0:00:00.00 639076 N 0 0 0
0:00:00.00 639475 N 0 0 0
0:00:00.00 639860 N 0 0 0
0:00:00.00 640181 N 0 0 0
0:00:00.00 640512 N 0 0 0
0:00:00.00 640852 N 0 0 0
0:00:00.00 641219 N 0 0 0
0:00:00.00 641630 N 0 0 0
0:00:00.00 641959 N 0 0 0
0:00:00.00 642272 N 0 0 0
0:00:00.00 642611 N 0 0 0
0:00:00.00 642929 N 0 0 0
0:00:00.00 643223 N 0 0 0
0:00:00.00 643585 N 0 0 0
0:00:00.00 643984 N 0 0 0
0:00:00.00 644348 N 0 0 0
0:00:00.00 644684 N 0 0 0
0:00:00.00 645053 N 0 0 0
0:00:00.00 645426 N 0 0 0
0:00:00.00 645808 N 0 0 0
0:00:00.00 646189 N 0 0 0
0:00:00.00 646580 N 0 0 0
0:00:00.00 646924 N 0 0 0
0:00:00.00 647217 N 0 0 0
0:00:00.00 647503 N 0 0 0
0:00:00.00 647809 N 0 0 0
0:00:00.00 648144 N 0 0 0
0:00:00.00 648594 N 0 0 0
0:00:00.00 649010 N 0 0 0
0:00:00.00 649366 N 0 0 0
0:00:00.00 649676 N 0 0 0
