0:00:00.00 23 N 0 0 0
0:00:00.00 155 N 0 0 0
0:00:00.00 238 N 0 0 0
0:00:00.00 310 N 0 0 0
0:00:00.00 713 N 0 0 0
0:00:00.00 1130 N 0 0 0
0:00:00.00 1553 N 0 0 0
0:00:00.00 1949 N 0 0 0
0:00:00.00 2342 N 0 0 0
0:00:00.00 2729 N 0 0 0
0:00:00.00 3152 N 0 0 0
0:00:00.00 3553 N 0 0 0
0:00:00.00 3949 N 0 0 0
0:00:00.00 4338 N 0 0 0
0:00:00.00 4712 N 0 0 0
0:00:00.00 5126 N 0 0 0
0:00:00.00 5535 N 0 0 0
0:00:00.00 5924 N 0 0 0
0:00:00.00 6313 N 0 0 0
0:00:00.00 6696 N 0 0 0
0:00:00.00 7078 N 0 0 0
0:00:00.00 7493 N 0 0 0
0:00:00.00 7891 N 0 0 0
0:00:00.00 8282 N 0 0 0
0:00:00.00 8663 N 0 0 0
0:00:00.00 9049 N 0 0 0
0:00:00.00 9461 N 0 0 0
0:00:00.00 9882 N 0 0 0
0:00:00.00 10282 N 0 0 0
0:00:00.00 10683 N 0 0 0
0:00:00.00 11093 N 0 0 0
0:00:00.00 11500 N 0 0 0
0:00:00.00 11930 N 0 0 0
0:00:00.00 12348 N 0 0 0
0:00:00.00 12740 N 0 0 0
0:00:00.00 13142 N 0 0 0
0:00:00.00 13534 N 0 0 0
0:00:00.00 13943 N 0 0 0
0:00:00.00 14378 N 0 0 0
0:00:00.00 14753 N 0 0 0
0:00:00.00 15142 N 0 0 0
0:00:00.00 15525 N 0 0 0
0:00:00.00 15943 N 0 0 0
0:00:00.00 16348 N 0 0 0
0:00:00.00 16753 N 0 0 0
0:00:00.00 17136 N 0 0 0
0:00:00.00 17519 N 0 0 0
0:00:00.00 17915 N 0 0 0
0:00:00.00 18311 N 0 0 0
0:00:00.00 18711 N 0 0 0
0:00:00.00 19102 N 0 0 0
0:00:00.00 19465 N 0 0 0
0:00:00.00 19831 N 0 0 0
0:00:00.00 20230 N 0 0 0
0:00:00.00 20617 N 0 0 0
0:00:00.00 21011 N 0 0 0
0:00:00.00 21386 N 0 0 0
0:00:00.00 21757 N 0 0 0
0:00:00.00 22126 N 0 0 0
0:00:00.00 22532 N 0 0 0
0:00:00.00 22925 N 0 0 0
0:00:00.00 23317 N 0 0 0
0:00:00.00 23690 N 0 0 0
0:00:00.00 24066 N 0 0 0
0:00:00.00 24458 N 0 0 0
0:00:00.00 24858 N 0 0 0
0:00:00.00 25243 N 0 0 0
0:00:00.00 25634 N 0 0 0
0:00:00.00 26006 N 0 0 0
0:00:00.00 26366 N 0 0 0
0:00:00.00 26770 N 0 0 0
0:00:00.00 27155 N 0 0 0
0:00:00.00 27536 N 0 0 0
0:00:00.00 27920 N 0 0 0
0:00:00.00 28282 N 0 0 0
0:00:00.00 28652 N 0 0 0
0:00:00.00 29052 N 0 0 0
0:00:00.00 29444 N 0 0 0
0:00:00.00 29822 N 0 0 0
0:00:00.00 30197 N 0 0 0
0:00:00.00 30569 N 0 0 0
0:00:00.00 30758 N 0 0 0
0:00:00.00 31349 N 0 0 0
0:00:00.00 31730 N 0 0 0
0:00:00.00 32108 N 0 0 0
0:00:00.00 32479 N 0 0 0
0:00:00.00 32841 N 0 0 0
0:00:00.00 33235 N 0 0 0
0:00:00.00 33635 N 0 0 0
0:00:00.00 34009 N 0 0 0
0:00:00.00 34391 N 0 0 0
0:00:00.00 34767 N 0 0 0
0:00:00.00 35136 N 0 0 0
0:00:00.00 35537 N 0 0 0
0:00:00.00 35935 N 0 0 0
0:00:00.00 36320 N 0 0 0
0:00:00.00 36707 N 0 0 0
0:00:00.00 37076 N 0 0 0
0:00:00.00 37478 N 0 0 0
0:00:00.00 37879 N 0 0 0
0:00:00.00 38272 N 0 0 0
0:00:00.00 38662 N 0 0 0
0:00:00.00 39053 N 0 0 0
0:00:00.00 39431 N 0 0 0
0:00:00.00 39838 N 0 0 0
0:00:00.00 40241 N 0 0 0
0:00:00.00 40635 N 0 0 0
0:00:00.00 41013 N 0 0 0
0:00:00.00 41400 N 0 0 0
0:00:00.00 41810 N 0 0 0
0:00:00.00 42214 N 0 0 0
0:00:00.00 42617 N 0 0 0
0:00:00.00 43006 N 0 0 0
0:00:00.00 43400 N 0 0 0
0:00:00.00 43801 N 0 0 0
0:00:00.00 44210 N 0 0 0
0:00:00.00 44618 N 0 0 0
0:00:00.00 45016 N 0 0 0
0:00:00.00 45398 N 0 0 0
0:00:00.00 45599 N 0 0 0
0:00:00.00 46186 N 0 0 0
0:00:00.00 46604 N 0 0 0
0:00:00.00 46998 N 0 0 0
0:00:00.00 47390 N 0 0 0
0:00:00.00 47776 N 0 0 0
0:00:00.00 48175 N 0 0 0
0:00:00.00 48578 N 0 0 0
0:00:00.00 48971 N 0 0 0
0:00:00.00 49367 N 0 0 0
0:00:00.00 49747 N 0 0 0
0:00:00.00 50121 N 0 0 0
0:00:00.00 50531 N 0 0 0
0:00:00.00 50926 N 0 0 0
0:00:00.00 51314 N 0 0 0
0:00:00.00 51710 N 0 0 0
0:00:00.00 52083 N 0 0 0
0:00:00.00 52483 N 0 0 0
0:00:00.00 52888 N 0 0 0
0:00:00.00 53291 N 0 0 0
0:00:00.00 53685 N 0 0 0
0:00:00.00 54077 N 0 0 0
0:00:00.00 54446 N 0 0 0
0:00:00.00 54860 N 0 0 0
0:00:00.00 55265 N 0 0 0
0:00:00.00 55651 N 0 0 0
0:00:00.00 56041 N 0 0 0
0:00:00.00 56419 N 0 0 0
0:00:00.00 56799 N 0 0 0
0:00:00.00 57209 N 0 0 0
0:00:00.00 57598 N 0 0 0
0:00:00.00 57978 N 0 0 0
0:00:00.00 58367 N 0 0 0
0:00:00.00 58723 N 0 0 0
0:00:00.00 59132 N 0 0 0
0:00:00.00 59531 N 0 0 0
0:00:00.00 59915 N 0 0 0
0:00:00.00 60302 N 0 0 0
0:00:00.00 60683 N 0 0 0
0:00:00.00 61063 N 0 0 0
0:00:00.00 61477 N 0 0 0
0:00:00.00 61877 N 0 0 0
0:00:00.00 62267 N 0 0 0
0:00:00.00 62656 N 0 0 0
0:00:00.00 63034 N 0 0 0
0:00:00.00 63437 N 0 0 0
0:00:00.00 63853 N 0 0 0
0:00:00.00 64247 N 0 0 0
0:00:00.00 64629 N 0 0 0
0:00:00.00 65030 N 0 0 0
0:00:00.00 65416 N 0 0 0
0:00:00.00 65831 N 0 0 0
0:00:00.00 66238 N 0 0 0
0:00:00.00 66620 N 0 0 0
0:00:00.00 67016 N 0 0 0
0:00:00.00 67390 N 0 0 0
0:00:00.00 67797 N 0 0 0
0:00:00.00 68211 N 0 0 0
0:00:00.00 68594 N 0 0 0
0:00:00.00 68983 N 0 0 0
0:00:00.00 69368 N 0 0 0
0:00:00.00 69593 N 0 0 0
0:00:00.00 70144 N 0 0 0
0:00:00.00 70546 N 0 0 0
0:00:00.00 70922 N 0 0 0
0:00:00.00 71302 N 0 0 0
0:00:00.00 71656 N 0 0 0
0:00:00.00 72059 N 0 0 0
0:00:00.00 72446 N 0 0 0
0:00:00.00 72841 N 0 0 0
0:00:00.00 73217 N 0 0 0
0:00:00.00 73598 N 0 0 0
0:00:00.00 73975 N 0 0 0
0:00:00.00 74383 N 0 0 0
0:00:00.00 74785 N 0 0 0
0:00:00.00 75186 N 0 0 0
0:00:00.00 75577 N 0 0 0
0:00:00.00 75951 N 0 0 0
0:00:00.00 76378 N 0 0 0
0:00:00.00 76783 N 0 0 0
0:00:00.00 77186 N 0 0 0
0:00:00.00 77587 N 0 0 0
0:00:00.00 77963 N 0 0 0
0:00:00.00 78354 N 0 0 0
0:00:00.00 78768 N 0 0 0
0:00:00.00 79166 N 0 0 0
0:00:00.00 79564 N 0 0 0
0:00:00.00 79940 N 0 0 0
0:00:00.00 80311 N 0 0 0
0:00:00.00 80503 N 0 0 0
0:00:00.00 81101 N 0 0 0
0:00:00.00 81484 N 0 0 0
0:00:00.00 81864 N 0 0 0
0:00:00.00 82229 N 0 0 0
0:00:00.00 82595 N 0 0 0
0:00:00.00 82989 N 0 0 0
0:00:00.00 83380 N 0 0 0
0:00:00.00 83745 N 0 0 0
0:00:00.00 84119 N 0 0 0
0:00:00.00 84485 N 0 0 0
0:00:00.00 84856 N 0 0 0
0:00:00.00 85118 N 0 0 0
0:00:00.00 85253 N 0 0 0
0:00:00.00 85642 N 0 0 0
0:00:00.00 86022 N 0 0 0
0:00:00.00 86407 N 0 0 0
0:00:00.00 86773 N 0 0 0
0:00:00.00 87125 N 0 0 0
0:00:00.00 87606 N 0 0 0
0:00:00.00 87979 N 0 0 0
0:00:00.00 88378 N 0 0 0
0:00:00.00 88760 N 0 0 0
0:00:00.00 88945 N 0 0 0
0:00:00.00 89350 N 0 0 0
0:00:00.00 89896 N 0 0 0
0:00:00.00 90286 N 0 0 0
0:00:00.00 90686 N 0 0 0
0:00:00.00 90914 N 0 0 0
0:00:00.00 91453 N 0 0 0
0:00:00.00 91863 N 0 0 0
0:00:00.00 92261 N 0 0 0
0:00:00.00 92650 N 0 0 0
0:00:00.00 92956 N 0 0 0
0:00:00.00 93449 N 0 0 0
0:00:00.00 93847 N 0 0 0
0:00:00.00 94262 N 0 0 0
0:00:00.00 94635 N 0 0 0
0:00:00.00 94862 N 0 0 0
0:00:00.00 95404 N 0 0 0
0:00:00.00 95812 N 0 0 0
0:00:00.00 96223 N 0 0 0
0:00:00.00 96617 N 0 0 0
0:00:00.00 97000 N 0 0 0
0:00:00.00 97396 N 0 0 0
0:00:00.00 97767 N 0 0 0
0:00:00.00 98177 N 0 0 0
0:00:00.00 98579 N 0 0 0
0:00:00.00 98971 N 0 0 0
0:00:00.00 99351 N 0 0 0
0:00:00.00 99725 N 0 0 0
0:00:00.00 100132 N 0 0 0
0:00:00.00 100519 N 0 0 0
0:00:00.00 100949 N 0 0 0
0:00:00.00 101322 N 0 0 0
0:00:00.00 101711 N 0 0 0
0:00:00.00 102100 N 0 0 0
0:00:00.00 102510 N 0 0 0
0:00:00.00 102917 N 0 0 0
0:00:00.00 103316 N 0 0 0
0:00:00.00 103662 N 0 0 0
0:00:00.00 104065 N 0 0 0
0:00:00.00 104524 N 0 0 0
0:00:00.00 104913 N 0 0 0
0:00:00.00 105311 N 0 0 0
0:00:00.00 105509 N 0 0 0
0:00:00.00 106076 N 0 0 0
0:00:00.00 106472 N 0 0 0
0:00:00.00 106888 N 0 0 0
0:00:00.00 107271 N 0 0 0
0:00:00.00 107496 N 0 0 0
0:00:00.00 108065 N 0 0 0
0:00:00.00 108419 N 0 0 0
0:00:00.00 108821 N 0 0 0
0:00:00.00 109210 N 0 0 0
0:00:00.00 109399 N 0 0 0
0:00:00.00 109976 N 0 0 0
0:00:00.00 110353 N 0 0 0
0:00:00.00 110693 N 0 0 0
0:00:00.00 111076 N 0 0 0
0:00:00.00 111458 N 0 0 0
0:00:00.00 111823 N 0 0 0
0:00:00.00 112192 N 0 0 0
0:00:00.00 112550 N 0 0 0
0:00:00.00 112907 N 0 0 0
0:00:00.00 113301 N 0 0 0
0:00:00.00 113674 N 0 0 0
0:00:00.00 114046 N 0 0 0
0:00:00.00 114421 N 0 0 0
0:00:00.00 114786 N 0 0 0
0:00:00.00 115168 N 0 0 0
0:00:00.00 115571 N 0 0 0
0:00:00.00 115943 N 0 0 0
0:00:00.00 116323 N 0 0 0
0:00:00.00 116692 N 0 0 0
0:00:00.00 117054 N 0 0 0
0:00:00.00 117445 N 0 0 0
0:00:00.00 117841 N 0 0 0
0:00:00.00 118222 N 0 0 0
0:00:00.00 118600 N 0 0 0
0:00:00.00 118993 N 0 0 0
0:00:00.00 119362 N 0 0 0
0:00:00.00 119772 N 0 0 0
0:00:00.00 120177 N 0 0 0
0:00:00.00 120557 N 0 0 0
0:00:00.00 120937 N 0 0 0
0:00:00.00 121306 N 0 0 0
0:00:00.00 121694 N 0 0 0
0:00:00.00 122089 N 0 0 0
0:00:00.00 122242 N 0 0 0
0:00:00.00 122819 N 0 0 0
0:00:00.00 123178 N 0 0 0
0:00:00.00 123527 N 0 0 0
0:00:00.00 123907 N 0 0 0
0:00:00.00 124297 N 0 0 0
0:00:00.00 124655 N 0 0 0
0:00:00.00 125021 N 0 0 0
0:00:00.00 125383 N 0 0 0
0:00:00.00 125744 N 0 0 0
0:00:00.00 126126 N 0 0 0
0:00:00.00 126517 N 0 0 0
0:00:00.00 126891 N 0 0 0
0:00:00.00 127256 N 0 0 0
0:00:00.00 127627 N 0 0 0
0:00:00.00 128005 N 0 0 0
0:00:00.00 128390 N 0 0 0
0:00:00.00 128785 N 0 0 0
0:00:00.00 129163 N 0 0 0
0:00:00.00 129521 N 0 0 0
0:00:00.00 129890 N 0 0 0
0:00:00.00 130279 N 0 0 0
0:00:00.00 130671 N 0 0 0
0:00:00.00 131008 N 0 0 0
0:00:00.00 131472 N 0 0 0
0:00:00.00 131830 N 0 0 0
0:00:00.00 132174 N 0 0 0
0:00:00.00 132575 N 0 0 0
0:00:00.00 132957 N 0 0 0
0:00:00.00 133360 N 0 0 0
0:00:00.00 133733 N 0 0 0
0:00:00.00 133954 N 0 0 0
0:00:00.00 134478 N 0 0 0
0:00:00.00 134883 N 0 0 0
0:00:00.00 135252 N 0 0 0
0:00:00.00 135637 N 0 0 0
0:00:00.00 136013 N 0 0 0
0:00:00.00 136366 N 0 0 0
0:00:00.00 136760 N 0 0 0
0:00:00.00 137162 N 0 0 0
0:00:00.00 137542 N 0 0 0
0:00:00.00 137938 N 0 0 0
0:00:00.00 138314 N 0 0 0
0:00:00.00 138688 N 0 0 0
0:00:00.00 139093 N 0 0 0
0:00:00.00 139496 N 0 0 0
0:00:00.00 139882 N 0 0 0
0:00:00.00 140270 N 0 0 0
0:00:00.00 140598 N 0 0 0
0:00:00.00 141064 N 0 0 0
0:00:00.00 141460 N 0 0 0
0:00:00.00 141836 N 0 0 0
0:00:00.00 142218 N 0 0 0
0:00:00.00 142601 N 0 0 0
0:00:00.00 142965 N 0 0 0
0:00:00.00 143365 N 0 0 0
0:00:00.00 143773 N 0 0 0
0:00:00.00 144157 N 0 0 0
0:00:00.00 144545 N 0 0 0
0:00:00.00 144932 N 0 0 0
0:00:00.00 145314 N 0 0 0
0:00:00.00 145550 N 0 0 0
0:00:00.00 146156 N 0 0 0
0:00:00.00 146531 N 0 0 0
0:00:00.00 146914 N 0 0 0
0:00:00.00 147280 N 0 0 0
0:00:00.00 147514 N 0 0 0
0:00:00.00 148106 N 0 0 0
0:00:00.00 148498 N 0 0 0
0:00:00.00 148865 N 0 0 0
0:00:00.00 149249 N 0 0 0
0:00:00.00 149528 N 0 0 0
0:00:00.00 150059 N 0 0 0
0:00:00.00 150457 N 0 0 0
0:00:00.00 150833 N 0 0 0
0:00:00.00 151211 N 0 0 0
0:00:00.00 151580 N 0 0 0
0:00:00.00 151969 N 0 0 0
0:00:00.00 152361 N 0 0 0
0:00:00.00 152744 N 0 0 0
0:00:00.00 153099 N 0 0 0
0:00:00.00 153497 N 0 0 0
0:00:00.00 153851 N 0 0 0
0:00:00.00 154246 N 0 0 0
0:00:00.00 154643 N 0 0 0
0:00:00.00 154991 N 0 0 0
0:00:00.00 155414 N 0 0 0
0:00:00.00 155776 N 0 0 0
0:00:00.00 156146 N 0 0 0
0:00:00.00 156546 N 0 0 0
0:00:00.00 156931 N 0 0 0
0:00:00.00 157243 N 0 0 0
0:00:00.00 157315 N 0 0 0
0:00:00.00 157687 N 0 0 0
0:00:00.00 158065 N 0 0 0
0:00:00.00 158465 N 0 0 0
0:00:00.00 158873 N 0 0 0
0:00:00.00 159259 N 0 0 0
0:00:00.00 159653 N 0 0 0
0:00:00.00 160034 N 0 0 0
0:00:00.00 160249 N 0 0 0
0:00:00.00 160848 N 0 0 0
0:00:00.00 161246 N 0 0 0
0:00:00.00 161654 N 0 0 0
0:00:00.00 162045 N 0 0 0
0:00:00.00 162439 N 0 0 0
0:00:00.00 162864 N 0 0 0
0:00:00.00 163285 N 0 0 0
0:00:00.00 163690 N 0 0 0
0:00:00.00 164093 N 0 0 0
0:00:00.00 164338 N 0 0 0
0:00:00.00 164941 N 0 0 0
0:00:00.00 165352 N 0 0 0
0:00:00.00 165751 N 0 0 0
0:00:00.00 166138 N 0 0 0
0:00:00.00 166543 N 0 0 0
0:00:00.00 166921 N 0 0 0
0:00:00.00 167350 N 0 0 0
0:00:00.00 167760 N 0 0 0
0:00:00.00 168143 N 0 0 0
0:00:00.00 168545 N 0 0 0
0:00:00.00 168910 N 0 0 0
0:00:00.00 169366 N 0 0 0
0:00:00.00 169772 N 0 0 0
0:00:00.00 170147 N 0 0 0
0:00:00.00 170536 N 0 0 0
0:00:00.00 170914 N 0 0 0
0:00:00.00 171211 N 0 0 0
0:00:00.00 171754 N 0 0 0
0:00:00.00 172127 N 0 0 0
0:00:00.00 172516 N 0 0 0
0:00:00.00 172879 N 0 0 0
0:00:00.00 173255 N 0 0 0
0:00:00.00 173655 N 0 0 0
0:00:00.00 174069 N 0 0 0
0:00:00.00 174451 N 0 0 0
0:00:00.00 174830 N 0 0 0
0:00:00.00 175239 N 0 0 0
0:00:00.00 175621 N 0 0 0
0:00:00.00 176036 N 0 0 0
0:00:00.00 176441 N 0 0 0
0:00:00.00 176837 N 0 0 0
0:00:00.00 177064 N 0 0 0
0:00:00.00 177635 N 0 0 0
0:00:00.00 178063 N 0 0 0
0:00:00.00 178468 N 0 0 0
0:00:00.00 178857 N 0 0 0
0:00:00.00 179086 N 0 0 0
0:00:00.00 179638 N 0 0 0
0:00:00.00 180056 N 0 0 0
0:00:00.00 180448 N 0 0 0
0:00:00.00 180823 N 0 0 0
0:00:00.00 181217 N 0 0 0
0:00:00.00 181589 N 0 0 0
0:00:00.00 181980 N 0 0 0
0:00:00.00 182372 N 0 0 0
0:00:00.00 182779 N 0 0 0
0:00:00.00 183155 N 0 0 0
0:00:00.00 183456 N 0 0 0
0:00:00.00 183922 N 0 0 0
0:00:00.00 184307 N 0 0 0
0:00:00.00 184705 N 0 0 0
0:00:00.00 185076 N 0 0 0
0:00:00.00 185317 N 0 0 0
0:00:00.00 185857 N 0 0 0
0:00:00.00 186017 N 0 0 0
0:00:00.00 186613 N 0 0 0
0:00:00.00 186991 N 0 0 0
0:00:00.00 187367 N 0 0 0
0:00:00.00 187720 N 0 0 0
0:00:00.00 188086 N 0 0 0
0:00:00.00 188451 N 0 0 0
0:00:00.00 188847 N 0 0 0
0:00:00.00 189238 N 0 0 0
0:00:00.00 189628 N 0 0 0
0:00:00.00 190003 N 0 0 0
0:00:00.00 190370 N 0 0 0
0:00:00.00 190773 N 0 0 0
0:00:00.00 191176 N 0 0 0
0:00:00.00 191565 N 0 0 0
0:00:00.00 191961 N 0 0 0
0:00:00.00 192339 N 0 0 0
0:00:00.00 192706 N 0 0 0
0:00:00.00 193120 N 0 0 0
0:00:00.00 193363 N 0 0 0
0:00:00.00 193934 N 0 0 0
0:00:00.00 194321 N 0 0 0
0:00:00.00 194684 N 0 0 0
0:00:00.00 195044 N 0 0 0
0:00:00.00 195451 N 0 0 0
0:00:00.00 195811 N 0 0 0
0:00:00.00 196227 N 0 0 0
0:00:00.00 196618 N 0 0 0
0:00:00.00 196987 N 0 0 0
0:00:00.00 197401 N 0 0 0
0:00:00.00 197813 N 0 0 0
0:00:00.00 198200 N 0 0 0
0:00:00.00 198599 N 0 0 0
0:00:00.00 198985 N 0 0 0
0:00:00.00 199377 N 0 0 0
0:00:00.00 199789 N 0 0 0
0:00:00.00 200176 N 0 0 0
0:00:00.00 200583 N 0 0 0
0:00:00.00 200974 N 0 0 0
0:00:00.00 201332 N 0 0 0
0:00:00.00 201739 N 0 0 0
0:00:00.00 202140 N 0 0 0
0:00:00.00 202525 N 0 0 0
0:00:00.00 202903 N 0 0 0
0:00:00.00 203116 N 0 0 0
0:00:00.00 203688 N 0 0 0
0:00:00.00 204071 N 0 0 0
0:00:00.00 204482 N 0 0 0
0:00:00.00 204869 N 0 0 0
0:00:00.00 205029 N 0 0 0
0:00:00.00 205598 N 0 0 0
0:00:00.00 205999 N 0 0 0
0:00:00.00 206383 N 0 0 0
0:00:00.00 206483 N 0 0 0
0:00:00.00 206746 N 0 0 0
0:00:00.00 207106 N 0 0 0
0:00:00.00 207468 N 0 0 0
0:00:00.00 207828 N 0 0 0
0:00:00.00 208193 N 0 0 0
0:00:00.00 208570 N 0 0 0
0:00:00.00 208933 N 0 0 0
0:00:00.00 209290 N 0 0 0
0:00:00.00 209642 N 0 0 0
0:00:00.00 209990 N 0 0 0
0:00:00.00 210355 N 0 0 0
0:00:00.00 210708 N 0 0 0
0:00:00.00 211091 N 0 0 0
0:00:00.00 211437 N 0 0 0
0:00:00.00 211781 N 0 0 0
0:00:00.00 212128 N 0 0 0
0:00:00.00 212481 N 0 0 0
0:00:00.00 212854 N 0 0 0
0:00:00.00 213206 N 0 0 0
0:00:00.00 213561 N 0 0 0
0:00:00.00 213890 N 0 0 0
0:00:00.00 214245 N 0 0 0
0:00:00.00 214601 N 0 0 0
0:00:00.00 214960 N 0 0 0
0:00:00.00 215332 N 0 0 0
0:00:00.00 215683 N 0 0 0
0:00:00.00 216022 N 0 0 0
0:00:00.00 216355 N 0 0 0
0:00:00.00 216686 N 0 0 0
0:00:00.00 217044 N 0 0 0
0:00:00.00 217404 N 0 0 0
0:00:00.00 217724 N 0 0 0
0:00:00.00 218056 N 0 0 0
0:00:00.00 218380 N 0 0 0
0:00:00.00 218722 N 0 0 0
0:00:00.00 219069 N 0 0 0
0:00:00.00 219411 N 0 0 0
0:00:00.00 219739 N 0 0 0
0:00:00.00 220075 N 0 0 0
0:00:00.00 220415 N 0 0 0
0:00:00.00 220714 N 0 0 0
0:00:00.00 221076 N 0 0 0
0:00:00.00 221422 N 0 0 0
0:00:00.00 221755 N 0 0 0
0:00:00.00 222097 N 0 0 0
0:00:00.00 222428 N 0 0 0
0:00:00.00 222757 N 0 0 0
0:00:00.00 223094 N 0 0 0
0:00:00.00 223448 N 0 0 0
0:00:00.00 223807 N 0 0 0
0:00:00.00 224131 N 0 0 0
0:00:00.00 224446 N 0 0 0
0:00:00.00 224793 N 0 0 0
0:00:00.00 225110 N 0 0 0
0:00:00.00 225472 N 0 0 0
0:00:00.00 225808 N 0 0 0
0:00:00.00 226116 N 0 0 0
0:00:00.00 226462 N 0 0 0
0:00:00.00 226741 N 0 0 0
0:00:00.00 227090 N 0 0 0
0:00:00.00 227401 N 0 0 0
0:00:00.00 227770 N 0 0 0
0:00:00.00 228107 N 0 0 0
0:00:00.00 228425 N 0 0 0
0:00:00.00 228746 N 0 0 0
0:00:00.00 229073 N 0 0 0
0:00:00.00 229390 N 0 0 0
0:00:00.00 229709 N 0 0 0
0:00:00.00 230076 N 0 0 0
0:00:00.00 230402 N 0 0 0
0:00:00.00 230717 N 0 0 0
0:00:00.00 231043 N 0 0 0
0:00:00.00 231379 N 0 0 0
0:00:00.00 231707 N 0 0 0
0:00:00.00 232070 N 0 0 0
0:00:00.00 232425 N 0 0 0
0:00:00.00 232758 N 0 0 0
0:00:00.00 233086 N 0 0 0
0:00:00.00 233401 N 0 0 0
0:00:00.00 233753 N 0 0 0
0:00:00.00 234101 N 0 0 0
0:00:00.00 234461 N 0 0 0
0:00:00.00 234801 N 0 0 0
0:00:00.00 235143 N 0 0 0
0:00:00.00 235474 N 0 0 0
0:00:00.00 235807 N 0 0 0
0:00:00.00 236180 N 0 0 0
0:00:00.00 236543 N 0 0 0
0:00:00.00 236914 N 0 0 0
0:00:00.00 237263 N 0 0 0
0:00:00.00 237616 N 0 0 0
0:00:00.00 237935 N 0 0 0
0:00:00.00 238325 N 0 0 0
0:00:00.00 238707 N 0 0 0
0:00:00.00 239054 N 0 0 0
0:00:00.00 239429 N 0 0 0
0:00:00.00 239773 N 0 0 0
0:00:00.00 239848 N 0 0 0
0:00:00.00 239920 N 0 0 0
0:00:00.00 239998 N 0 0 0
0:00:00.00 240107 N 0 0 0
0:00:00.00 240482 N 0 0 0
0:00:00.00 240845 N 0 0 0
0:00:00.00 241191 N 0 0 0
0:00:00.00 241529 N 0 0 0
0:00:00.00 241884 N 0 0 0
0:00:00.00 242215 N 0 0 0
0:00:00.00 242591 N 0 0 0
0:00:00.00 242951 N 0 0 0
0:00:00.00 243308 N 0 0 0
0:00:00.00 243664 N 0 0 0
0:00:00.00 244013 N 0 0 0
0:00:00.00 244350 N 0 0 0
0:00:00.00 244724 N 0 0 0
0:00:00.00 245110 N 0 0 0
0:00:00.00 245473 N 0 0 0
0:00:00.00 245846 N 0 0 0
0:00:00.00 246204 N 0 0 0
0:00:00.00 246550 N 0 0 0
0:00:00.00 246942 N 0 0 0
0:00:00.00 247329 N 0 0 0
0:00:00.00 247689 N 0 0 0
0:00:00.00 248069 N 0 0 0
0:00:00.00 248429 N 0 0 0
0:00:00.00 248762 N 0 0 0
0:00:00.00 249145 N 0 0 0
0:00:00.00 249529 N 0 0 0
0:00:00.00 249885 N 0 0 0
0:00:00.00 250256 N 0 0 0
0:00:00.00 250607 N 0 0 0
0:00:00.00 250951 N 0 0 0
0:00:00.00 251327 N 0 0 0
0:00:00.00 251703 N 0 0 0
0:00:00.00 251960 N 0 0 0
0:00:00.00 252146 N 0 0 0
0:00:00.00 252324 N 0 0 0
0:00:00.00 252499 N 0 0 0
0:00:00.00 252778 N 0 0 0
0:00:00.00 252938 N 0 0 0
0:00:00.00 253305 N 0 0 0
0:00:00.00 253750 N 0 0 0
0:00:00.00 254142 N 0 0 0
0:00:00.00 254475 N 0 0 0
0:00:00.00 254833 N 0 0 0
0:00:00.00 255175 N 0 0 0
0:00:00.00 255548 N 0 0 0
0:00:00.00 255924 N 0 0 0
0:00:00.00 256293 N 0 0 0
0:00:00.00 256658 N 0 0 0
0:00:00.00 257026 N 0 0 0
0:00:00.00 257366 N 0 0 0
0:00:00.00 257758 N 0 0 0
0:00:00.00 258138 N 0 0 0
0:00:00.00 258507 N 0 0 0
0:00:00.00 258867 N 0 0 0
0:00:00.00 259232 N 0 0 0
0:00:00.00 259578 N 0 0 0
0:00:00.00 259958 N 0 0 0
0:00:00.00 260336 N 0 0 0
0:00:00.00 260707 N 0 0 0
0:00:00.00 261068 N 0 0 0
0:00:00.00 261437 N 0 0 0
0:00:00.00 261799 N 0 0 0
0:00:00.00 262201 N 0 0 0
0:00:00.00 262591 N 0 0 0
0:00:00.00 262969 N 0 0 0
0:00:00.00 263318 N 0 0 0
0:00:00.00 263597 N 0 0 0
0:00:00.00 264110 N 0 0 0
0:00:00.00 264487 N 0 0 0
0:00:00.00 264857 N 0 0 0
0:00:00.00 265246 N 0 0 0
0:00:00.00 265586 N 0 0 0
0:00:00.00 265984 N 0 0 0
0:00:00.00 266357 N 0 0 0
0:00:00.00 266740 N 0 0 0
0:00:00.00 267107 N 0 0 0
0:00:00.00 267469 N 0 0 0
0:00:00.00 267845 N 0 0 0
0:00:00.00 268216 N 0 0 0
0:00:00.00 268519 N 0 0 0
0:00:00.00 269017 N 0 0 0
0:00:00.00 269401 N 0 0 0
0:00:00.00 269766 N 0 0 0
0:00:00.00 270135 N 0 0 0
0:00:00.00 270522 N 0 0 0
0:00:00.00 270920 N 0 0 0
0:00:00.00 271139 N 0 0 0
0:00:00.00 271685 N 0 0 0
0:00:00.00 272057 N 0 0 0
0:00:00.00 272412 N 0 0 0
0:00:00.00 272806 N 0 0 0
0:00:00.00 273193 N 0 0 0
0:00:00.00 273564 N 0 0 0
0:00:00.00 273937 N 0 0 0
0:00:00.00 274298 N 0 0 0
0:00:00.00 274626 N 0 0 0
0:00:00.00 275006 N 0 0 0
0:00:00.00 275378 N 0 0 0
0:00:00.00 275731 N 0 0 0
0:00:00.00 276088 N 0 0 0
0:00:00.00 276428 N 0 0 0
0:00:00.00 276746 N 0 0 0
0:00:00.00 277117 N 0 0 0
0:00:00.00 277484 N 0 0 0
0:00:00.00 277816 N 0 0 0
0:00:00.00 278156 N 0 0 0
0:00:00.00 278496 N 0 0 0
0:00:00.00 278825 N 0 0 0
0:00:00.00 279160 N 0 0 0
0:00:00.00 279524 N 0 0 0
0:00:00.00 279877 N 0 0 0
0:00:00.00 280220 N 0 0 0
0:00:00.00 280557 N 0 0 0
0:00:00.00 280895 N 0 0 0
0:00:00.00 281223 N 0 0 0
0:00:00.00 281594 N 0 0 0
0:00:00.00 281954 N 0 0 0
0:00:00.00 282292 N 0 0 0
0:00:00.00 282638 N 0 0 0
0:00:00.00 282985 N 0 0 0
0:00:00.00 283318 N 0 0 0
0:00:00.00 283687 N 0 0 0
0:00:00.00 284065 N 0 0 0
0:00:00.00 284423 N 0 0 0
0:00:00.00 284776 N 0 0 0
0:00:00.00 285131 N 0 0 0
0:00:00.00 285467 N 0 0 0
0:00:00.00 285833 N 0 0 0
0:00:00.00 286211 N 0 0 0
0:00:00.00 286560 N 0 0 0
0:00:00.00 286918 N 0 0 0
0:00:00.00 287262 N 0 0 0
0:00:00.00 287600 N 0 0 0
0:00:00.00 287964 N 0 0 0
0:00:00.00 288340 N 0 0 0
0:00:00.00 288689 N 0 0 0
0:00:00.00 289037 N 0 0 0
0:00:00.00 289377 N 0 0 0
0:00:00.00 289708 N 0 0 0
0:00:00.00 290063 N 0 0 0
0:00:00.00 290432 N 0 0 0
0:00:00.00 290783 N 0 0 0
0:00:00.00 291134 N 0 0 0
0:00:00.00 291472 N 0 0 0
0:00:00.00 291818 N 0 0 0
0:00:00.00 292176 N 0 0 0
0:00:00.00 292534 N 0 0 0
0:00:00.00 292912 N 0 0 0
0:00:00.00 293260 N 0 0 0
0:00:00.00 293607 N 0 0 0
0:00:00.00 293956 N 0 0 0
0:00:00.00 294314 N 0 0 0
0:00:00.00 294680 N 0 0 0
0:00:00.00 295049 N 0 0 0
0:00:00.00 295409 N 0 0 0
0:00:00.00 295751 N 0 0 0
0:00:00.00 296096 N 0 0 0
0:00:00.00 296368 N 0 0 0
0:00:00.00 296836 N 0 0 0
0:00:00.00 297216 N 0 0 0
0:00:00.00 297585 N 0 0 0
0:00:00.00 297940 N 0 0 0
0:00:00.00 298296 N 0 0 0
0:00:00.00 298656 N 0 0 0
0:00:00.00 299048 N 0 0 0
0:00:00.00 299414 N 0 0 0
0:00:00.00 299779 N 0 0 0
0:00:00.00 300134 N 0 0 0
0:00:00.00 300483 N 0 0 0
0:00:00.00 300857 N 0 0 0
0:00:00.00 301246 N 0 0 0
0:00:00.00 301531 N 0 0 0
0:00:00.00 301993 N 0 0 0
0:00:00.00 302350 N 0 0 0
0:00:00.00 302702 N 0 0 0
0:00:00.00 303082 N 0 0 0
0:00:00.00 303471 N 0 0 0
0:00:00.00 303833 N 0 0 0
0:00:00.00 304211 N 0 0 0
0:00:00.00 304564 N 0 0 0
0:00:00.00 304913 N 0 0 0
0:00:00.00 305140 N 0 0 0
0:00:00.00 305674 N 0 0 0
0:00:00.00 306034 N 0 0 0
0:00:00.00 306405 N 0 0 0
0:00:00.00 306754 N 0 0 0
0:00:00.00 307096 N 0 0 0
0:00:00.00 307474 N 0 0 0
0:00:00.00 307854 N 0 0 0
0:00:00.00 308207 N 0 0 0
0:00:00.00 308590 N 0 0 0
0:00:00.00 308918 N 0 0 0
0:00:00.00 309242 N 0 0 0
0:00:00.00 309616 N 0 0 0
0:00:00.00 309987 N 0 0 0
0:00:00.00 310331 N 0 0 0
0:00:00.00 310694 N 0 0 0
0:00:00.00 311044 N 0 0 0
0:00:00.00 311373 N 0 0 0
0:00:00.00 311744 N 0 0 0
0:00:00.00 312120 N 0 0 0
0:00:00.00 312471 N 0 0 0
0:00:00.00 312829 N 0 0 0
0:00:00.00 313178 N 0 0 0
0:00:00.00 313515 N 0 0 0
0:00:00.00 313884 N 0 0 0
0:00:00.00 314266 N 0 0 0
0:00:00.00 314631 N 0 0 0
0:00:00.00 314989 N 0 0 0
0:00:00.00 315340 N 0 0 0
0:00:00.00 315675 N 0 0 0
0:00:00.00 316057 N 0 0 0
0:00:00.00 316424 N 0 0 0
0:00:00.00 316786 N 0 0 0
0:00:00.00 317140 N 0 0 0
0:00:00.00 317480 N 0 0 0
0:00:00.00 317826 N 0 0 0
0:00:00.00 318199 N 0 0 0
0:00:00.00 318566 N 0 0 0
0:00:00.00 318919 N 0 0 0
0:00:00.00 319262 N 0 0 0
0:00:00.00 319608 N 0 0 0
0:00:00.00 319936 N 0 0 0
0:00:00.00 320292 N 0 0 0
0:00:00.00 320665 N 0 0 0
0:00:00.00 321019 N 0 0 0
0:00:00.00 321359 N 0 0 0
0:00:00.00 321701 N 0 0 0
0:00:00.00 322040 N 0 0 0
0:00:00.00 322369 N 0 0 0
0:00:00.00 322740 N 0 0 0
0:00:00.00 323100 N 0 0 0
0:00:00.00 323446 N 0 0 0
0:00:00.00 323784 N 0 0 0
0:00:00.00 324113 N 0 0 0
0:00:00.00 324466 N 0 0 0
0:00:00.00 324817 N 0 0 0
0:00:00.00 325179 N 0 0 0
0:00:00.00 325516 N 0 0 0
0:00:00.00 325859 N 0 0 0
0:00:00.00 326200 N 0 0 0
0:00:00.00 326531 N 0 0 0
0:00:00.00 326902 N 0 0 0
0:00:00.00 327251 N 0 0 0
0:00:00.00 327593 N 0 0 0
0:00:00.00 327946 N 0 0 0
0:00:00.00 328275 N 0 0 0
0:00:00.00 328606 N 0 0 0
0:00:00.00 328984 N 0 0 0
0:00:00.00 329353 N 0 0 0
0:00:00.00 329704 N 0 0 0
0:00:00.00 330059 N 0 0 0
0:00:00.00 330408 N 0 0 0
0:00:00.00 330741 N 0 0 0
0:00:00.00 331124 N 0 0 0
0:00:00.00 331495 N 0 0 0
0:00:00.00 331850 N 0 0 0
0:00:00.00 332192 N 0 0 0
0:00:00.00 332534 N 0 0 0
0:00:00.00 332861 N 0 0 0
0:00:00.00 333216 N 0 0 0
0:00:00.00 333583 N 0 0 0
0:00:00.00 333938 N 0 0 0
0:00:00.00 334278 N 0 0 0
0:00:00.00 334625 N 0 0 0
0:00:00.00 334967 N 0 0 0
0:00:00.00 335304 N 0 0 0
0:00:00.00 335680 N 0 0 0
0:00:00.00 336037 N 0 0 0
0:00:00.00 336379 N 0 0 0
0:00:00.00 336724 N 0 0 0
0:00:00.00 337061 N 0 0 0
0:00:00.00 337394 N 0 0 0
0:00:00.00 337775 N 0 0 0
0:00:00.00 338134 N 0 0 0
0:00:00.00 338477 N 0 0 0
0:00:00.00 338823 N 0 0 0
0:00:00.00 339170 N 0 0 0
0:00:00.00 339502 N 0 0 0
0:00:00.00 339874 N 0 0 0
0:00:00.00 340240 N 0 0 0
0:00:00.00 340569 N 0 0 0
0:00:00.00 340913 N 0 0 0
0:00:00.00 341249 N 0 0 0
0:00:00.00 341566 N 0 0 0
0:00:00.00 341912 N 0 0 0
0:00:00.00 342274 N 0 0 0
0:00:00.00 342619 N 0 0 0
0:00:00.00 342950 N 0 0 0
0:00:00.00 343285 N 0 0 0
0:00:00.00 343627 N 0 0 0
0:00:00.00 343967 N 0 0 0
0:00:00.00 344342 N 0 0 0
0:00:00.00 344702 N 0 0 0
0:00:00.00 345038 N 0 0 0
0:00:00.00 345380 N 0 0 0
0:00:00.00 345722 N 0 0 0
0:00:00.00 346066 N 0 0 0
0:00:00.00 346424 N 0 0 0
0:00:00.00 346792 N 0 0 0
0:00:00.00 347132 N 0 0 0
0:00:00.00 347477 N 0 0 0
0:00:00.00 347816 N 0 0 0
0:00:00.00 348142 N 0 0 0
0:00:00.00 348505 N 0 0 0
0:00:00.00 348880 N 0 0 0
0:00:00.00 349231 N 0 0 0
0:00:00.00 349578 N 0 0 0
0:00:00.00 349920 N 0 0 0
0:00:00.00 350262 N 0 0 0
0:00:00.00 350633 N 0 0 0
0:00:00.00 350987 N 0 0 0
0:00:00.00 351344 N 0 0 0
0:00:00.00 351688 N 0 0 0
0:00:00.00 352026 N 0 0 0
0:00:00.00 352350 N 0 0 0
0:00:00.00 352708 N 0 0 0
0:00:00.00 353068 N 0 0 0
0:00:00.00 353417 N 0 0 0
0:00:00.00 353765 N 0 0 0
0:00:00.00 354089 N 0 0 0
0:00:00.00 354276 N 0 0 0
0:00:00.00 354760 N 0 0 0
0:00:00.00 355048 N 0 0 0
0:00:00.00 355435 N 0 0 0
0:00:00.00 355766 N 0 0 0
0:00:00.00 355966 N 0 0 0
0:00:00.00 356432 N 0 0 0
0:00:00.00 356747 N 0 0 0
0:00:00.00 357106 N 0 0 0
0:00:00.00 357444 N 0 0 0
0:00:00.00 357754 N 0 0 0
0:00:00.00 358090 N 0 0 0
0:00:00.00 358407 N 0 0 0
0:00:00.00 358726 N 0 0 0
0:00:00.00 359057 N 0 0 0
0:00:00.00 359415 N 0 0 0
0:00:00.00 359775 N 0 0 0
0:00:00.00 360086 N 0 0 0
0:00:00.00 360427 N 0 0 0
0:00:00.00 360745 N 0 0 0
0:00:00.00 361064 N 0 0 0
0:00:00.00 361417 N 0 0 0
0:00:00.00 361768 N 0 0 0
0:00:00.00 362115 N 0 0 0
0:00:00.00 362444 N 0 0 0
0:00:00.00 362779 N 0 0 0
0:00:00.00 363114 N 0 0 0
0:00:00.00 363447 N 0 0 0
0:00:00.00 363820 N 0 0 0
0:00:00.00 364192 N 0 0 0
0:00:00.00 364514 N 0 0 0
0:00:00.00 364880 N 0 0 0
0:00:00.00 365213 N 0 0 0
0:00:00.00 365539 N 0 0 0
0:00:00.00 365897 N 0 0 0
0:00:00.00 366253 N 0 0 0
0:00:00.00 366588 N 0 0 0
0:00:00.00 366934 N 0 0 0
0:00:00.00 367268 N 0 0 0
0:00:00.00 367592 N 0 0 0
0:00:00.00 367954 N 0 0 0
0:00:00.00 368325 N 0 0 0
0:00:00.00 368662 N 0 0 0
0:00:00.00 369005 N 0 0 0
0:00:00.00 369349 N 0 0 0
0:00:00.00 369671 N 0 0 0
0:00:00.00 370051 N 0 0 0
0:00:00.00 370390 N 0 0 0
0:00:00.00 370746 N 0 0 0
0:00:00.00 371066 N 0 0 0
0:00:00.00 371403 N 0 0 0
0:00:00.00 371738 N 0 0 0
0:00:00.00 372049 N 0 0 0
0:00:00.00 372398 N 0 0 0
0:00:00.00 372748 N 0 0 0
0:00:00.00 373070 N 0 0 0
0:00:00.00 373397 N 0 0 0
0:00:00.00 373727 N 0 0 0
0:00:00.00 374036 N 0 0 0
0:00:00.00 374386 N 0 0 0
0:00:00.00 374722 N 0 0 0
0:00:00.00 375068 N 0 0 0
0:00:00.00 375381 N 0 0 0
0:00:00.00 375710 N 0 0 0
0:00:00.00 376051 N 0 0 0
0:00:00.00 376371 N 0 0 0
0:00:00.00 376729 N 0 0 0
0:00:00.00 377080 N 0 0 0
0:00:00.00 377419 N 0 0 0
0:00:00.00 377771 N 0 0 0
0:00:00.00 378108 N 0 0 0
0:00:00.00 378436 N 0 0 0
0:00:00.00 378770 N 0 0 0
0:00:00.00 379118 N 0 0 0
0:00:00.00 379469 N 0 0 0
0:00:00.00 379802 N 0 0 0
0:00:00.00 380122 N 0 0 0
0:00:00.00 380453 N 0 0 0
0:00:00.00 380799 N 0 0 0
0:00:00.00 381150 N 0 0 0
0:00:00.00 381510 N 0 0 0
0:00:00.00 381847 N 0 0 0
0:00:00.00 382160 N 0 0 0
0:00:00.00 382498 N 0 0 0
0:00:00.00 382858 N 0 0 0
0:00:00.00 383204 N 0 0 0
0:00:00.00 383551 N 0 0 0
0:00:00.00 383897 N 0 0 0
0:00:00.00 384223 N 0 0 0
0:00:00.00 384554 N 0 0 0
0:00:00.00 384892 N 0 0 0
0:00:00.00 385225 N 0 0 0
0:00:00.00 385594 N 0 0 0
0:00:00.00 385902 N 0 0 0
0:00:00.00 386267 N 0 0 0
0:00:00.00 386597 N 0 0 0
0:00:00.00 386915 N 0 0 0
0:00:00.00 387284 N 0 0 0
0:00:00.00 387634 N 0 0 0
0:00:00.00 387981 N 0 0 0
0:00:00.00 388305 N 0 0 0
0:00:00.00 388660 N 0 0 0
0:00:00.00 388984 N 0 0 0
0:00:00.00 389313 N 0 0 0
0:00:00.00 389705 N 0 0 0
0:00:00.00 390047 N 0 0 0
0:00:00.00 390384 N 0 0 0
0:00:00.00 390724 N 0 0 0
0:00:00.00 391055 N 0 0 0
0:00:00.00 391363 N 0 0 0
0:00:00.00 391754 N 0 0 0
0:00:00.00 392096 N 0 0 0
0:00:00.00 392425 N 0 0 0
0:00:00.00 392753 N 0 0 0
0:00:00.00 393077 N 0 0 0
0:00:00.00 393394 N 0 0 0
0:00:00.00 393746 N 0 0 0
0:00:00.00 394132 N 0 0 0
0:00:00.00 394452 N 0 0 0
0:00:00.00 394787 N 0 0 0
0:00:00.00 395143 N 0 0 0
0:00:00.00 395476 N 0 0 0
0:00:00.00 395809 N 0 0 0
0:00:00.00 396189 N 0 0 0
0:00:00.00 396542 N 0 0 0
0:00:00.00 396891 N 0 0 0
0:00:00.00 397231 N 0 0 0
0:00:00.00 397564 N 0 0 0
0:00:00.00 397874 N 0 0 0
0:00:00.00 398227 N 0 0 0
0:00:00.00 398579 N 0 0 0
0:00:00.00 398903 N 0 0 0
0:00:00.00 399235 N 0 0 0
0:00:00.00 399559 N 0 0 0
0:00:00.00 399883 N 0 0 0
0:00:00.00 400223 N 0 0 0
0:00:00.00 400579 N 0 0 0
0:00:00.00 400936 N 0 0 0
0:00:00.00 401258 N 0 0 0
0:00:00.00 401564 N 0 0 0
0:00:00.00 401897 N 0 0 0
0:00:00.00 402221 N 0 0 0
0:00:00.00 402559 N 0 0 0
0:00:00.00 402905 N 0 0 0
0:00:00.00 403236 N 0 0 0
0:00:00.00 403560 N 0 0 0
0:00:00.00 403884 N 0 0 0
0:00:00.00 404226 N 0 0 0
0:00:00.00 404572 N 0 0 0
0:00:00.00 404930 N 0 0 0
0:00:00.00 405279 N 0 0 0
0:00:00.00 405612 N 0 0 0
0:00:00.00 405943 N 0 0 0
0:00:00.00 406271 N 0 0 0
0:00:00.00 406589 N 0 0 0
0:00:00.00 406937 N 0 0 0
0:00:00.00 407286 N 0 0 0
0:00:00.00 407624 N 0 0 0
0:00:00.00 407948 N 0 0 0
0:00:00.00 408274 N 0 0 0
0:00:00.00 408598 N 0 0 0
0:00:00.00 408946 N 0 0 0
0:00:00.00 409288 N 0 0 0
0:00:00.00 409624 N 0 0 0
0:00:00.00 409946 N 0 0 0
0:00:00.00 410267 N 0 0 0
0:00:00.00 410602 N 0 0 0
0:00:00.00 410929 N 0 0 0
0:00:00.00 411291 N 0 0 0
0:00:00.00 411613 N 0 0 0
0:00:00.00 411941 N 0 0 0
0:00:00.00 412261 N 0 0 0
0:00:00.00 412582 N 0 0 0
0:00:00.00 412897 N 0 0 0
0:00:00.00 413267 N 0 0 0
0:00:00.00 413613 N 0 0 0
0:00:00.00 413937 N 0 0 0
0:00:00.00 414297 N 0 0 0
0:00:00.00 414626 N 0 0 0
0:00:00.00 414943 N 0 0 0
0:00:00.00 415289 N 0 0 0
0:00:00.00 415669 N 0 0 0
0:00:00.00 416005 N 0 0 0
0:00:00.00 416354 N 0 0 0
0:00:00.00 416677 N 0 0 0
0:00:00.00 417002 N 0 0 0
0:00:00.00 417330 N 0 0 0
0:00:00.00 417695 N 0 0 0
0:00:00.00 418032 N 0 0 0
0:00:00.00 418363 N 0 0 0
0:00:00.00 418698 N 0 0 0
0:00:00.00 419024 N 0 0 0
0:00:00.00 419341 N 0 0 0
0:00:00.00 419693 N 0 0 0
0:00:00.00 420048 N 0 0 0
0:00:00.00 420377 N 0 0 0
0:00:00.00 420714 N 0 0 0
0:00:00.00 421045 N 0 0 0
0:00:00.00 421362 N 0 0 0
0:00:00.00 421699 N 0 0 0
0:00:00.00 422046 N 0 0 0
0:00:00.00 422393 N 0 0 0
0:00:00.00 422712 N 0 0 0
0:00:00.00 423054 N 0 0 0
0:00:00.00 423374 N 0 0 0
0:00:00.00 423686 N 0 0 0
0:00:00.00 424035 N 0 0 0
0:00:00.00 424384 N 0 0 0
0:00:00.00 424717 N 0 0 0
0:00:00.00 425050 N 0 0 0
0:00:00.00 425387 N 0 0 0
0:00:00.00 425709 N 0 0 0
0:00:00.00 426051 N 0 0 0
0:00:00.00 426411 N 0 0 0
0:00:00.00 426767 N 0 0 0
0:00:00.00 427104 N 0 0 0
0:00:00.00 427444 N 0 0 0
0:00:00.00 427775 N 0 0 0
0:00:00.00 428103 N 0 0 0
0:00:00.00 428458 N 0 0 0
0:00:00.00 428805 N 0 0 0
0:00:00.00 429142 N 0 0 0
0:00:00.00 429473 N 0 0 0
0:00:00.00 429808 N 0 0 0
0:00:00.00 430126 N 0 0 0
0:00:00.00 430470 N 0 0 0
0:00:00.00 430823 N 0 0 0
0:00:00.00 431168 N 0 0 0
0:00:00.00 431498 N 0 0 0
0:00:00.00 431825 N 0 0 0
0:00:00.00 432151 N 0 0 0
0:00:00.00 432482 N 0 0 0
0:00:00.00 432832 N 0 0 0
0:00:00.00 433172 N 0 0 0
0:00:00.00 433514 N 0 0 0
0:00:00.00 433834 N 0 0 0
0:00:00.00 434173 N 0 0 0
0:00:00.00 434495 N 0 0 0
0:00:00.00 434835 N 0 0 0
0:00:00.00 435132 N 0 0 0
0:00:00.00 435204 N 0 0 0
0:00:00.00 435276 N 0 0 0
0:00:00.00 435352 N 0 0 0
0:00:00.00 435506 N 0 0 0
0:00:00.00 435834 N 0 0 0
0:00:00.00 436169 N 0 0 0
0:00:00.00 436489 N 0 0 0
0:00:00.00 436811 N 0 0 0
0:00:00.00 437150 N 0 0 0
0:00:00.00 437490 N 0 0 0
0:00:00.00 437819 N 0 0 0
0:00:00.00 438134 N 0 0 0
0:00:00.00 438453 N 0 0 0
0:00:00.00 438768 N 0 0 0
0:00:00.00 439114 N 0 0 0
0:00:00.00 439457 N 0 0 0
0:00:00.00 439790 N 0 0 0
0:00:00.00 440129 N 0 0 0
0:00:00.00 440453 N 0 0 0
0:00:00.00 440789 N 0 0 0
0:00:00.00 441113 N 0 0 0
0:00:00.00 441477 N 0 0 0
0:00:00.00 441832 N 0 0 0
0:00:00.00 442150 N 0 0 0
0:00:00.00 442494 N 0 0 0
0:00:00.00 442829 N 0 0 0
0:00:00.00 443187 N 0 0 0
0:00:00.00 443545 N 0 0 0
0:00:00.00 443896 N 0 0 0
0:00:00.00 444229 N 0 0 0
0:00:00.00 444575 N 0 0 0
0:00:00.00 444908 N 0 0 0
0:00:00.00 445219 N 0 0 0
0:00:00.00 445568 N 0 0 0
0:00:00.00 445907 N 0 0 0
0:00:00.00 446249 N 0 0 0
0:00:00.00 446591 N 0 0 0
0:00:00.00 446909 N 0 0 0
0:00:00.00 447214 N 0 0 0
0:00:00.00 447523 N 0 0 0
0:00:00.00 447896 N 0 0 0
0:00:00.00 448225 N 0 0 0
0:00:00.00 448547 N 0 0 0
0:00:00.00 448862 N 0 0 0
0:00:00.00 449176 N 0 0 0
0:00:00.00 449471 N 0 0 0
0:00:00.00 449775 N 0 0 0
0:00:00.00 450126 N 0 0 0
0:00:00.00 450441 N 0 0 0
0:00:00.00 450729 N 0 0 0
0:00:00.00 451049 N 0 0 0
0:00:00.00 451350 N 0 0 0
0:00:00.00 451631 N 0 0 0
0:00:00.00 451931 N 0 0 0
0:00:00.00 452277 N 0 0 0
0:00:00.00 452592 N 0 0 0
0:00:00.00 452889 N 0 0 0
0:00:00.00 453195 N 0 0 0
0:00:00.00 453501 N 0 0 0
0:00:00.00 453798 N 0 0 0
0:00:00.00 454095 N 0 0 0
0:00:00.00 454437 N 0 0 0
0:00:00.00 454788 N 0 0 0
0:00:00.00 455094 N 0 0 0
0:00:00.00 455402 N 0 0 0
0:00:00.00 455713 N 0 0 0
0:00:00.00 456010 N 0 0 0
0:00:00.00 456341 N 0 0 0
0:00:00.00 456682 N 0 0 0
0:00:00.00 457007 N 0 0 0
0:00:00.00 457321 N 0 0 0
0:00:00.00 457625 N 0 0 0
0:00:00.00 457942 N 0 0 0
0:00:00.00 458251 N 0 0 0
0:00:00.00 458579 N 0 0 0
0:00:00.00 458921 N 0 0 0
0:00:00.00 459250 N 0 0 0
0:00:00.00 459553 N 0 0 0
0:00:00.00 459862 N 0 0 0
0:00:00.00 460177 N 0 0 0
0:00:00.00 460492 N 0 0 0
0:00:00.00 460823 N 0 0 0
0:00:00.00 461164 N 0 0 0
0:00:00.00 461479 N 0 0 0
0:00:00.00 461795 N 0 0 0
0:00:00.00 462089 N 0 0 0
0:00:00.00 462413 N 0 0 0
0:00:00.00 462717 N 0 0 0
0:00:00.00 463059 N 0 0 0
0:00:00.00 463403 N 0 0 0
0:00:00.00 463716 N 0 0 0
0:00:00.00 464020 N 0 0 0
0:00:00.00 464348 N 0 0 0
0:00:00.00 464650 N 0 0 0
0:00:00.00 464965 N 0 0 0
0:00:00.00 465300 N 0 0 0
0:00:00.00 465631 N 0 0 0
0:00:00.00 465939 N 0 0 0
0:00:00.00 466240 N 0 0 0
0:00:00.00 466538 N 0 0 0
0:00:00.00 466843 N 0 0 0
0:00:00.00 467167 N 0 0 0
0:00:00.00 467482 N 0 0 0
0:00:00.00 467816 N 0 0 0
0:00:00.00 468121 N 0 0 0
0:00:00.00 468419 N 0 0 0
0:00:00.00 468725 N 0 0 0
0:00:00.00 469019 N 0 0 0
0:00:00.00 469352 N 0 0 0
0:00:00.00 469667 N 0 0 0
0:00:00.00 469996 N 0 0 0
0:00:00.00 470302 N 0 0 0
0:00:00.00 470596 N 0 0 0
0:00:00.00 470903 N 0 0 0
0:00:00.00 471199 N 0 0 0
0:00:00.00 471530 N 0 0 0
0:00:00.00 471859 N 0 0 0
0:00:00.00 472181 N 0 0 0
0:00:00.00 472496 N 0 0 0
0:00:00.00 472804 N 0 0 0
0:00:00.00 473112 N 0 0 0
0:00:00.00 473423 N 0 0 0
0:00:00.00 473765 N 0 0 0
0:00:00.00 474095 N 0 0 0
0:00:00.00 474424 N 0 0 0
0:00:00.00 474757 N 0 0 0
0:00:00.00 475065 N 0 0 0
0:00:00.00 475376 N 0 0 0
0:00:00.00 475713 N 0 0 0
0:00:00.00 476057 N 0 0 0
0:00:00.00 476393 N 0 0 0
0:00:00.00 476723 N 0 0 0
0:00:00.00 477041 N 0 0 0
0:00:00.00 477358 N 0 0 0
0:00:00.00 477659 N 0 0 0
0:00:00.00 477999 N 0 0 0
0:00:00.00 478341 N 0 0 0
0:00:00.00 478661 N 0 0 0
0:00:00.00 478984 N 0 0 0
0:00:00.00 479300 N 0 0 0
0:00:00.00 479608 N 0 0 0
0:00:00.00 479914 N 0 0 0
0:00:00.00 480256 N 0 0 0
0:00:00.00 480589 N 0 0 0
0:00:00.00 480902 N 0 0 0
0:00:00.00 481223 N 0 0 0
0:00:00.00 481547 N 0 0 0
0:00:00.00 481840 N 0 0 0
0:00:00.00 482152 N 0 0 0
0:00:00.00 482481 N 0 0 0
0:00:00.00 482814 N 0 0 0
0:00:00.00 483127 N 0 0 0
0:00:00.00 483440 N 0 0 0
0:00:00.00 483755 N 0 0 0
0:00:00.00 484054 N 0 0 0
0:00:00.00 484382 N 0 0 0
0:00:00.00 484709 N 0 0 0
0:00:00.00 485035 N 0 0 0
0:00:00.00 485341 N 0 0 0
0:00:00.00 485651 N 0 0 0
0:00:00.00 485960 N 0 0 0
0:00:00.00 486254 N 0 0 0
0:00:00.00 486580 N 0 0 0
0:00:00.00 486911 N 0 0 0
0:00:00.00 487240 N 0 0 0
0:00:00.00 487535 N 0 0 0
0:00:00.00 487831 N 0 0 0
0:00:00.00 488158 N 0 0 0
0:00:00.00 488453 N 0 0 0
0:00:00.00 488788 N 0 0 0
0:00:00.00 489118 N 0 0 0
0:00:00.00 489443 N 0 0 0
0:00:00.00 489755 N 0 0 0
0:00:00.00 490059 N 0 0 0
0:00:00.00 490372 N 0 0 0
0:00:00.00 490671 N 0 0 0
0:00:00.00 491004 N 0 0 0
0:00:00.00 491319 N 0 0 0
0:00:00.00 491647 N 0 0 0
0:00:00.00 491954 N 0 0 0
0:00:00.00 492257 N 0 0 0
0:00:00.00 492570 N 0 0 0
0:00:00.00 492856 N 0 0 0
0:00:00.00 493187 N 0 0 0
0:00:00.00 493531 N 0 0 0
0:00:00.00 493846 N 0 0 0
0:00:00.00 494161 N 0 0 0
0:00:00.00 494444 N 0 0 0
0:00:00.00 494757 N 0 0 0
0:00:00.00 495070 N 0 0 0
0:00:00.00 495382 N 0 0 0
0:00:00.00 495697 N 0 0 0
0:00:00.00 496021 N 0 0 0
0:00:00.00 496346 N 0 0 0
0:00:00.00 496642 N 0 0 0
0:00:00.00 496960 N 0 0 0
0:00:00.00 497257 N 0 0 0
0:00:00.00 497588 N 0 0 0
0:00:00.00 497912 N 0 0 0
0:00:00.00 498251 N 0 0 0
0:00:00.00 498560 N 0 0 0
0:00:00.00 498856 N 0 0 0
0:00:00.00 499163 N 0 0 0
0:00:00.00 499486 N 0 0 0
0:00:00.00 499786 N 0 0 0
0:00:00.00 500105 N 0 0 0
0:00:00.00 500431 N 0 0 0
0:00:00.00 500731 N 0 0 0
0:00:00.00 501035 N 0 0 0
0:00:00.00 501329 N 0 0 0
0:00:00.00 501635 N 0 0 0
0:00:00.00 501966 N 0 0 0
0:00:00.00 502261 N 0 0 0
0:00:00.00 502569 N 0 0 0
0:00:00.00 502884 N 0 0 0
0:00:00.00 503192 N 0 0 0
0:00:00.00 503491 N 0 0 0
0:00:00.00 503820 N 0 0 0
0:00:00.00 504139 N 0 0 0
0:00:00.00 504461 N 0 0 0
0:00:00.00 504749 N 0 0 0
0:00:00.00 505062 N 0 0 0
0:00:00.00 505381 N 0 0 0
0:00:00.00 505679 N 0 0 0
0:00:00.00 506011 N 0 0 0
0:00:00.00 506340 N 0 0 0
0:00:00.00 506664 N 0 0 0
0:00:00.00 506970 N 0 0 0
0:00:00.00 507287 N 0 0 0
0:00:00.00 507586 N 0 0 0
0:00:00.00 507884 N 0 0 0
0:00:00.00 508217 N 0 0 0
0:00:00.00 508540 N 0 0 0
0:00:00.00 508856 N 0 0 0
0:00:00.00 509168 N 0 0 0
0:00:00.00 509481 N 0 0 0
0:00:00.00 509782 N 0 0 0
0:00:00.00 510077 N 0 0 0
0:00:00.00 510431 N 0 0 0
0:00:00.00 510766 N 0 0 0
0:00:00.00 511090 N 0 0 0
0:00:00.00 511420 N 0 0 0
0:00:00.00 511742 N 0 0 0
0:00:00.00 512053 N 0 0 0
0:00:00.00 512368 N 0 0 0
0:00:00.00 512726 N 0 0 0
0:00:00.00 513063 N 0 0 0
0:00:00.00 513383 N 0 0 0
0:00:00.00 513713 N 0 0 0
0:00:00.00 514040 N 0 0 0
0:00:00.00 514343 N 0 0 0
0:00:00.00 514665 N 0 0 0
0:00:00.00 515021 N 0 0 0
0:00:00.00 515340 N 0 0 0
0:00:00.00 515648 N 0 0 0
0:00:00.00 515968 N 0 0 0
0:00:00.00 516280 N 0 0 0
0:00:00.00 516573 N 0 0 0
0:00:00.00 516892 N 0 0 0
0:00:00.00 517221 N 0 0 0
0:00:00.00 517536 N 0 0 0
0:00:00.00 517822 N 0 0 0
0:00:00.00 518125 N 0 0 0
0:00:00.00 518423 N 0 0 0
0:00:00.00 518722 N 0 0 0
0:00:00.00 519039 N 0 0 0
0:00:00.00 519370 N 0 0 0
0:00:00.00 519691 N 0 0 0
0:00:00.00 519995 N 0 0 0
0:00:00.00 520290 N 0 0 0
0:00:00.00 520605 N 0 0 0
0:00:00.00 520907 N 0 0 0
0:00:00.00 521230 N 0 0 0
0:00:00.00 521566 N 0 0 0
0:00:00.00 521887 N 0 0 0
0:00:00.00 522191 N 0 0 0
0:00:00.00 522495 N 0 0 0
0:00:00.00 522808 N 0 0 0
0:00:00.00 523109 N 0 0 0
0:00:00.00 523431 N 0 0 0
0:00:00.00 523768 N 0 0 0
0:00:00.00 524075 N 0 0 0
0:00:00.00 524385 N 0 0 0
0:00:00.00 524691 N 0 0 0
0:00:00.00 524999 N 0 0 0
0:00:00.00 525312 N 0 0 0
0:00:00.00 525640 N 0 0 0
0:00:00.00 525967 N 0 0 0
0:00:00.00 526279 N 0 0 0
0:00:00.00 526586 N 0 0 0
0:00:00.00 526898 N 0 0 0
0:00:00.00 527215 N 0 0 0
0:00:00.00 527533 N 0 0 0
0:00:00.00 527866 N 0 0 0
0:00:00.00 528210 N 0 0 0
0:00:00.00 528529 N 0 0 0
0:00:00.00 528851 N 0 0 0
0:00:00.00 529146 N 0 0 0
0:00:00.00 529445 N 0 0 0
0:00:00.00 529774 N 0 0 0
0:00:00.00 530087 N 0 0 0
0:00:00.00 530417 N 0 0 0
0:00:00.00 530726 N 0 0 0
0:00:00.00 531023 N 0 0 0
0:00:00.00 531329 N 0 0 0
0:00:00.00 531625 N 0 0 0
0:00:00.00 531952 N 0 0 0
0:00:00.00 532280 N 0 0 0
0:00:00.00 532598 N 0 0 0
0:00:00.00 532915 N 0 0 0
0:00:00.00 533210 N 0 0 0
0:00:00.00 533520 N 0 0 0
0:00:00.00 533813 N 0 0 0
0:00:00.00 534145 N 0 0 0
0:00:00.00 534478 N 0 0 0
0:00:00.00 534809 N 0 0 0
0:00:00.00 535133 N 0 0 0
0:00:00.00 535442 N 0 0 0
0:00:00.00 535747 N 0 0 0
0:00:00.00 536056 N 0 0 0
0:00:00.00 536386 N 0 0 0
0:00:00.00 536708 N 0 0 0
0:00:00.00 537053 N 0 0 0
0:00:00.00 537368 N 0 0 0
0:00:00.00 537671 N 0 0 0
0:00:00.00 537995 N 0 0 0
0:00:00.00 538310 N 0 0 0
0:00:00.00 538646 N 0 0 0
0:00:00.00 538974 N 0 0 0
0:00:00.00 539296 N 0 0 0
0:00:00.00 539642 N 0 0 0
0:00:00.00 539955 N 0 0 0
0:00:00.00 540261 N 0 0 0
0:00:00.00 540590 N 0 0 0
0:00:00.00 540934 N 0 0 0
0:00:00.00 541265 N 0 0 0
0:00:00.00 541593 N 0 0 0
0:00:00.00 541926 N 0 0 0
0:00:00.00 542227 N 0 0 0
0:00:00.00 542538 N 0 0 0
0:00:00.00 542873 N 0 0 0
0:00:00.00 543233 N 0 0 0
0:00:00.00 543533 N 0 0 0
0:00:00.00 543852 N 0 0 0
0:00:00.00 544190 N 0 0 0
0:00:00.00 544478 N 0 0 0
0:00:00.00 544802 N 0 0 0
0:00:00.00 545146 N 0 0 0
0:00:00.00 545485 N 0 0 0
0:00:00.00 545787 N 0 0 0
0:00:00.00 546127 N 0 0 0
0:00:00.00 546421 N 0 0 0
0:00:00.00 546725 N 0 0 0
0:00:00.00 547056 N 0 0 0
0:00:00.00 547380 N 0 0 0
0:00:00.00 547699 N 0 0 0
0:00:00.00 547996 N 0 0 0
0:00:00.00 548293 N 0 0 0
0:00:00.00 548599 N 0 0 0
0:00:00.00 548881 N 0 0 0
0:00:00.00 549184 N 0 0 0
0:00:00.00 549527 N 0 0 0
0:00:00.00 549832 N 0 0 0
0:00:00.00 550129 N 0 0 0
0:00:00.00 550435 N 0 0 0
0:00:00.00 550742 N 0 0 0
0:00:00.00 551043 N 0 0 0
0:00:00.00 551356 N 0 0 0
0:00:00.00 551686 N 0 0 0
0:00:00.00 552015 N 0 0 0
0:00:00.00 552341 N 0 0 0
0:00:00.00 552647 N 0 0 0
0:00:00.00 552967 N 0 0 0
0:00:00.00 553273 N 0 0 0
0:00:00.00 553604 N 0 0 0
0:00:00.00 553936 N 0 0 0
0:00:00.00 554260 N 0 0 0
0:00:00.00 554569 N 0 0 0
0:00:00.00 554873 N 0 0 0
0:00:00.00 555187 N 0 0 0
0:00:00.00 555482 N 0 0 0
0:00:00.00 555804 N 0 0 0
0:00:00.00 556130 N 0 0 0
0:00:00.00 556439 N 0 0 0
0:00:00.00 556751 N 0 0 0
0:00:00.00 557050 N 0 0 0
0:00:00.00 557359 N 0 0 0
0:00:00.00 557656 N 0 0 0
0:00:00.00 557978 N 0 0 0
0:00:00.00 558293 N 0 0 0
0:00:00.00 558605 N 0 0 0
0:00:00.00 558913 N 0 0 0
0:00:00.00 559201 N 0 0 0
0:00:00.00 559514 N 0 0 0
0:00:00.00 559809 N 0 0 0
0:00:00.00 560113 N 0 0 0
0:00:00.00 560432 N 0 0 0
0:00:00.00 560732 N 0 0 0
0:00:00.00 561038 N 0 0 0
0:00:00.00 561325 N 0 0 0
0:00:00.00 561627 N 0 0 0
0:00:00.00 561917 N 0 0 0
0:00:00.00 562221 N 0 0 0
0:00:00.00 562536 N 0 0 0
0:00:00.00 562837 N 0 0 0
0:00:00.00 563130 N 0 0 0
0:00:00.00 563418 N 0 0 0
0:00:00.00 563706 N 0 0 0
0:00:00.00 563987 N 0 0 0
0:00:00.00 564293 N 0 0 0
0:00:00.00 564592 N 0 0 0
0:00:00.00 564896 N 0 0 0
0:00:00.00 565189 N 0 0 0
0:00:00.00 565483 N 0 0 0
0:00:00.00 565771 N 0 0 0
0:00:00.00 566059 N 0 0 0
0:00:00.00 566366 N 0 0 0
0:00:00.00 566680 N 0 0 0
0:00:00.00 566991 N 0 0 0
0:00:00.00 567288 N 0 0 0
0:00:00.00 567585 N 0 0 0
0:00:00.00 567873 N 0 0 0
0:00:00.00 568170 N 0 0 0
0:00:00.00 568476 N 0 0 0
0:00:00.00 568795 N 0 0 0
0:00:00.00 569110 N 0 0 0
0:00:00.00 569417 N 0 0 0
0:00:00.00 569738 N 0 0 0
0:00:00.00 570040 N 0 0 0
0:00:00.00 570339 N 0 0 0
0:00:00.00 570658 N 0 0 0
0:00:00.00 570985 N 0 0 0
0:00:00.00 571295 N 0 0 0
0:00:00.00 571590 N 0 0 0
0:00:00.00 571894 N 0 0 0
0:00:00.00 572191 N 0 0 0
0:00:00.00 572477 N 0 0 0
0:00:00.00 572774 N 0 0 0
0:00:00.00 573104 N 0 0 0
0:00:00.00 573419 N 0 0 0
0:00:00.00 573716 N 0 0 0
0:00:00.00 574034 N 0 0 0
0:00:00.00 574335 N 0 0 0
0:00:00.00 574630 N 0 0 0
0:00:00.00 574933 N 0 0 0
0:00:00.00 575271 N 0 0 0
0:00:00.00 575530 N 0 0 0
0:00:00.00 575888 N 0 0 0
0:00:00.00 576218 N 0 0 0
0:00:00.00 576527 N 0 0 0
0:00:00.00 576832 N 0 0 0
0:00:00.00 577123 N 0 0 0
0:00:00.00 577458 N 0 0 0
0:00:00.00 577728 N 0 0 0
0:00:00.00 578068 N 0 0 0
0:00:00.00 578376 N 0 0 0
0:00:00.00 578669 N 0 0 0
0:00:00.00 578963 N 0 0 0
0:00:00.00 579244 N 0 0 0
0:00:00.00 579535 N 0 0 0
0:00:00.00 579870 N 0 0 0
0:00:00.00 580162 N 0 0 0
0:00:00.00 580360 N 0 0 0
0:00:00.00 580705 N 0 0 0
0:00:00.00 580999 N 0 0 0
0:00:00.00 581265 N 0 0 0
0:00:00.00 581569 N 0 0 0
0:00:00.00 581873 N 0 0 0
0:00:00.00 582172 N 0 0 0
0:00:00.00 582449 N 0 0 0
0:00:00.00 582725 N 0 0 0
0:00:00.00 583004 N 0 0 0
0:00:00.00 583292 N 0 0 0
0:00:00.00 583580 N 0 0 0
0:00:00.00 583886 N 0 0 0
0:00:00.00 584197 N 0 0 0
0:00:00.00 584491 N 0 0 0
0:00:00.00 584782 N 0 0 0
0:00:00.00 585072 N 0 0 0
0:00:00.00 585362 N 0 0 0
0:00:00.00 585652 N 0 0 0
0:00:00.00 585976 N 0 0 0
0:00:00.00 586289 N 0 0 0
0:00:00.00 586600 N 0 0 0
0:00:00.00 586892 N 0 0 0
0:00:00.00 587182 N 0 0 0
0:00:00.00 587475 N 0 0 0
0:00:00.00 587767 N 0 0 0
0:00:00.00 588069 N 0 0 0
0:00:00.00 588370 N 0 0 0
0:00:00.00 588686 N 0 0 0
0:00:00.00 588998 N 0 0 0
0:00:00.00 589300 N 0 0 0
0:00:00.00 589608 N 0 0 0
0:00:00.00 589910 N 0 0 0
0:00:00.00 590242 N 0 0 0
0:00:00.00 590569 N 0 0 0
0:00:00.00 590908 N 0 0 0
0:00:00.00 591228 N 0 0 0
0:00:00.00 591536 N 0 0 0
0:00:00.00 591854 N 0 0 0
0:00:00.00 592171 N 0 0 0
0:00:00.00 592501 N 0 0 0
0:00:00.00 592830 N 0 0 0
0:00:00.00 593149 N 0 0 0
0:00:00.00 593462 N 0 0 0
0:00:00.00 593755 N 0 0 0
0:00:00.00 594070 N 0 0 0
0:00:00.00 594383 N 0 0 0
0:00:00.00 594688 N 0 0 0
0:00:00.00 594999 N 0 0 0
0:00:00.00 595314 N 0 0 0
0:00:00.00 595620 N 0 0 0
0:00:00.00 595940 N 0 0 0
0:00:00.00 596246 N 0 0 0
0:00:00.00 596556 N 0 0 0
0:00:00.00 596885 N 0 0 0
0:00:00.00 597215 N 0 0 0
0:00:00.00 597533 N 0 0 0
0:00:00.00 597847 N 0 0 0
0:00:00.00 598138 N 0 0 0
0:00:00.00 598435 N 0 0 0
0:00:00.00 598732 N 0 0 0
0:00:00.00 599062 N 0 0 0
0:00:00.00 599375 N 0 0 0
0:00:00.00 599677 N 0 0 0
0:00:00.00 599969 N 0 0 0
0:00:00.00 600257 N 0 0 0
0:00:00.00 600548 N 0 0 0
0:00:00.00 600829 N 0 0 0
0:00:00.00 601151 N 0 0 0
0:00:00.00 601456 N 0 0 0
0:00:00.00 601758 N 0 0 0
0:00:00.00 602057 N 0 0 0
0:00:00.00 602356 N 0 0 0
0:00:00.00 602654 N 0 0 0
0:00:00.00 602942 N 0 0 0
0:00:00.00 603279 N 0 0 0
0:00:00.00 603608 N 0 0 0
0:00:00.00 603918 N 0 0 0
0:00:00.00 604246 N 0 0 0
0:00:00.00 604557 N 0 0 0
0:00:00.00 604859 N 0 0 0
0:00:00.00 605162 N 0 0 0
0:00:00.00 605518 N 0 0 0
0:00:00.00 605846 N 0 0 0
0:00:00.00 606152 N 0 0 0
0:00:00.00 606474 N 0 0 0
0:00:00.00 606782 N 0 0 0
0:00:00.00 607081 N 0 0 0
0:00:00.00 607394 N 0 0 0
0:00:00.00 607730 N 0 0 0
0:00:00.00 608067 N 0 0 0
0:00:00.00 608377 N 0 0 0
0:00:00.00 608697 N 0 0 0
0:00:00.00 609012 N 0 0 0
0:00:00.00 609300 N 0 0 0
0:00:00.00 609626 N 0 0 0
0:00:00.00 609962 N 0 0 0
0:00:00.00 610279 N 0 0 0
0:00:00.00 610569 N 0 0 0
0:00:00.00 610884 N 0 0 0
0:00:00.00 611181 N 0 0 0
0:00:00.00 611478 N 0 0 0
0:00:00.00 611798 N 0 0 0
0:00:00.00 612117 N 0 0 0
0:00:00.00 612446 N 0 0 0
0:00:00.00 612743 N 0 0 0
0:00:00.00 613046 N 0 0 0
0:00:00.00 613354 N 0 0 0
0:00:00.00 613647 N 0 0 0
0:00:00.00 613964 N 0 0 0
0:00:00.00 614290 N 0 0 0
0:00:00.00 614610 N 0 0 0
0:00:00.00 614903 N 0 0 0
0:00:00.00 615213 N 0 0 0
0:00:00.00 615523 N 0 0 0
0:00:00.00 615805 N 0 0 0
0:00:00.00 616117 N 0 0 0
0:00:00.00 616455 N 0 0 0
0:00:00.00 616783 N 0 0 0
0:00:00.00 617083 N 0 0 0
0:00:00.00 617391 N 0 0 0
0:00:00.00 617684 N 0 0 0
0:00:00.00 617981 N 0 0 0
0:00:00.00 618280 N 0 0 0
0:00:00.00 618604 N 0 0 0
0:00:00.00 618914 N 0 0 0
0:00:00.00 619232 N 0 0 0
0:00:00.00 619520 N 0 0 0
0:00:00.00 619821 N 0 0 0
0:00:00.00 620089 N 0 0 0
0:00:00.00 620381 N 0 0 0
0:00:00.00 620690 N 0 0 0
0:00:00.00 621009 N 0 0 0
0:00:00.00 621301 N 0 0 0
0:00:00.00 621594 N 0 0 0
0:00:00.00 621884 N 0 0 0
0:00:00.00 622190 N 0 0 0
0:00:00.00 622483 N 0 0 0
0:00:00.00 622807 N 0 0 0
0:00:00.00 623119 N 0 0 0
0:00:00.00 623426 N 0 0 0
0:00:00.00 623723 N 0 0 0
0:00:00.00 624019 N 0 0 0
0:00:00.00 624316 N 0 0 0
0:00:00.00 624604 N 0 0 0
0:00:00.00 624913 N 0 0 0
0:00:00.00 625223 N 0 0 0
0:00:00.00 625523 N 0 0 0
0:00:00.00 625824 N 0 0 0
0:00:00.00 626116 N 0 0 0
0:00:00.00 626414 N 0 0 0
0:00:00.00 626704 N 0 0 0
0:00:00.00 627016 N 0 0 0
0:00:00.00 627318 N 0 0 0
0:00:00.00 627629 N 0 0 0
0:00:00.00 627926 N 0 0 0
0:00:00.00 628213 N 0 0 0
0:00:00.00 628510 N 0 0 0
0:00:00.00 628792 N 0 0 0
0:00:00.00 629093 N 0 0 0
0:00:00.00 629408 N 0 0 0
0:00:00.00 629710 N 0 0 0
0:00:00.00 630005 N 0 0 0
0:00:00.00 630293 N 0 0 0
0:00:00.00 630576 N 0 0 0
0:00:00.00 630855 N 0 0 0
0:00:00.00 631157 N 0 0 0
0:00:00.00 631460 N 0 0 0
0:00:00.00 631764 N 0 0 0
0:00:00.00 632045 N 0 0 0
0:00:00.00 632344 N 0 0 0
0:00:00.00 632628 N 0 0 0
0:00:00.00 632909 N 0 0 0
0:00:00.00 633211 N 0 0 0
0:00:00.00 633517 N 0 0 0
0:00:00.00 633823 N 0 0 0
0:00:00.00 634127 N 0 0 0
0:00:00.00 634423 N 0 0 0
0:00:00.00 634723 N 0 0 0
0:00:00.00 635011 N 0 0 0
0:00:00.00 635292 N 0 0 0
0:00:00.00 635607 N 0 0 0
0:00:00.00 635920 N 0 0 0
0:00:00.00 636224 N 0 0 0
0:00:00.00 636520 N 0 0 0
0:00:00.00 636820 N 0 0 0
0:00:00.00 637115 N 0 0 0
0:00:00.00 637398 N 0 0 0
0:00:00.00 637652 N 0 0 0
0:00:00.00 638044 N 0 0 0
0:00:00.00 638377 N 0 0 0
0:00:00.00 638689 N 0 0 0
0:00:00.00 639011 N 0 0 0
0:00:00.00 639315 N 0 0 0
0:00:00.00 639610 N 0 0 0
0:00:00.00 639947 N 0 0 0
0:00:00.00 640264 N 0 0 0
0:00:00.00 640568 N 0 0 0
0:00:00.00 640858 N 0 0 0
0:00:00.00 641138 N 0 0 0
0:00:00.00 641439 N 0 0 0
0:00:00.00 641705 N 0 0 0
0:00:00.00 641993 N 0 0 0
0:00:00.00 642316 N 0 0 0
0:00:00.00 642609 N 0 0 0
0:00:00.00 642883 N 0 0 0
0:00:00.00 643163 N 0 0 0
0:00:00.00 643442 N 0 0 0
0:00:00.00 643714 N 0 0 0
0:00:00.00 643975 N 0 0 0
0:00:00.00 644276 N 0 0 0
0:00:00.00 644571 N 0 0 0
0:00:00.00 644855 N 0 0 0
0:00:00.00 645127 N 0 0 0
0:00:00.00 645399 N 0 0 0
0:00:00.00 645671 N 0 0 0
0:00:00.00 645943 N 0 0 0
0:00:00.00 646209 N 0 0 0
0:00:00.00 646510 N 0 0 0
0:00:00.00 646787 N 0 0 0
0:00:00.00 646861 N 0 0 0
0:00:00.00 647080 N 0 0 0
0:00:00.00 647354 N 0 0 0
0:00:00.00 647611 N 0 0 0
0:00:00.00 647878 N 0 0 0
0:00:00.00 648146 N 0 0 0
0:00:00.00 648414 N 0 0 0
0:00:00.00 648697 N 0 0 0
0:00:00.00 648997 N 0 0 0
0:00:00.00 649262 N 0 0 0
0:00:00.00 649508 N 0 0 0
0:00:00.00 649784 N 0 0 0
