0:00:00.00 11 N 0 0 0
0:00:00.00 108 N 0 0 0
0:00:00.00 518 N 0 0 0
0:00:00.00 851 N 0 0 0
0:00:00.00 1211 N 0 0 0
0:00:00.00 1629 N 0 0 0
0:00:00.00 1976 N 0 0 0
0:00:00.00 2327 N 0 0 0
0:00:00.00 2698 N 0 0 0
0:00:00.00 3065 N 0 0 0
0:00:00.00 3407 N 0 0 0
0:00:00.00 3739 N 0 0 0
0:00:00.00 4115 N 0 0 0
0:00:00.00 4489 N 0 0 0
0:00:00.00 4824 N 0 0 0
0:00:00.00 5179 N 0 0 0
0:00:00.00 5521 N 0 0 0
0:00:00.00 5845 N 0 0 0
0:00:00.00 6160 N 0 0 0
0:00:00.00 6498 N 0 0 0
0:00:00.00 6858 N 0 0 0
0:00:00.00 7180 N 0 0 0
0:00:00.00 7495 N 0 0 0
0:00:00.00 7837 N 0 0 0
0:00:00.00 8185 N 0 0 0
0:00:00.00 8518 N 0 0 0
0:00:00.00 8831 N 0 0 0
0:00:00.00 9164 N 0 0 0
0:00:00.00 9499 N 0 0 0
0:00:00.00 9841 N 0 0 0
0:00:00.00 10159 N 0 0 0
0:00:00.00 10492 N 0 0 0
0:00:00.00 10829 N 0 0 0
0:00:00.00 11158 N 0 0 0
0:00:00.00 11473 N 0 0 0
0:00:00.00 11790 N 0 0 0
0:00:00.00 12112 N 0 0 0
0:00:00.00 12429 N 0 0 0
0:00:00.00 12737 N 0 0 0
0:00:00.00 13088 N 0 0 0
0:00:00.00 13423 N 0 0 0
0:00:00.00 13734 N 0 0 0
0:00:00.00 14089 N 0 0 0
0:00:00.00 14470 N 0 0 0
0:00:00.00 14809 N 0 0 0
0:00:00.00 15190 N 0 0 0
0:00:00.00 15601 N 0 0 0
0:00:00.00 15964 N 0 0 0
0:00:00.00 16319 N 0 0 0
0:00:00.00 16695 N 0 0 0
0:00:00.00 17071 N 0 0 0
0:00:00.00 17426 N 0 0 0
0:00:00.00 17788 N 0 0 0
0:00:00.00 18162 N 0 0 0
0:00:00.00 18518 N 0 0 0
0:00:00.00 18864 N 0 0 0
0:00:00.00 19217 N 0 0 0
0:00:00.00 19568 N 0 0 0
0:00:00.00 19883 N 0 0 0
0:00:00.00 20203 N 0 0 0
0:00:00.00 20540 N 0 0 0
0:00:00.00 20875 N 0 0 0
0:00:00.00 21175 N 0 0 0
0:00:00.00 21488 N 0 0 0
0:00:00.00 21832 N 0 0 0
0:00:00.00 22169 N 0 0 0
0:00:00.00 22520 N 0 0 0
0:00:00.00 22880 N 0 0 0
0:00:00.00 23220 N 0 0 0
0:00:00.00 23542 N 0 0 0
0:00:00.00 23873 N 0 0 0
0:00:00.00 24237 N 0 0 0
0:00:00.00 24565 N 0 0 0
0:00:00.00 24916 N 0 0 0
0:00:00.00 25286 N 0 0 0
0:00:00.00 25661 N 0 0 0
0:00:00.00 26012 N 0 0 0
0:00:00.00 26374 N 0 0 0
0:00:00.00 26734 N 0 0 0
0:00:00.00 27070 N 0 0 0
0:00:00.00 27383 N 0 0 0
0:00:00.00 27709 N 0 0 0
0:00:00.00 28037 N 0 0 0
0:00:00.00 28355 N 0 0 0
0:00:00.00 28665 N 0 0 0
0:00:00.00 28987 N 0 0 0
0:00:00.00 29354 N 0 0 0
0:00:00.00 29673 N 0 0 0
0:00:00.00 30004 N 0 0 0
0:00:00.00 30353 N 0 0 0
0:00:00.00 30695 N 0 0 0
0:00:00.00 31030 N 0 0 0
0:00:00.00 31381 N 0 0 0
0:00:00.00 31766 N 0 0 0
0:00:00.00 32108 N 0 0 0
0:00:00.00 32450 N 0 0 0
0:00:00.00 32798 N 0 0 0
0:00:00.00 33145 N 0 0 0
0:00:00.00 33471 N 0 0 0
0:00:00.00 33811 N 0 0 0
0:00:00.00 34162 N 0 0 0
0:00:00.00 34510 N 0 0 0
0:00:00.00 34828 N 0 0 0
0:00:00.00 35197 N 0 0 0
0:00:00.00 35543 N 0 0 0
0:00:00.00 35867 N 0 0 0
0:00:00.00 36234 N 0 0 0
0:00:00.00 36608 N 0 0 0
0:00:00.00 36923 N 0 0 0
0:00:00.00 37251 N 0 0 0
0:00:00.00 37633 N 0 0 0
0:00:00.00 38009 N 0 0 0
0:00:00.00 38335 N 0 0 0
0:00:00.00 38702 N 0 0 0
0:00:00.00 39098 N 0 0 0
0:00:00.00 39434 N 0 0 0
0:00:00.00 39773 N 0 0 0
0:00:00.00 40136 N 0 0 0
0:00:00.00 40502 N 0 0 0
0:00:00.00 40822 N 0 0 0
0:00:00.00 41157 N 0 0 0
0:00:00.00 41515 N 0 0 0
0:00:00.00 41843 N 0 0 0
0:00:00.00 42145 N 0 0 0
0:00:00.00 42464 N 0 0 0
0:00:00.00 42808 N 0 0 0
0:00:00.00 43133 N 0 0 0
0:00:00.00 43452 N 0 0 0
0:00:00.00 43801 N 0 0 0
0:00:00.00 44156 N 0 0 0
0:00:00.00 44478 N 0 0 0
0:00:00.00 44822 N 0 0 0
0:00:00.00 45191 N 0 0 0
0:00:00.00 45524 N 0 0 0
0:00:00.00 45860 N 0 0 0
0:00:00.00 46246 N 0 0 0
0:00:00.00 46607 N 0 0 0
0:00:00.00 46924 N 0 0 0
0:00:00.00 47236 N 0 0 0
0:00:00.00 47565 N 0 0 0
0:00:00.00 47876 N 0 0 0
0:00:00.00 48191 N 0 0 0
0:00:00.00 48523 N 0 0 0
0:00:00.00 48859 N 0 0 0
0:00:00.00 49190 N 0 0 0
0:00:00.00 49538 N 0 0 0
0:00:00.00 49892 N 0 0 0
0:00:00.00 50224 N 0 0 0
0:00:00.00 50546 N 0 0 0
0:00:00.00 50915 N 0 0 0
0:00:00.00 51273 N 0 0 0
0:00:00.00 51601 N 0 0 0
0:00:00.00 51946 N 0 0 0
0:00:00.00 52315 N 0 0 0
0:00:00.00 52643 N 0 0 0
0:00:00.00 52954 N 0 0 0
0:00:00.00 53285 N 0 0 0
0:00:00.00 53611 N 0 0 0
0:00:00.00 53914 N 0 0 0
0:00:00.00 54225 N 0 0 0
0:00:00.00 54558 N 0 0 0
0:00:00.00 54886 N 0 0 0
0:00:00.00 55197 N 0 0 0
0:00:00.00 55526 N 0 0 0
0:00:00.00 55926 N 0 0 0
0:00:00.00 56281 N 0 0 0
0:00:00.00 56614 N 0 0 0
0:00:00.00 56983 N 0 0 0
0:00:00.00 57330 N 0 0 0
0:00:00.00 57638 N 0 0 0
0:00:00.00 57982 N 0 0 0
0:00:00.00 58381 N 0 0 0
0:00:00.00 58725 N 0 0 0
0:00:00.00 59067 N 0 0 0
0:00:00.00 59431 N 0 0 0
0:00:00.00 59782 N 0 0 0
0:00:00.00 60091 N 0 0 0
0:00:00.00 60428 N 0 0 0
0:00:00.00 60777 N 0 0 0
0:00:00.00 61124 N 0 0 0
0:00:00.00 61439 N 0 0 0
0:00:00.00 61774 N 0 0 0
0:00:00.00 62143 N 0 0 0
0:00:00.00 62476 N 0 0 0
0:00:00.00 62779 N 0 0 0
0:00:00.00 63133 N 0 0 0
0:00:00.00 63515 N 0 0 0
0:00:00.00 63846 N 0 0 0
0:00:00.00 64188 N 0 0 0
0:00:00.00 64568 N 0 0 0
0:00:00.00 64926 N 0 0 0
0:00:00.00 65239 N 0 0 0
0:00:00.00 65549 N 0 0 0
0:00:00.00 65864 N 0 0 0
0:00:00.00 66179 N 0 0 0
0:00:00.00 66476 N 0 0 0
0:00:00.00 66794 N 0 0 0
0:00:00.00 67140 N 0 0 0
0:00:00.00 67464 N 0 0 0
0:00:00.00 67801 N 0 0 0
0:00:00.00 68231 N 0 0 0
0:00:00.00 68602 N 0 0 0
0:00:00.00 68974 N 0 0 0
0:00:00.00 69356 N 0 0 0
0:00:00.00 69737 N 0 0 0
0:00:00.00 70096 N 0 0 0
0:00:00.00 70470 N 0 0 0
0:00:00.00 70841 N 0 0 0
0:00:00.00 71194 N 0 0 0
0:00:00.00 71568 N 0 0 0
0:00:00.00 71939 N 0 0 0
0:00:00.00 72306 N 0 0 0
0:00:00.00 72657 N 0 0 0
0:00:00.00 73017 N 0 0 0
0:00:00.00 73379 N 0 0 0
0:00:00.00 73724 N 0 0 0
0:00:00.00 74077 N 0 0 0
0:00:00.00 74435 N 0 0 0
0:00:00.00 74799 N 0 0 0
0:00:00.00 75132 N 0 0 0
0:00:00.00 75469 N 0 0 0
0:00:00.00 75832 N 0 0 0
0:00:00.00 76194 N 0 0 0
0:00:00.00 76525 N 0 0 0
0:00:00.00 76867 N 0 0 0
0:00:00.00 77234 N 0 0 0
0:00:00.00 77589 N 0 0 0
0:00:00.00 77911 N 0 0 0
0:00:00.00 78233 N 0 0 0
0:00:00.00 78563 N 0 0 0
0:00:00.00 78874 N 0 0 0
0:00:00.00 79191 N 0 0 0
0:00:00.00 79506 N 0 0 0
0:00:00.00 79828 N 0 0 0
0:00:00.00 80145 N 0 0 0
0:00:00.00 80485 N 0 0 0
0:00:00.00 80842 N 0 0 0
0:00:00.00 81196 N 0 0 0
0:00:00.00 81517 N 0 0 0
0:00:00.00 81853 N 0 0 0
0:00:00.00 82172 N 0 0 0
0:00:00.00 82476 N 0 0 0
0:00:00.00 82795 N 0 0 0
0:00:00.00 83111 N 0 0 0
0:00:00.00 83407 N 0 0 0
0:00:00.00 83707 N 0 0 0
0:00:00.00 84022 N 0 0 0
0:00:00.00 84323 N 0 0 0
0:00:00.00 84613 N 0 0 0
0:00:00.00 84913 N 0 0 0
0:00:00.00 85225 N 0 0 0
0:00:00.00 85532 N 0 0 0
0:00:00.00 85874 N 0 0 0
0:00:00.00 86234 N 0 0 0
0:00:00.00 86580 N 0 0 0
0:00:00.00 86958 N 0 0 0
0:00:00.00 87320 N 0 0 0
0:00:00.00 87655 N 0 0 0
0:00:00.00 88007 N 0 0 0
0:00:00.00 88331 N 0 0 0
0:00:00.00 88637 N 0 0 0
0:00:00.00 88936 N 0 0 0
0:00:00.00 89257 N 0 0 0
0:00:00.00 89615 N 0 0 0
0:00:00.00 89960 N 0 0 0
0:00:00.00 90304 N 0 0 0
0:00:00.00 90700 N 0 0 0
0:00:00.00 91100 N 0 0 0
0:00:00.00 91465 N 0 0 0
0:00:00.00 91834 N 0 0 0
0:00:00.00 92216 N 0 0 0
0:00:00.00 92570 N 0 0 0
0:00:00.00 92896 N 0 0 0
0:00:00.00 93260 N 0 0 0
0:00:00.00 93632 N 0 0 0
0:00:00.00 93973 N 0 0 0
0:00:00.00 94289 N 0 0 0
0:00:00.00 94653 N 0 0 0
0:00:00.00 95011 N 0 0 0
0:00:00.00 95332 N 0 0 0
0:00:00.00 95665 N 0 0 0
0:00:00.00 96010 N 0 0 0
0:00:00.00 96334 N 0 0 0
0:00:00.00 96638 N 0 0 0
0:00:00.00 96980 N 0 0 0
0:00:00.00 97349 N 0 0 0
0:00:00.00 97679 N 0 0 0
0:00:00.00 98039 N 0 0 0
0:00:00.00 98413 N 0 0 0
0:00:00.00 98728 N 0 0 0
0:00:00.00 99038 N 0 0 0
0:00:00.00 99373 N 0 0 0
0:00:00.00 99702 N 0 0 0
0:00:00.00 100010 N 0 0 0
0:00:00.00 100328 N 0 0 0
0:00:00.00 100663 N 0 0 0
0:00:00.00 100987 N 0 0 0
0:00:00.00 101338 N 0 0 0
0:00:00.00 101732 N 0 0 0
0:00:00.00 102085 N 0 0 0
0:00:00.00 102418 N 0 0 0
0:00:00.00 102775 N 0 0 0
0:00:00.00 103156 N 0 0 0
0:00:00.00 103500 N 0 0 0
0:00:00.00 103840 N 0 0 0
0:00:00.00 104197 N 0 0 0
0:00:00.00 104531 N 0 0 0
0:00:00.00 104850 N 0 0 0
0:00:00.00 105188 N 0 0 0
0:00:00.00 105574 N 0 0 0
0:00:00.00 105957 N 0 0 0
0:00:00.00 106306 N 0 0 0
0:00:00.00 106650 N 0 0 0
0:00:00.00 106987 N 0 0 0
0:00:00.00 107300 N 0 0 0
0:00:00.00 107617 N 0 0 0
0:00:00.00 107926 N 0 0 0
0:00:00.00 108261 N 0 0 0
0:00:00.00 108589 N 0 0 0
0:00:00.00 108922 N 0 0 0
0:00:00.00 109283 N 0 0 0
0:00:00.00 109654 N 0 0 0
0:00:00.00 109991 N 0 0 0
0:00:00.00 110354 N 0 0 0
0:00:00.00 110741 N 0 0 0
0:00:00.00 111112 N 0 0 0
0:00:00.00 111445 N 0 0 0
0:00:00.00 111800 N 0 0 0
0:00:00.00 112185 N 0 0 0
0:00:00.00 112536 N 0 0 0
0:00:00.00 112860 N 0 0 0
0:00:00.00 113198 N 0 0 0
0:00:00.00 113555 N 0 0 0
0:00:00.00 113882 N 0 0 0
0:00:00.00 114203 N 0 0 0
0:00:00.00 114543 N 0 0 0
0:00:00.00 114878 N 0 0 0
0:00:00.00 115198 N 0 0 0
0:00:00.00 115533 N 0 0 0
0:00:00.00 115873 N 0 0 0
0:00:00.00 116197 N 0 0 0
0:00:00.00 116527 N 0 0 0
0:00:00.00 116890 N 0 0 0
0:00:00.00 117263 N 0 0 0
0:00:00.00 117587 N 0 0 0
0:00:00.00 117927 N 0 0 0
0:00:00.00 118310 N 0 0 0
0:00:00.00 118636 N 0 0 0
0:00:00.00 118966 N 0 0 0
0:00:00.00 119308 N 0 0 0
0:00:00.00 119660 N 0 0 0
0:00:00.00 119983 N 0 0 0
0:00:00.00 120314 N 0 0 0
0:00:00.00 120659 N 0 0 0
0:00:00.00 121018 N 0 0 0
0:00:00.00 121334 N 0 0 0
0:00:00.00 121684 N 0 0 0
0:00:00.00 122040 N 0 0 0
0:00:00.00 122359 N 0 0 0
0:00:00.00 122666 N 0 0 0
0:00:00.00 123001 N 0 0 0
0:00:00.00 123354 N 0 0 0
0:00:00.00 123673 N 0 0 0
0:00:00.00 123995 N 0 0 0
0:00:00.00 124380 N 0 0 0
0:00:00.00 124754 N 0 0 0
0:00:00.00 125082 N 0 0 0
0:00:00.00 125422 N 0 0 0
0:00:00.00 125766 N 0 0 0
0:00:00.00 126097 N 0 0 0
0:00:00.00 126398 N 0 0 0
0:00:00.00 126733 N 0 0 0
0:00:00.00 127129 N 0 0 0
0:00:00.00 127471 N 0 0 0
0:00:00.00 127787 N 0 0 0
0:00:00.00 128135 N 0 0 0
0:00:00.00 128502 N 0 0 0
0:00:00.00 128815 N 0 0 0
0:00:00.00 129132 N 0 0 0
0:00:00.00 129479 N 0 0 0
0:00:00.00 129821 N 0 0 0
0:00:00.00 130127 N 0 0 0
0:00:00.00 130448 N 0 0 0
0:00:00.00 130792 N 0 0 0
0:00:00.00 131112 N 0 0 0
0:00:00.00 131414 N 0 0 0
0:00:00.00 131738 N 0 0 0
0:00:00.00 132082 N 0 0 0
0:00:00.00 132406 N 0 0 0
0:00:00.00 132714 N 0 0 0
0:00:00.00 133043 N 0 0 0
0:00:00.00 133418 N 0 0 0
0:00:00.00 133778 N 0 0 0
0:00:00.00 134105 N 0 0 0
0:00:00.00 134491 N 0 0 0
0:00:00.00 134861 N 0 0 0
0:00:00.00 135189 N 0 0 0
0:00:00.00 135529 N 0 0 0
0:00:00.00 135898 N 0 0 0
0:00:00.00 136226 N 0 0 0
0:00:00.00 136528 N 0 0 0
0:00:00.00 136854 N 0 0 0
0:00:00.00 137210 N 0 0 0
0:00:00.00 137527 N 0 0 0
0:00:00.00 137842 N 0 0 0
0:00:00.00 138202 N 0 0 0
0:00:00.00 138584 N 0 0 0
0:00:00.00 138913 N 0 0 0
0:00:00.00 139261 N 0 0 0
0:00:00.00 139660 N 0 0 0
0:00:00.00 140004 N 0 0 0
0:00:00.00 140317 N 0 0 0
0:00:00.00 140672 N 0 0 0
0:00:00.00 141057 N 0 0 0
0:00:00.00 141390 N 0 0 0
0:00:00.00 141694 N 0 0 0
0:00:00.00 142049 N 0 0 0
0:00:00.00 142416 N 0 0 0
0:00:00.00 142772 N 0 0 0
0:00:00.00 143111 N 0 0 0
0:00:00.00 143482 N 0 0 0
0:00:00.00 143881 N 0 0 0
0:00:00.00 144232 N 0 0 0
0:00:00.00 144556 N 0 0 0
0:00:00.00 144914 N 0 0 0
0:00:00.00 145260 N 0 0 0
0:00:00.00 145579 N 0 0 0
0:00:00.00 145888 N 0 0 0
0:00:00.00 146223 N 0 0 0
0:00:00.00 146569 N 0 0 0
0:00:00.00 146884 N 0 0 0
0:00:00.00 147206 N 0 0 0
0:00:00.00 147560 N 0 0 0
0:00:00.00 147938 N 0 0 0
0:00:00.00 148277 N 0 0 0
0:00:00.00 148649 N 0 0 0
0:00:00.00 149035 N 0 0 0
0:00:00.00 149366 N 0 0 0
0:00:00.00 149681 N 0 0 0
0:00:00.00 150003 N 0 0 0
0:00:00.00 150331 N 0 0 0
0:00:00.00 150637 N 0 0 0
0:00:00.00 150953 N 0 0 0
0:00:00.00 151286 N 0 0 0
0:00:00.00 151630 N 0 0 0
0:00:00.00 151938 N 0 0 0
0:00:00.00 152251 N 0 0 0
0:00:00.00 152584 N 0 0 0
0:00:00.00 152921 N 0 0 0
0:00:00.00 153225 N 0 0 0
0:00:00.00 153563 N 0 0 0
0:00:00.00 153936 N 0 0 0
0:00:00.00 154294 N 0 0 0
0:00:00.00 154625 N 0 0 0
0:00:00.00 154966 N 0 0 0
0:00:00.00 155297 N 0 0 0
0:00:00.00 155606 N 0 0 0
0:00:00.00 155907 N 0 0 0
0:00:00.00 156236 N 0 0 0
0:00:00.00 156591 N 0 0 0
0:00:00.00 156910 N 0 0 0
0:00:00.00 157216 N 0 0 0
0:00:00.00 157543 N 0 0 0
0:00:00.00 157853 N 0 0 0
0:00:00.00 158148 N 0 0 0
0:00:00.00 158449 N 0 0 0
0:00:00.00 158800 N 0 0 0
0:00:00.00 159151 N 0 0 0
0:00:00.00 159473 N 0 0 0
0:00:00.00 159865 N 0 0 0
0:00:00.00 160258 N 0 0 0
0:00:00.00 160587 N 0 0 0
0:00:00.00 160929 N 0 0 0
0:00:00.00 161285 N 0 0 0
0:00:00.00 161618 N 0 0 0
0:00:00.00 161933 N 0 0 0
0:00:00.00 162252 N 0 0 0
0:00:00.00 162589 N 0 0 0
0:00:00.00 162916 N 0 0 0
0:00:00.00 163219 N 0 0 0
0:00:00.00 163525 N 0 0 0
0:00:00.00 163858 N 0 0 0
0:00:00.00 164167 N 0 0 0
0:00:00.00 164480 N 0 0 0
0:00:00.00 164810 N 0 0 0
0:00:00.00 165182 N 0 0 0
0:00:00.00 165539 N 0 0 0
0:00:00.00 165854 N 0 0 0
0:00:00.00 166176 N 0 0 0
0:00:00.00 166507 N 0 0 0
0:00:00.00 166826 N 0 0 0
0:00:00.00 167128 N 0 0 0
0:00:00.00 167423 N 0 0 0
0:00:00.00 167713 N 0 0 0
0:00:00.00 168012 N 0 0 0
0:00:00.00 168320 N 0 0 0
0:00:00.00 168624 N 0 0 0
0:00:00.00 168934 N 0 0 0
0:00:00.00 169236 N 0 0 0
0:00:00.00 169679 N 0 0 0
0:00:00.00 170095 N 0 0 0
0:00:00.00 170460 N 0 0 0
0:00:00.00 170827 N 0 0 0
0:00:00.00 171200 N 0 0 0
0:00:00.00 171580 N 0 0 0
0:00:00.00 171938 N 0 0 0
0:00:00.00 172316 N 0 0 0
0:00:00.00 172688 N 0 0 0
0:00:00.00 173056 N 0 0 0
0:00:00.00 173410 N 0 0 0
0:00:00.00 173774 N 0 0 0
0:00:00.00 174130 N 0 0 0
0:00:00.00 174452 N 0 0 0
0:00:00.00 174789 N 0 0 0
0:00:00.00 175174 N 0 0 0
0:00:00.00 175527 N 0 0 0
0:00:00.00 175855 N 0 0 0
0:00:00.00 176224 N 0 0 0
0:00:00.00 176593 N 0 0 0
0:00:00.00 176918 N 0 0 0
0:00:00.00 177241 N 0 0 0
0:00:00.00 177592 N 0 0 0
0:00:00.00 177944 N 0 0 0
0:00:00.00 178290 N 0 0 0
0:00:00.00 178605 N 0 0 0
0:00:00.00 178958 N 0 0 0
0:00:00.00 179329 N 0 0 0
0:00:00.00 179708 N 0 0 0
0:00:00.00 180032 N 0 0 0
0:00:00.00 180355 N 0 0 0
0:00:00.00 180689 N 0 0 0
0:00:00.00 181026 N 0 0 0
0:00:00.00 181330 N 0 0 0
0:00:00.00 181645 N 0 0 0
0:00:00.00 181994 N 0 0 0
0:00:00.00 182351 N 0 0 0
0:00:00.00 182669 N 0 0 0
0:00:00.00 183006 N 0 0 0
0:00:00.00 183379 N 0 0 0
0:00:00.00 183733 N 0 0 0
0:00:00.00 184041 N 0 0 0
0:00:00.00 184383 N 0 0 0
0:00:00.00 184761 N 0 0 0
0:00:00.00 185096 N 0 0 0
0:00:00.00 185413 N 0 0 0
0:00:00.00 185747 N 0 0 0
0:00:00.00 186080 N 0 0 0
0:00:00.00 186386 N 0 0 0
0:00:00.00 186701 N 0 0 0
0:00:00.00 187029 N 0 0 0
0:00:00.00 187349 N 0 0 0
0:00:00.00 187661 N 0 0 0
0:00:00.00 187988 N 0 0 0
0:00:00.00 188336 N 0 0 0
0:00:00.00 188685 N 0 0 0
0:00:00.00 189007 N 0 0 0
0:00:00.00 189360 N 0 0 0
0:00:00.00 189763 N 0 0 0
0:00:00.00 190121 N 0 0 0
0:00:00.00 190472 N 0 0 0
0:00:00.00 190823 N 0 0 0
0:00:00.00 191167 N 0 0 0
0:00:00.00 191482 N 0 0 0
0:00:00.00 191819 N 0 0 0
0:00:00.00 192173 N 0 0 0
0:00:00.00 192506 N 0 0 0
0:00:00.00 192834 N 0 0 0
0:00:00.00 193163 N 0 0 0
0:00:00.00 193523 N 0 0 0
0:00:00.00 193865 N 0 0 0
0:00:00.00 194216 N 0 0 0
0:00:00.00 194571 N 0 0 0
0:00:00.00 194915 N 0 0 0
0:00:00.00 195241 N 0 0 0
0:00:00.00 195579 N 0 0 0
0:00:00.00 195912 N 0 0 0
0:00:00.00 196240 N 0 0 0
0:00:00.00 196555 N 0 0 0
0:00:00.00 196873 N 0 0 0
0:00:00.00 197208 N 0 0 0
0:00:00.00 197534 N 0 0 0
0:00:00.00 197847 N 0 0 0
0:00:00.00 198184 N 0 0 0
0:00:00.00 198531 N 0 0 0
0:00:00.00 198889 N 0 0 0
0:00:00.00 199215 N 0 0 0
0:00:00.00 199557 N 0 0 0
0:00:00.00 199924 N 0 0 0
0:00:00.00 200255 N 0 0 0
0:00:00.00 200578 N 0 0 0
0:00:00.00 200909 N 0 0 0
0:00:00.00 201222 N 0 0 0
0:00:00.00 201541 N 0 0 0
0:00:00.00 201874 N 0 0 0
0:00:00.00 202232 N 0 0 0
0:00:00.00 202568 N 0 0 0
0:00:00.00 202909 N 0 0 0
0:00:00.00 203287 N 0 0 0
0:00:00.00 203625 N 0 0 0
0:00:00.00 203945 N 0 0 0
0:00:00.00 204282 N 0 0 0
0:00:00.00 204628 N 0 0 0
0:00:00.00 204962 N 0 0 0
0:00:00.00 205286 N 0 0 0
0:00:00.00 205636 N 0 0 0
0:00:00.00 205987 N 0 0 0
0:00:00.00 206296 N 0 0 0
0:00:00.00 206626 N 0 0 0
0:00:00.00 206960 N 0 0 0
0:00:00.00 207279 N 0 0 0
0:00:00.00 207589 N 0 0 0
0:00:00.00 207920 N 0 0 0
0:00:00.00 208291 N 0 0 0
0:00:00.00 208618 N 0 0 0
0:00:00.00 208928 N 0 0 0
0:00:00.00 209299 N 0 0 0
0:00:00.00 209677 N 0 0 0
0:00:00.00 210004 N 0 0 0
0:00:00.00 210323 N 0 0 0
0:00:00.00 210676 N 0 0 0
0:00:00.00 211019 N 0 0 0
0:00:00.00 211333 N 0 0 0
0:00:00.00 211655 N 0 0 0
0:00:00.00 211990 N 0 0 0
0:00:00.00 212312 N 0 0 0
0:00:00.00 212612 N 0 0 0
0:00:00.00 212922 N 0 0 0
0:00:00.00 213257 N 0 0 0
0:00:00.00 213583 N 0 0 0
0:00:00.00 213881 N 0 0 0
0:00:00.00 214200 N 0 0 0
0:00:00.00 214551 N 0 0 0
0:00:00.00 214870 N 0 0 0
0:00:00.00 215170 N 0 0 0
0:00:00.00 215482 N 0 0 0
0:00:00.00 215807 N 0 0 0
0:00:00.00 216121 N 0 0 0
0:00:00.00 216418 N 0 0 0
0:00:00.00 216722 N 0 0 0
0:00:00.00 217089 N 0 0 0
0:00:00.00 217413 N 0 0 0
0:00:00.00 217714 N 0 0 0
0:00:00.00 218039 N 0 0 0
0:00:00.00 218372 N 0 0 0
0:00:00.00 218691 N 0 0 0
0:00:00.00 218990 N 0 0 0
0:00:00.00 219307 N 0 0 0
0:00:00.00 219672 N 0 0 0
0:00:00.00 220007 N 0 0 0
0:00:00.00 220311 N 0 0 0
0:00:00.00 220631 N 0 0 0
0:00:00.00 220977 N 0 0 0
0:00:00.00 221288 N 0 0 0
0:00:00.00 221591 N 0 0 0
0:00:00.00 221931 N 0 0 0
0:00:00.00 222295 N 0 0 0
0:00:00.00 222610 N 0 0 0
0:00:00.00 222912 N 0 0 0
0:00:00.00 223231 N 0 0 0
0:00:00.00 223614 N 0 0 0
0:00:00.00 223952 N 0 0 0
0:00:00.00 224300 N 0 0 0
0:00:00.00 224683 N 0 0 0
0:00:00.00 225032 N 0 0 0
0:00:00.00 225338 N 0 0 0
0:00:00.00 225684 N 0 0 0
0:00:00.00 226039 N 0 0 0
0:00:00.00 226366 N 0 0 0
0:00:00.00 226676 N 0 0 0
0:00:00.00 227002 N 0 0 0
0:00:00.00 227358 N 0 0 0
0:00:00.00 227678 N 0 0 0
0:00:00.00 227984 N 0 0 0
0:00:00.00 228303 N 0 0 0
0:00:00.00 228614 N 0 0 0
0:00:00.00 228922 N 0 0 0
0:00:00.00 229232 N 0 0 0
0:00:00.00 229565 N 0 0 0
0:00:00.00 229882 N 0 0 0
0:00:00.00 230197 N 0 0 0
0:00:00.00 230497 N 0 0 0
0:00:00.00 230791 N 0 0 0
0:00:00.00 231084 N 0 0 0
0:00:00.00 231410 N 0 0 0
0:00:00.00 231739 N 0 0 0
0:00:00.00 232040 N 0 0 0
0:00:00.00 232344 N 0 0 0
0:00:00.00 232681 N 0 0 0
0:00:00.00 232997 N 0 0 0
0:00:00.00 233300 N 0 0 0
0:00:00.00 233622 N 0 0 0
0:00:00.00 233973 N 0 0 0
0:00:00.00 234301 N 0 0 0
0:00:00.00 234603 N 0 0 0
0:00:00.00 234934 N 0 0 0
0:00:00.00 235301 N 0 0 0
0:00:00.00 235631 N 0 0 0
0:00:00.00 235939 N 0 0 0
0:00:00.00 236293 N 0 0 0
0:00:00.00 236662 N 0 0 0
0:00:00.00 236992 N 0 0 0
0:00:00.00 237299 N 0 0 0
0:00:00.00 237656 N 0 0 0
0:00:00.00 238001 N 0 0 0
0:00:00.00 238311 N 0 0 0
0:00:00.00 238631 N 0 0 0
0:00:00.00 238982 N 0 0 0
0:00:00.00 239321 N 0 0 0
0:00:00.00 239629 N 0 0 0
0:00:00.00 239953 N 0 0 0
0:00:00.00 240309 N 0 0 0
0:00:00.00 240629 N 0 0 0
0:00:00.00 240934 N 0 0 0
0:00:00.00 241261 N 0 0 0
0:00:00.00 241609 N 0 0 0
0:00:00.00 241934 N 0 0 0
0:00:00.00 242237 N 0 0 0
0:00:00.00 242550 N 0 0 0
0:00:00.00 242910 N 0 0 0
0:00:00.00 243236 N 0 0 0
0:00:00.00 243540 N 0 0 0
0:00:00.00 243875 N 0 0 0
0:00:00.00 244204 N 0 0 0
0:00:00.00 244514 N 0 0 0
0:00:00.00 244809 N 0 0 0
0:00:00.00 245126 N 0 0 0
0:00:00.00 245471 N 0 0 0
0:00:00.00 245783 N 0 0 0
0:00:00.00 246076 N 0 0 0
0:00:00.00 246395 N 0 0 0
0:00:00.00 246706 N 0 0 0
0:00:00.00 247016 N 0 0 0
0:00:00.00 247306 N 0 0 0
0:00:00.00 247617 N 0 0 0
0:00:00.00 247941 N 0 0 0
0:00:00.00 248247 N 0 0 0
0:00:00.00 248544 N 0 0 0
0:00:00.00 248864 N 0 0 0
0:00:00.00 249210 N 0 0 0
0:00:00.00 249529 N 0 0 0
0:00:00.00 249835 N 0 0 0
0:00:00.00 250177 N 0 0 0
0:00:00.00 250540 N 0 0 0
0:00:00.00 250862 N 0 0 0
0:00:00.00 251199 N 0 0 0
0:00:00.00 251539 N 0 0 0
0:00:00.00 251879 N 0 0 0
0:00:00.00 252196 N 0 0 0
0:00:00.00 252511 N 0 0 0
0:00:00.00 252868 N 0 0 0
0:00:00.00 253228 N 0 0 0
0:00:00.00 253543 N 0 0 0
0:00:00.00 253912 N 0 0 0
0:00:00.00 254291 N 0 0 0
0:00:00.00 254626 N 0 0 0
0:00:00.00 254947 N 0 0 0
0:00:00.00 255271 N 0 0 0
0:00:00.00 255625 N 0 0 0
0:00:00.00 255940 N 0 0 0
0:00:00.00 256273 N 0 0 0
0:00:00.00 256678 N 0 0 0
0:00:00.00 257065 N 0 0 0
0:00:00.00 257402 N 0 0 0
0:00:00.00 257742 N 0 0 0
0:00:00.00 258109 N 0 0 0
0:00:00.00 258428 N 0 0 0
0:00:00.00 258734 N 0 0 0
0:00:00.00 259047 N 0 0 0
0:00:00.00 259366 N 0 0 0
0:00:00.00 259679 N 0 0 0
0:00:00.00 260005 N 0 0 0
0:00:00.00 260336 N 0 0 0
0:00:00.00 260663 N 0 0 0
0:00:00.00 260989 N 0 0 0
0:00:00.00 261337 N 0 0 0
0:00:00.00 261731 N 0 0 0
0:00:00.00 262080 N 0 0 0
0:00:00.00 262417 N 0 0 0
0:00:00.00 262742 N 0 0 0
0:00:00.00 263056 N 0 0 0
0:00:00.00 263367 N 0 0 0
0:00:00.00 263684 N 0 0 0
0:00:00.00 263992 N 0 0 0
0:00:00.00 264307 N 0 0 0
0:00:00.00 264604 N 0 0 0
0:00:00.00 264915 N 0 0 0
0:00:00.00 265244 N 0 0 0
0:00:00.00 265563 N 0 0 0
0:00:00.00 265873 N 0 0 0
0:00:00.00 266188 N 0 0 0
0:00:00.00 266494 N 0 0 0
0:00:00.00 266787 N 0 0 0
0:00:00.00 267082 N 0 0 0
0:00:00.00 267403 N 0 0 0
0:00:00.00 267752 N 0 0 0
0:00:00.00 268067 N 0 0 0
0:00:00.00 268416 N 0 0 0
0:00:00.00 268843 N 0 0 0
0:00:00.00 269204 N 0 0 0
0:00:00.00 269555 N 0 0 0
0:00:00.00 269924 N 0 0 0
0:00:00.00 270277 N 0 0 0
0:00:00.00 270594 N 0 0 0
0:00:00.00 270927 N 0 0 0
0:00:00.00 271292 N 0 0 0
0:00:00.00 271624 N 0 0 0
0:00:00.00 271930 N 0 0 0
0:00:00.00 272275 N 0 0 0
0:00:00.00 272664 N 0 0 0
0:00:00.00 273017 N 0 0 0
0:00:00.00 273335 N 0 0 0
0:00:00.00 273683 N 0 0 0
0:00:00.00 274052 N 0 0 0
0:00:00.00 274387 N 0 0 0
0:00:00.00 274707 N 0 0 0
0:00:00.00 275049 N 0 0 0
0:00:00.00 275418 N 0 0 0
0:00:00.00 275746 N 0 0 0
0:00:00.00 276066 N 0 0 0
0:00:00.00 276415 N 0 0 0
0:00:00.00 276763 N 0 0 0
0:00:00.00 277072 N 0 0 0
0:00:00.00 277411 N 0 0 0
0:00:00.00 277771 N 0 0 0
0:00:00.00 278113 N 0 0 0
0:00:00.00 278428 N 0 0 0
0:00:00.00 278759 N 0 0 0
0:00:00.00 279108 N 0 0 0
0:00:00.00 279410 N 0 0 0
0:00:00.00 279704 N 0 0 0
0:00:00.00 280006 N 0 0 0
0:00:00.00 280323 N 0 0 0
0:00:00.00 280622 N 0 0 0
0:00:00.00 280912 N 0 0 0
0:00:00.00 281223 N 0 0 0
0:00:00.00 281560 N 0 0 0
0:00:00.00 281864 N 0 0 0
0:00:00.00 282154 N 0 0 0
0:00:00.00 282470 N 0 0 0
0:00:00.00 282805 N 0 0 0
0:00:00.00 283120 N 0 0 0
0:00:00.00 283419 N 0 0 0
0:00:00.00 283748 N 0 0 0
0:00:00.00 284126 N 0 0 0
0:00:00.00 284443 N 0 0 0
0:00:00.00 284771 N 0 0 0
0:00:00.00 285106 N 0 0 0
0:00:00.00 285428 N 0 0 0
0:00:00.00 285730 N 0 0 0
0:00:00.00 286042 N 0 0 0
0:00:00.00 286360 N 0 0 0
0:00:00.00 286677 N 0 0 0
0:00:00.00 286978 N 0 0 0
0:00:00.00 287280 N 0 0 0
0:00:00.00 287624 N 0 0 0
0:00:00.00 287946 N 0 0 0
0:00:00.00 288257 N 0 0 0
0:00:00.00 288574 N 0 0 0
0:00:00.00 288907 N 0 0 0
0:00:00.00 289229 N 0 0 0
0:00:00.00 289534 N 0 0 0
0:00:00.00 289899 N 0 0 0
0:00:00.00 290293 N 0 0 0
0:00:00.00 290650 N 0 0 0
0:00:00.00 290999 N 0 0 0
0:00:00.00 291350 N 0 0 0
0:00:00.00 291706 N 0 0 0
0:00:00.00 292021 N 0 0 0
0:00:00.00 292347 N 0 0 0
0:00:00.00 292700 N 0 0 0
0:00:00.00 293058 N 0 0 0
0:00:00.00 293387 N 0 0 0
0:00:00.00 293738 N 0 0 0
0:00:00.00 294120 N 0 0 0
0:00:00.00 294475 N 0 0 0
0:00:00.00 294793 N 0 0 0
0:00:00.00 295142 N 0 0 0
0:00:00.00 295495 N 0 0 0
0:00:00.00 295835 N 0 0 0
0:00:00.00 296143 N 0 0 0
0:00:00.00 296460 N 0 0 0
0:00:00.00 296813 N 0 0 0
0:00:00.00 297133 N 0 0 0
0:00:00.00 297434 N 0 0 0
0:00:00.00 297758 N 0 0 0
0:00:00.00 298111 N 0 0 0
0:00:00.00 298462 N 0 0 0
0:00:00.00 298777 N 0 0 0
0:00:00.00 299115 N 0 0 0
0:00:00.00 299466 N 0 0 0
0:00:00.00 299781 N 0 0 0
0:00:00.00 300089 N 0 0 0
0:00:00.00 300411 N 0 0 0
0:00:00.00 300744 N 0 0 0
0:00:00.00 301063 N 0 0 0
0:00:00.00 301378 N 0 0 0
0:00:00.00 301709 N 0 0 0
0:00:00.00 302054 N 0 0 0
0:00:00.00 302366 N 0 0 0
0:00:00.00 302692 N 0 0 0
0:00:00.00 303091 N 0 0 0
0:00:00.00 303469 N 0 0 0
0:00:00.00 303806 N 0 0 0
0:00:00.00 304137 N 0 0 0
0:00:00.00 304475 N 0 0 0
0:00:00.00 304807 N 0 0 0
0:00:00.00 305109 N 0 0 0
0:00:00.00 305453 N 0 0 0
0:00:00.00 305811 N 0 0 0
0:00:00.00 306158 N 0 0 0
0:00:00.00 306470 N 0 0 0
0:00:00.00 306792 N 0 0 0
0:00:00.00 307138 N 0 0 0
0:00:00.00 307490 N 0 0 0
0:00:00.00 307800 N 0 0 0
0:00:00.00 308126 N 0 0 0
0:00:00.00 308459 N 0 0 0
0:00:00.00 308799 N 0 0 0
0:00:00.00 309109 N 0 0 0
0:00:00.00 309418 N 0 0 0
0:00:00.00 309764 N 0 0 0
0:00:00.00 310090 N 0 0 0
0:00:00.00 310387 N 0 0 0
0:00:00.00 310711 N 0 0 0
0:00:00.00 311044 N 0 0 0
0:00:00.00 311368 N 0 0 0
0:00:00.00 311670 N 0 0 0
0:00:00.00 311969 N 0 0 0
0:00:00.00 312280 N 0 0 0
0:00:00.00 312597 N 0 0 0
0:00:00.00 312887 N 0 0 0
0:00:00.00 313187 N 0 0 0
0:00:00.00 313513 N 0 0 0
0:00:00.00 313866 N 0 0 0
0:00:00.00 314183 N 0 0 0
0:00:00.00 314543 N 0 0 0
0:00:00.00 314993 N 0 0 0
0:00:00.00 315360 N 0 0 0
0:00:00.00 315740 N 0 0 0
0:00:00.00 316121 N 0 0 0
0:00:00.00 316499 N 0 0 0
0:00:00.00 316847 N 0 0 0
0:00:00.00 317207 N 0 0 0
0:00:00.00 317578 N 0 0 0
0:00:00.00 317916 N 0 0 0
0:00:00.00 318247 N 0 0 0
0:00:00.00 318596 N 0 0 0
0:00:00.00 318946 N 0 0 0
0:00:00.00 319259 N 0 0 0
0:00:00.00 319581 N 0 0 0
0:00:00.00 319945 N 0 0 0
0:00:00.00 320294 N 0 0 0
0:00:00.00 320611 N 0 0 0
0:00:00.00 320967 N 0 0 0
0:00:00.00 321343 N 0 0 0
0:00:00.00 321692 N 0 0 0
0:00:00.00 322004 N 0 0 0
0:00:00.00 322346 N 0 0 0
0:00:00.00 322735 N 0 0 0
0:00:00.00 323071 N 0 0 0
0:00:00.00 323399 N 0 0 0
0:00:00.00 323764 N 0 0 0
0:00:00.00 324121 N 0 0 0
0:00:00.00 324437 N 0 0 0
0:00:00.00 324736 N 0 0 0
0:00:00.00 325076 N 0 0 0
0:00:00.00 325413 N 0 0 0
0:00:00.00 325715 N 0 0 0
0:00:00.00 326014 N 0 0 0
0:00:00.00 326318 N 0 0 0
0:00:00.00 326628 N 0 0 0
0:00:00.00 326925 N 0 0 0
0:00:00.00 327218 N 0 0 0
0:00:00.00 327539 N 0 0 0
0:00:00.00 327928 N 0 0 0
0:00:00.00 328257 N 0 0 0
0:00:00.00 328635 N 0 0 0
0:00:00.00 329038 N 0 0 0
0:00:00.00 329409 N 0 0 0
0:00:00.00 329731 N 0 0 0
0:00:00.00 330075 N 0 0 0
0:00:00.00 330458 N 0 0 0
0:00:00.00 330775 N 0 0 0
0:00:00.00 331088 N 0 0 0
0:00:00.00 331423 N 0 0 0
0:00:00.00 331754 N 0 0 0
0:00:00.00 332062 N 0 0 0
0:00:00.00 332393 N 0 0 0
0:00:00.00 332741 N 0 0 0
0:00:00.00 333077 N 0 0 0
0:00:00.00 333387 N 0 0 0
0:00:00.00 333707 N 0 0 0
0:00:00.00 334035 N 0 0 0
0:00:00.00 334357 N 0 0 0
0:00:00.00 334670 N 0 0 0
0:00:00.00 335002 N 0 0 0
0:00:00.00 335392 N 0 0 0
0:00:00.00 335729 N 0 0 0
0:00:00.00 336046 N 0 0 0
0:00:00.00 336375 N 0 0 0
0:00:00.00 336712 N 0 0 0
0:00:00.00 337030 N 0 0 0
0:00:00.00 337338 N 0 0 0
0:00:00.00 337687 N 0 0 0
0:00:00.00 338051 N 0 0 0
0:00:00.00 338371 N 0 0 0
0:00:00.00 338679 N 0 0 0
0:00:00.00 339023 N 0 0 0
0:00:00.00 339379 N 0 0 0
0:00:00.00 339707 N 0 0 0
0:00:00.00 340016 N 0 0 0
0:00:00.00 340382 N 0 0 0
0:00:00.00 340772 N 0 0 0
0:00:00.00 341100 N 0 0 0
0:00:00.00 341411 N 0 0 0
0:00:00.00 341730 N 0 0 0
0:00:00.00 342041 N 0 0 0
0:00:00.00 342353 N 0 0 0
0:00:00.00 342668 N 0 0 0
0:00:00.00 343026 N 0 0 0
0:00:00.00 343382 N 0 0 0
0:00:00.00 343694 N 0 0 0
0:00:00.00 344043 N 0 0 0
0:00:00.00 344461 N 0 0 0
0:00:00.00 344821 N 0 0 0
0:00:00.00 345157 N 0 0 0
0:00:00.00 345532 N 0 0 0
0:00:00.00 345911 N 0 0 0
0:00:00.00 346232 N 0 0 0
0:00:00.00 346554 N 0 0 0
0:00:00.00 346885 N 0 0 0
0:00:00.00 347229 N 0 0 0
0:00:00.00 347542 N 0 0 0
0:00:00.00 347872 N 0 0 0
0:00:00.00 348217 N 0 0 0
0:00:00.00 348574 N 0 0 0
0:00:00.00 348889 N 0 0 0
0:00:00.00 349213 N 0 0 0
0:00:00.00 349596 N 0 0 0
0:00:00.00 349979 N 0 0 0
0:00:00.00 350303 N 0 0 0
0:00:00.00 350631 N 0 0 0
0:00:00.00 350968 N 0 0 0
0:00:00.00 351279 N 0 0 0
0:00:00.00 351571 N 0 0 0
0:00:00.00 351893 N 0 0 0
0:00:00.00 352219 N 0 0 0
0:00:00.00 352537 N 0 0 0
0:00:00.00 352829 N 0 0 0
0:00:00.00 353147 N 0 0 0
0:00:00.00 353482 N 0 0 0
0:00:00.00 353812 N 0 0 0
0:00:00.00 354112 N 0 0 0
0:00:00.00 354442 N 0 0 0
0:00:00.00 354796 N 0 0 0
0:00:00.00 355149 N 0 0 0
0:00:00.00 355459 N 0 0 0
0:00:00.00 355790 N 0 0 0
0:00:00.00 356141 N 0 0 0
0:00:00.00 356449 N 0 0 0
0:00:00.00 356742 N 0 0 0
0:00:00.00 357048 N 0 0 0
0:00:00.00 357356 N 0 0 0
0:00:00.00 357662 N 0 0 0
0:00:00.00 357953 N 0 0 0
0:00:00.00 358250 N 0 0 0
0:00:00.00 358551 N 0 0 0
0:00:00.00 358853 N 0 0 0
0:00:00.00 359145 N 0 0 0
0:00:00.00 359444 N 0 0 0
0:00:00.00 359762 N 0 0 0
0:00:00.00 360086 N 0 0 0
0:00:00.00 360391 N 0 0 0
0:00:00.00 360709 N 0 0 0
0:00:00.00 361044 N 0 0 0
0:00:00.00 361379 N 0 0 0
0:00:00.00 361690 N 0 0 0
0:00:00.00 362029 N 0 0 0
0:00:00.00 362437 N 0 0 0
0:00:00.00 362794 N 0 0 0
0:00:00.00 363130 N 0 0 0
0:00:00.00 363479 N 0 0 0
0:00:00.00 363809 N 0 0 0
0:00:00.00 364111 N 0 0 0
0:00:00.00 364435 N 0 0 0
0:00:00.00 364792 N 0 0 0
0:00:00.00 365107 N 0 0 0
0:00:00.00 365420 N 0 0 0
0:00:00.00 365742 N 0 0 0
0:00:00.00 366082 N 0 0 0
0:00:00.00 366403 N 0 0 0
0:00:00.00 366709 N 0 0 0
0:00:00.00 367029 N 0 0 0
0:00:00.00 367366 N 0 0 0
0:00:00.00 367682 N 0 0 0
0:00:00.00 367988 N 0 0 0
0:00:00.00 368302 N 0 0 0
0:00:00.00 368629 N 0 0 0
0:00:00.00 368975 N 0 0 0
0:00:00.00 369286 N 0 0 0
0:00:00.00 369601 N 0 0 0
0:00:00.00 369927 N 0 0 0
0:00:00.00 370247 N 0 0 0
0:00:00.00 370553 N 0 0 0
0:00:00.00 370872 N 0 0 0
0:00:00.00 371196 N 0 0 0
0:00:00.00 371524 N 0 0 0
0:00:00.00 371835 N 0 0 0
0:00:00.00 372190 N 0 0 0
0:00:00.00 372532 N 0 0 0
0:00:00.00 372866 N 0 0 0
0:00:00.00 373187 N 0 0 0
0:00:00.00 373509 N 0 0 0
0:00:00.00 373837 N 0 0 0
0:00:00.00 374182 N 0 0 0
0:00:00.00 374492 N 0 0 0
0:00:00.00 374814 N 0 0 0
0:00:00.00 375163 N 0 0 0
0:00:00.00 375552 N 0 0 0
0:00:00.00 375894 N 0 0 0
0:00:00.00 376254 N 0 0 0
0:00:00.00 376634 N 0 0 0
0:00:00.00 376969 N 0 0 0
0:00:00.00 377273 N 0 0 0
0:00:00.00 377591 N 0 0 0
0:00:00.00 377935 N 0 0 0
0:00:00.00 378274 N 0 0 0
0:00:00.00 378587 N 0 0 0
0:00:00.00 378893 N 0 0 0
0:00:00.00 379208 N 0 0 0
0:00:00.00 379517 N 0 0 0
0:00:00.00 379813 N 0 0 0
0:00:00.00 380122 N 0 0 0
0:00:00.00 380435 N 0 0 0
0:00:00.00 380749 N 0 0 0
0:00:00.00 381046 N 0 0 0
0:00:00.00 381359 N 0 0 0
0:00:00.00 381695 N 0 0 0
0:00:00.00 382025 N 0 0 0
0:00:00.00 382327 N 0 0 0
0:00:00.00 382633 N 0 0 0
0:00:00.00 382957 N 0 0 0
0:00:00.00 383269 N 0 0 0
0:00:00.00 383569 N 0 0 0
0:00:00.00 383875 N 0 0 0
0:00:00.00 384178 N 0 0 0
0:00:00.00 384478 N 0 0 0
0:00:00.00 384777 N 0 0 0
0:00:00.00 385063 N 0 0 0
0:00:00.00 385375 N 0 0 0
0:00:00.00 385672 N 0 0 0
0:00:00.00 385994 N 0 0 0
0:00:00.00 386323 N 0 0 0
0:00:00.00 386678 N 0 0 0
0:00:00.00 387029 N 0 0 0
0:00:00.00 387398 N 0 0 0
0:00:00.00 387835 N 0 0 0
0:00:00.00 388195 N 0 0 0
0:00:00.00 388523 N 0 0 0
0:00:00.00 388836 N 0 0 0
0:00:00.00 389137 N 0 0 0
0:00:00.00 389444 N 0 0 0
0:00:00.00 389758 N 0 0 0
0:00:00.00 390071 N 0 0 0
0:00:00.00 390393 N 0 0 0
0:00:00.00 390701 N 0 0 0
0:00:00.00 391054 N 0 0 0
0:00:00.00 391500 N 0 0 0
0:00:00.00 391880 N 0 0 0
0:00:00.00 392292 N 0 0 0
0:00:00.00 392686 N 0 0 0
0:00:00.00 393061 N 0 0 0
0:00:00.00 393433 N 0 0 0
0:00:00.00 393797 N 0 0 0
0:00:00.00 394124 N 0 0 0
0:00:00.00 394443 N 0 0 0
0:00:00.00 394763 N 0 0 0
0:00:00.00 395068 N 0 0 0
0:00:00.00 395370 N 0 0 0
0:00:00.00 395694 N 0 0 0
0:00:00.00 396032 N 0 0 0
0:00:00.00 396358 N 0 0 0
0:00:00.00 396725 N 0 0 0
0:00:00.00 397121 N 0 0 0
0:00:00.00 397462 N 0 0 0
0:00:00.00 397802 N 0 0 0
0:00:00.00 398196 N 0 0 0
0:00:00.00 398538 N 0 0 0
0:00:00.00 398869 N 0 0 0
0:00:00.00 399199 N 0 0 0
0:00:00.00 399532 N 0 0 0
0:00:00.00 399850 N 0 0 0
0:00:00.00 400180 N 0 0 0
0:00:00.00 400513 N 0 0 0
0:00:00.00 400835 N 0 0 0
0:00:00.00 401144 N 0 0 0
0:00:00.00 401499 N 0 0 0
0:00:00.00 401843 N 0 0 0
0:00:00.00 402170 N 0 0 0
0:00:00.00 402494 N 0 0 0
0:00:00.00 402849 N 0 0 0
0:00:00.00 403229 N 0 0 0
0:00:00.00 403562 N 0 0 0
0:00:00.00 403902 N 0 0 0
0:00:00.00 404242 N 0 0 0
0:00:00.00 404555 N 0 0 0
0:00:00.00 404872 N 0 0 0
0:00:00.00 405229 N 0 0 0
0:00:00.00 405614 N 0 0 0
0:00:00.00 405988 N 0 0 0
0:00:00.00 406319 N 0 0 0
0:00:00.00 406665 N 0 0 0
0:00:00.00 407023 N 0 0 0
0:00:00.00 407351 N 0 0 0
0:00:00.00 407668 N 0 0 0
0:00:00.00 407984 N 0 0 0
0:00:00.00 408319 N 0 0 0
0:00:00.00 408632 N 0 0 0
0:00:00.00 408949 N 0 0 0
0:00:00.00 409300 N 0 0 0
0:00:00.00 409648 N 0 0 0
0:00:00.00 409961 N 0 0 0
0:00:00.00 410290 N 0 0 0
0:00:00.00 410614 N 0 0 0
0:00:00.00 410944 N 0 0 0
0:00:00.00 411241 N 0 0 0
0:00:00.00 411550 N 0 0 0
0:00:00.00 411860 N 0 0 0
0:00:00.00 412184 N 0 0 0
0:00:00.00 412497 N 0 0 0
0:00:00.00 412814 N 0 0 0
0:00:00.00 413147 N 0 0 0
0:00:00.00 413476 N 0 0 0
0:00:00.00 413793 N 0 0 0
0:00:00.00 414121 N 0 0 0
0:00:00.00 414448 N 0 0 0
0:00:00.00 414758 N 0 0 0
0:00:00.00 415064 N 0 0 0
0:00:00.00 415399 N 0 0 0
0:00:00.00 415741 N 0 0 0
0:00:00.00 416045 N 0 0 0
0:00:00.00 416345 N 0 0 0
0:00:00.00 416646 N 0 0 0
0:00:00.00 416975 N 0 0 0
0:00:00.00 417278 N 0 0 0
0:00:00.00 417571 N 0 0 0
0:00:00.00 417883 N 0 0 0
0:00:00.00 418178 N 0 0 0
0:00:00.00 418460 N 0 0 0
0:00:00.00 418752 N 0 0 0
0:00:00.00 419036 N 0 0 0
0:00:00.00 419341 N 0 0 0
0:00:00.00 419627 N 0 0 0
0:00:00.00 419913 N 0 0 0
0:00:00.00 420221 N 0 0 0
0:00:00.00 420530 N 0 0 0
0:00:00.00 420831 N 0 0 0
0:00:00.00 421135 N 0 0 0
0:00:00.00 421479 N 0 0 0
0:00:00.00 421810 N 0 0 0
0:00:00.00 422125 N 0 0 0
0:00:00.00 422438 N 0 0 0
0:00:00.00 422759 N 0 0 0
0:00:00.00 423076 N 0 0 0
0:00:00.00 423385 N 0 0 0
0:00:00.00 423700 N 0 0 0
0:00:00.00 424044 N 0 0 0
0:00:00.00 424364 N 0 0 0
0:00:00.00 424692 N 0 0 0
0:00:00.00 425030 N 0 0 0
0:00:00.00 425387 N 0 0 0
0:00:00.00 425698 N 0 0 0
0:00:00.00 426008 N 0 0 0
0:00:00.00 426334 N 0 0 0
0:00:00.00 426641 N 0 0 0
0:00:00.00 426958 N 0 0 0
0:00:00.00 427333 N 0 0 0
0:00:00.00 427664 N 0 0 0
0:00:00.00 428011 N 0 0 0
0:00:00.00 428413 N 0 0 0
0:00:00.00 428776 N 0 0 0
0:00:00.00 429106 N 0 0 0
0:00:00.00 429460 N 0 0 0
0:00:00.00 429836 N 0 0 0
0:00:00.00 430166 N 0 0 0
0:00:00.00 430477 N 0 0 0
0:00:00.00 430794 N 0 0 0
0:00:00.00 431111 N 0 0 0
0:00:00.00 431408 N 0 0 0
0:00:00.00 431703 N 0 0 0
0:00:00.00 432018 N 0 0 0
0:00:00.00 432356 N 0 0 0
0:00:00.00 432668 N 0 0 0
0:00:00.00 432977 N 0 0 0
0:00:00.00 433310 N 0 0 0
0:00:00.00 433649 N 0 0 0
0:00:00.00 433951 N 0 0 0
0:00:00.00 434257 N 0 0 0
0:00:00.00 434567 N 0 0 0
0:00:00.00 434876 N 0 0 0
0:00:00.00 435172 N 0 0 0
0:00:00.00 435481 N 0 0 0
0:00:00.00 435845 N 0 0 0
0:00:00.00 436194 N 0 0 0
0:00:00.00 436511 N 0 0 0
0:00:00.00 436858 N 0 0 0
0:00:00.00 437225 N 0 0 0
0:00:00.00 437549 N 0 0 0
0:00:00.00 437854 N 0 0 0
0:00:00.00 438176 N 0 0 0
0:00:00.00 438516 N 0 0 0
0:00:00.00 438822 N 0 0 0
0:00:00.00 439119 N 0 0 0
0:00:00.00 439445 N 0 0 0
0:00:00.00 439796 N 0 0 0
0:00:00.00 440122 N 0 0 0
0:00:00.00 440433 N 0 0 0
0:00:00.00 440802 N 0 0 0
0:00:00.00 441218 N 0 0 0
0:00:00.00 441567 N 0 0 0
0:00:00.00 441891 N 0 0 0
0:00:00.00 442217 N 0 0 0
0:00:00.00 442541 N 0 0 0
0:00:00.00 442852 N 0 0 0
0:00:00.00 443147 N 0 0 0
0:00:00.00 443475 N 0 0 0
0:00:00.00 443822 N 0 0 0
0:00:00.00 444170 N 0 0 0
0:00:00.00 444487 N 0 0 0
0:00:00.00 444843 N 0 0 0
0:00:00.00 445243 N 0 0 0
0:00:00.00 445579 N 0 0 0
0:00:00.00 445910 N 0 0 0
0:00:00.00 446249 N 0 0 0
0:00:00.00 446587 N 0 0 0
0:00:00.00 446884 N 0 0 0
0:00:00.00 447179 N 0 0 0
0:00:00.00 447471 N 0 0 0
0:00:00.00 447757 N 0 0 0
0:00:00.00 448042 N 0 0 0
0:00:00.00 448317 N 0 0 0
0:00:00.00 448616 N 0 0 0
0:00:00.00 448934 N 0 0 0
0:00:00.00 449239 N 0 0 0
0:00:00.00 449572 N 0 0 0
0:00:00.00 449969 N 0 0 0
0:00:00.00 450347 N 0 0 0
0:00:00.00 450689 N 0 0 0
0:00:00.00 451082 N 0 0 0
0:00:00.00 451480 N 0 0 0
0:00:00.00 451829 N 0 0 0
0:00:00.00 452187 N 0 0 0
0:00:00.00 452552 N 0 0 0
0:00:00.00 452878 N 0 0 0
0:00:00.00 453179 N 0 0 0
0:00:00.00 453479 N 0 0 0
0:00:00.00 453812 N 0 0 0
0:00:00.00 454109 N 0 0 0
0:00:00.00 454406 N 0 0 0
0:00:00.00 454714 N 0 0 0
0:00:00.00 455040 N 0 0 0
0:00:00.00 455344 N 0 0 0
0:00:00.00 455636 N 0 0 0
0:00:00.00 455929 N 0 0 0
0:00:00.00 456262 N 0 0 0
0:00:00.00 456565 N 0 0 0
0:00:00.00 456856 N 0 0 0
0:00:00.00 457155 N 0 0 0
0:00:00.00 457466 N 0 0 0
0:00:00.00 457789 N 0 0 0
0:00:00.00 458093 N 0 0 0
0:00:00.00 458406 N 0 0 0
0:00:00.00 458741 N 0 0 0
0:00:00.00 459063 N 0 0 0
0:00:00.00 459358 N 0 0 0
0:00:00.00 459646 N 0 0 0
0:00:00.00 459940 N 0 0 0
0:00:00.00 460229 N 0 0 0
0:00:00.00 460528 N 0 0 0
0:00:00.00 460822 N 0 0 0
0:00:00.00 461111 N 0 0 0
0:00:00.00 461417 N 0 0 0
0:00:00.00 461718 N 0 0 0
0:00:00.00 462031 N 0 0 0
0:00:00.00 462337 N 0 0 0
0:00:00.00 462640 N 0 0 0
0:00:00.00 462947 N 0 0 0
0:00:00.00 463257 N 0 0 0
0:00:00.00 463572 N 0 0 0
0:00:00.00 463876 N 0 0 0
0:00:00.00 464173 N 0 0 0
0:00:00.00 464463 N 0 0 0
0:00:00.00 464744 N 0 0 0
0:00:00.00 465019 N 0 0 0
0:00:00.00 465300 N 0 0 0
0:00:00.00 465579 N 0 0 0
0:00:00.00 465849 N 0 0 0
0:00:00.00 466115 N 0 0 0
0:00:00.00 466387 N 0 0 0
0:00:00.00 466661 N 0 0 0
0:00:00.00 466925 N 0 0 0
0:00:00.00 467185 N 0 0 0
0:00:00.00 467449 N 0 0 0
0:00:00.00 467714 N 0 0 0
0:00:00.00 467984 N 0 0 0
0:00:00.00 468259 N 0 0 0
0:00:00.00 468522 N 0 0 0
0:00:00.00 468787 N 0 0 0
0:00:00.00 469060 N 0 0 0
0:00:00.00 469328 N 0 0 0
0:00:00.00 469598 N 0 0 0
0:00:00.00 469863 N 0 0 0
0:00:00.00 470138 N 0 0 0
0:00:00.00 470419 N 0 0 0
0:00:00.00 470702 N 0 0 0
0:00:00.00 470975 N 0 0 0
0:00:00.00 471272 N 0 0 0
0:00:00.00 471625 N 0 0 0
0:00:00.00 472014 N 0 0 0
0:00:00.00 472412 N 0 0 0
0:00:00.00 472788 N 0 0 0
0:00:00.00 473168 N 0 0 0
0:00:00.00 473508 N 0 0 0
0:00:00.00 473850 N 0 0 0
0:00:00.00 474212 N 0 0 0
0:00:00.00 474552 N 0 0 0
0:00:00.00 474878 N 0 0 0
0:00:00.00 475178 N 0 0 0
0:00:00.00 475492 N 0 0 0
0:00:00.00 475816 N 0 0 0
0:00:00.00 476149 N 0 0 0
0:00:00.00 476453 N 0 0 0
0:00:00.00 476780 N 0 0 0
0:00:00.00 477126 N 0 0 0
0:00:00.00 477446 N 0 0 0
0:00:00.00 477751 N 0 0 0
0:00:00.00 478055 N 0 0 0
0:00:00.00 478377 N 0 0 0
0:00:00.00 478690 N 0 0 0
0:00:00.00 478973 N 0 0 0
0:00:00.00 479264 N 0 0 0
0:00:00.00 479563 N 0 0 0
0:00:00.00 479858 N 0 0 0
0:00:00.00 480141 N 0 0 0
0:00:00.00 480442 N 0 0 0
0:00:00.00 480751 N 0 0 0
0:00:00.00 481046 N 0 0 0
0:00:00.00 481349 N 0 0 0
0:00:00.00 481664 N 0 0 0
0:00:00.00 481988 N 0 0 0
0:00:00.00 482296 N 0 0 0
0:00:00.00 482668 N 0 0 0
0:00:00.00 483066 N 0 0 0
0:00:00.00 483408 N 0 0 0
0:00:00.00 483759 N 0 0 0
0:00:00.00 484132 N 0 0 0
0:00:00.00 484504 N 0 0 0
0:00:00.00 484834 N 0 0 0
0:00:00.00 485147 N 0 0 0
0:00:00.00 485462 N 0 0 0
0:00:00.00 485798 N 0 0 0
0:00:00.00 486119 N 0 0 0
0:00:00.00 486425 N 0 0 0
0:00:00.00 486736 N 0 0 0
0:00:00.00 487067 N 0 0 0
0:00:00.00 487397 N 0 0 0
0:00:00.00 487712 N 0 0 0
0:00:00.00 488057 N 0 0 0
0:00:00.00 488432 N 0 0 0
0:00:00.00 488767 N 0 0 0
0:00:00.00 489083 N 0 0 0
0:00:00.00 489384 N 0 0 0
0:00:00.00 489699 N 0 0 0
0:00:00.00 489998 N 0 0 0
0:00:00.00 490307 N 0 0 0
0:00:00.00 490646 N 0 0 0
0:00:00.00 490966 N 0 0 0
0:00:00.00 491278 N 0 0 0
0:00:00.00 491607 N 0 0 0
0:00:00.00 491971 N 0 0 0
0:00:00.00 492318 N 0 0 0
0:00:00.00 492626 N 0 0 0
0:00:00.00 492948 N 0 0 0
0:00:00.00 493290 N 0 0 0
0:00:00.00 493600 N 0 0 0
0:00:00.00 493909 N 0 0 0
0:00:00.00 494226 N 0 0 0
0:00:00.00 494554 N 0 0 0
0:00:00.00 494872 N 0 0 0
0:00:00.00 495212 N 0 0 0
0:00:00.00 495630 N 0 0 0
0:00:00.00 496010 N 0 0 0
0:00:00.00 496382 N 0 0 0
0:00:00.00 496739 N 0 0 0
0:00:00.00 497077 N 0 0 0
0:00:00.00 497407 N 0 0 0
0:00:00.00 497720 N 0 0 0
0:00:00.00 498017 N 0 0 0
0:00:00.00 498316 N 0 0 0
0:00:00.00 498614 N 0 0 0
0:00:00.00 498926 N 0 0 0
0:00:00.00 499225 N 0 0 0
0:00:00.00 499518 N 0 0 0
0:00:00.00 499847 N 0 0 0
0:00:00.00 500186 N 0 0 0
0:00:00.00 500494 N 0 0 0
0:00:00.00 500800 N 0 0 0
0:00:00.00 501116 N 0 0 0
0:00:00.00 501455 N 0 0 0
0:00:00.00 501759 N 0 0 0
0:00:00.00 502051 N 0 0 0
0:00:00.00 502351 N 0 0 0
0:00:00.00 502659 N 0 0 0
0:00:00.00 502947 N 0 0 0
0:00:00.00 503231 N 0 0 0
0:00:00.00 503525 N 0 0 0
0:00:00.00 503829 N 0 0 0
0:00:00.00 504130 N 0 0 0
0:00:00.00 504416 N 0 0 0
0:00:00.00 504722 N 0 0 0
0:00:00.00 505051 N 0 0 0
0:00:00.00 505357 N 0 0 0
0:00:00.00 505654 N 0 0 0
0:00:00.00 505971 N 0 0 0
0:00:00.00 506279 N 0 0 0
0:00:00.00 506579 N 0 0 0
0:00:00.00 506885 N 0 0 0
0:00:00.00 507200 N 0 0 0
0:00:00.00 507512 N 0 0 0
0:00:00.00 507812 N 0 0 0
0:00:00.00 508136 N 0 0 0
0:00:00.00 508450 N 0 0 0
0:00:00.00 508763 N 0 0 0
0:00:00.00 509105 N 0 0 0
0:00:00.00 509549 N 0 0 0
0:00:00.00 509924 N 0 0 0
0:00:00.00 510323 N 0 0 0
0:00:00.00 510698 N 0 0 0
0:00:00.00 511076 N 0 0 0
0:00:00.00 511465 N 0 0 0
0:00:00.00 511841 N 0 0 0
0:00:00.00 512206 N 0 0 0
0:00:00.00 512554 N 0 0 0
0:00:00.00 512932 N 0 0 0
0:00:00.00 513308 N 0 0 0
0:00:00.00 513648 N 0 0 0
0:00:00.00 514024 N 0 0 0
0:00:00.00 514393 N 0 0 0
0:00:00.00 514726 N 0 0 0
0:00:00.00 515039 N 0 0 0
0:00:00.00 515360 N 0 0 0
0:00:00.00 515657 N 0 0 0
0:00:00.00 515943 N 0 0 0
0:00:00.00 516242 N 0 0 0
0:00:00.00 516559 N 0 0 0
0:00:00.00 516859 N 0 0 0
0:00:00.00 517145 N 0 0 0
0:00:00.00 517441 N 0 0 0
0:00:00.00 517729 N 0 0 0
0:00:00.00 518018 N 0 0 0
0:00:00.00 518299 N 0 0 0
0:00:00.00 518571 N 0 0 0
0:00:00.00 518845 N 0 0 0
0:00:00.00 519125 N 0 0 0
0:00:00.00 519424 N 0 0 0
0:00:00.00 519712 N 0 0 0
0:00:00.00 519995 N 0 0 0
0:00:00.00 520294 N 0 0 0
0:00:00.00 520627 N 0 0 0
0:00:00.00 520924 N 0 0 0
0:00:00.00 521235 N 0 0 0
0:00:00.00 521597 N 0 0 0
0:00:00.00 521986 N 0 0 0
0:00:00.00 522311 N 0 0 0
0:00:00.00 522655 N 0 0 0
0:00:00.00 523013 N 0 0 0
0:00:00.00 523354 N 0 0 0
0:00:00.00 523658 N 0 0 0
0:00:00.00 523971 N 0 0 0
0:00:00.00 524311 N 0 0 0
0:00:00.00 524696 N 0 0 0
0:00:00.00 525062 N 0 0 0
0:00:00.00 525379 N 0 0 0
0:00:00.00 525717 N 0 0 0
0:00:00.00 526126 N 0 0 0
0:00:00.00 526507 N 0 0 0
0:00:00.00 526851 N 0 0 0
0:00:00.00 527188 N 0 0 0
0:00:00.00 527530 N 0 0 0
0:00:00.00 527873 N 0 0 0
0:00:00.00 528192 N 0 0 0
0:00:00.00 528494 N 0 0 0
0:00:00.00 528809 N 0 0 0
0:00:00.00 529159 N 0 0 0
0:00:00.00 529497 N 0 0 0
0:00:00.00 529819 N 0 0 0
0:00:00.00 530163 N 0 0 0
0:00:00.00 530599 N 0 0 0
0:00:00.00 530971 N 0 0 0
0:00:00.00 531335 N 0 0 0
0:00:00.00 531693 N 0 0 0
0:00:00.00 532042 N 0 0 0
0:00:00.00 532368 N 0 0 0
0:00:00.00 532676 N 0 0 0
0:00:00.00 532984 N 0 0 0
0:00:00.00 533306 N 0 0 0
0:00:00.00 533606 N 0 0 0
0:00:00.00 533929 N 0 0 0
0:00:00.00 534258 N 0 0 0
0:00:00.00 534636 N 0 0 0
0:00:00.00 534992 N 0 0 0
0:00:00.00 535399 N 0 0 0
0:00:00.00 535801 N 0 0 0
0:00:00.00 536173 N 0 0 0
0:00:00.00 536571 N 0 0 0
0:00:00.00 536953 N 0 0 0
0:00:00.00 537309 N 0 0 0
0:00:00.00 537685 N 0 0 0
0:00:00.00 538034 N 0 0 0
0:00:00.00 538384 N 0 0 0
0:00:00.00 538702 N 0 0 0
0:00:00.00 539012 N 0 0 0
0:00:00.00 539312 N 0 0 0
0:00:00.00 539611 N 0 0 0
0:00:00.00 539942 N 0 0 0
0:00:00.00 540299 N 0 0 0
0:00:00.00 540619 N 0 0 0
0:00:00.00 540977 N 0 0 0
0:00:00.00 541307 N 0 0 0
0:00:00.00 541606 N 0 0 0
0:00:00.00 541908 N 0 0 0
0:00:00.00 542230 N 0 0 0
0:00:00.00 542594 N 0 0 0
0:00:00.00 542898 N 0 0 0
0:00:00.00 543199 N 0 0 0
0:00:00.00 543562 N 0 0 0
0:00:00.00 543917 N 0 0 0
0:00:00.00 544261 N 0 0 0
0:00:00.00 544676 N 0 0 0
0:00:00.00 545076 N 0 0 0
0:00:00.00 545425 N 0 0 0
0:00:00.00 545760 N 0 0 0
0:00:00.00 546113 N 0 0 0
0:00:00.00 546422 N 0 0 0
0:00:00.00 546719 N 0 0 0
0:00:00.00 547033 N 0 0 0
0:00:00.00 547330 N 0 0 0
0:00:00.00 547632 N 0 0 0
0:00:00.00 547958 N 0 0 0
0:00:00.00 548284 N 0 0 0
0:00:00.00 548611 N 0 0 0
0:00:00.00 548912 N 0 0 0
0:00:00.00 549227 N 0 0 0
0:00:00.00 549554 N 0 0 0
0:00:00.00 549877 N 0 0 0
0:00:00.00 550179 N 0 0 0
0:00:00.00 550523 N 0 0 0
0:00:00.00 550829 N 0 0 0
0:00:00.00 551122 N 0 0 0
0:00:00.00 551416 N 0 0 0
0:00:00.00 551704 N 0 0 0
0:00:00.00 551986 N 0 0 0
0:00:00.00 552281 N 0 0 0
0:00:00.00 552571 N 0 0 0
0:00:00.00 552902 N 0 0 0
0:00:00.00 553244 N 0 0 0
0:00:00.00 553559 N 0 0 0
0:00:00.00 553880 N 0 0 0
0:00:00.00 554308 N 0 0 0
0:00:00.00 554710 N 0 0 0
0:00:00.00 555068 N 0 0 0
0:00:00.00 555453 N 0 0 0
0:00:00.00 555835 N 0 0 0
0:00:00.00 556186 N 0 0 0
0:00:00.00 556569 N 0 0 0
0:00:00.00 556942 N 0 0 0
0:00:00.00 557302 N 0 0 0
0:00:00.00 557694 N 0 0 0
0:00:00.00 558108 N 0 0 0
0:00:00.00 558472 N 0 0 0
0:00:00.00 558873 N 0 0 0
0:00:00.00 559258 N 0 0 0
0:00:00.00 559624 N 0 0 0
0:00:00.00 560020 N 0 0 0
0:00:00.00 560396 N 0 0 0
0:00:00.00 560756 N 0 0 0
0:00:00.00 561128 N 0 0 0
0:00:00.00 561506 N 0 0 0
0:00:00.00 561852 N 0 0 0
0:00:00.00 562181 N 0 0 0
0:00:00.00 562513 N 0 0 0
0:00:00.00 562822 N 0 0 0
0:00:00.00 563125 N 0 0 0
0:00:00.00 563425 N 0 0 0
0:00:00.00 563744 N 0 0 0
0:00:00.00 564066 N 0 0 0
0:00:00.00 564361 N 0 0 0
0:00:00.00 564660 N 0 0 0
0:00:00.00 564966 N 0 0 0
0:00:00.00 565276 N 0 0 0
0:00:00.00 565573 N 0 0 0
0:00:00.00 565864 N 0 0 0
0:00:00.00 566147 N 0 0 0
0:00:00.00 566435 N 0 0 0
0:00:00.00 566728 N 0 0 0
0:00:00.00 567014 N 0 0 0
0:00:00.00 567308 N 0 0 0
0:00:00.00 567626 N 0 0 0
0:00:00.00 567927 N 0 0 0
0:00:00.00 568233 N 0 0 0
0:00:00.00 568550 N 0 0 0
0:00:00.00 568894 N 0 0 0
0:00:00.00 569241 N 0 0 0
0:00:00.00 569552 N 0 0 0
0:00:00.00 569884 N 0 0 0
0:00:00.00 570236 N 0 0 0
0:00:00.00 570668 N 0 0 0
0:00:00.00 571021 N 0 0 0
0:00:00.00 571329 N 0 0 0
0:00:00.00 571662 N 0 0 0
0:00:00.00 571979 N 0 0 0
0:00:00.00 572296 N 0 0 0
0:00:00.00 572605 N 0 0 0
0:00:00.00 572900 N 0 0 0
0:00:00.00 573226 N 0 0 0
0:00:00.00 573563 N 0 0 0
0:00:00.00 573885 N 0 0 0
0:00:00.00 574198 N 0 0 0
0:00:00.00 574508 N 0 0 0
0:00:00.00 574830 N 0 0 0
0:00:00.00 575177 N 0 0 0
0:00:00.00 575491 N 0 0 0
0:00:00.00 575802 N 0 0 0
0:00:00.00 576126 N 0 0 0
0:00:00.00 576446 N 0 0 0
0:00:00.00 576769 N 0 0 0
0:00:00.00 577069 N 0 0 0
0:00:00.00 577359 N 0 0 0
0:00:00.00 577654 N 0 0 0
0:00:00.00 577949 N 0 0 0
0:00:00.00 578241 N 0 0 0
0:00:00.00 578533 N 0 0 0
0:00:00.00 578831 N 0 0 0
0:00:00.00 579139 N 0 0 0
0:00:00.00 579454 N 0 0 0
0:00:00.00 579758 N 0 0 0
0:00:00.00 580072 N 0 0 0
0:00:00.00 580529 N 0 0 0
0:00:00.00 580954 N 0 0 0
0:00:00.00 581359 N 0 0 0
0:00:00.00 581731 N 0 0 0
0:00:00.00 582125 N 0 0 0
0:00:00.00 582502 N 0 0 0
0:00:00.00 582869 N 0 0 0
0:00:00.00 583247 N 0 0 0
0:00:00.00 583609 N 0 0 0
0:00:00.00 583956 N 0 0 0
0:00:00.00 584330 N 0 0 0
0:00:00.00 584712 N 0 0 0
0:00:00.00 585070 N 0 0 0
0:00:00.00 585452 N 0 0 0
0:00:00.00 585815 N 0 0 0
0:00:00.00 586161 N 0 0 0
0:00:00.00 586494 N 0 0 0
0:00:00.00 586836 N 0 0 0
0:00:00.00 587158 N 0 0 0
0:00:00.00 587484 N 0 0 0
0:00:00.00 587920 N 0 0 0
0:00:00.00 588285 N 0 0 0
0:00:00.00 588713 N 0 0 0
0:00:00.00 589086 N 0 0 0
0:00:00.00 589477 N 0 0 0
0:00:00.00 589864 N 0 0 0
0:00:00.00 590260 N 0 0 0
0:00:00.00 590657 N 0 0 0
0:00:00.00 591016 N 0 0 0
0:00:00.00 591340 N 0 0 0
0:00:00.00 591633 N 0 0 0
0:00:00.00 591905 N 0 0 0
0:00:00.00 592177 N 0 0 0
0:00:00.00 592447 N 0 0 0
0:00:00.00 592708 N 0 0 0
0:00:00.00 592961 N 0 0 0
0:00:00.00 593217 N 0 0 0
0:00:00.00 593476 N 0 0 0
0:00:00.00 593732 N 0 0 0
0:00:00.00 593998 N 0 0 0
0:00:00.00 594250 N 0 0 0
0:00:00.00 594520 N 0 0 0
0:00:00.00 594806 N 0 0 0
0:00:00.00 595100 N 0 0 0
0:00:00.00 595372 N 0 0 0
0:00:00.00 595649 N 0 0 0
0:00:00.00 595944 N 0 0 0
0:00:00.00 596252 N 0 0 0
0:00:00.00 596556 N 0 0 0
0:00:00.00 596840 N 0 0 0
0:00:00.00 597132 N 0 0 0
0:00:00.00 597452 N 0 0 0
0:00:00.00 597776 N 0 0 0
0:00:00.00 598090 N 0 0 0
0:00:00.00 598394 N 0 0 0
0:00:00.00 598716 N 0 0 0
0:00:00.00 599188 N 0 0 0
0:00:00.00 599558 N 0 0 0
0:00:00.00 599962 N 0 0 0
0:00:00.00 600410 N 0 0 0
0:00:00.00 600817 N 0 0 0
0:00:00.00 601196 N 0 0 0
0:00:00.00 601609 N 0 0 0
0:00:00.00 601983 N 0 0 0
0:00:00.00 602343 N 0 0 0
0:00:00.00 602752 N 0 0 0
0:00:00.00 603133 N 0 0 0
0:00:00.00 603484 N 0 0 0
0:00:00.00 603884 N 0 0 0
0:00:00.00 604312 N 0 0 0
0:00:00.00 604692 N 0 0 0
0:00:00.00 605126 N 0 0 0
0:00:00.00 605520 N 0 0 0
0:00:00.00 605905 N 0 0 0
0:00:00.00 606310 N 0 0 0
0:00:00.00 606679 N 0 0 0
0:00:00.00 607063 N 0 0 0
0:00:00.00 607450 N 0 0 0
0:00:00.00 607806 N 0 0 0
0:00:00.00 608162 N 0 0 0
0:00:00.00 608542 N 0 0 0
0:00:00.00 608902 N 0 0 0
0:00:00.00 609253 N 0 0 0
0:00:00.00 609646 N 0 0 0
0:00:00.00 610074 N 0 0 0
0:00:00.00 610488 N 0 0 0
0:00:00.00 610871 N 0 0 0
0:00:00.00 611258 N 0 0 0
0:00:00.00 611667 N 0 0 0
0:00:00.00 612023 N 0 0 0
0:00:00.00 612347 N 0 0 0
0:00:00.00 612695 N 0 0 0
0:00:00.00 613111 N 0 0 0
0:00:00.00 613507 N 0 0 0
0:00:00.00 613919 N 0 0 0
0:00:00.00 614300 N 0 0 0
0:00:00.00 614689 N 0 0 0
0:00:00.00 615051 N 0 0 0
0:00:00.00 615425 N 0 0 0
0:00:00.00 615789 N 0 0 0
0:00:00.00 616126 N 0 0 0
0:00:00.00 616419 N 0 0 0
0:00:00.00 616738 N 0 0 0
0:00:00.00 617076 N 0 0 0
0:00:00.00 617375 N 0 0 0
0:00:00.00 617672 N 0 0 0
0:00:00.00 617987 N 0 0 0
0:00:00.00 618295 N 0 0 0
0:00:00.00 618586 N 0 0 0
0:00:00.00 618890 N 0 0 0
0:00:00.00 619191 N 0 0 0
0:00:00.00 619492 N 0 0 0
0:00:00.00 619774 N 0 0 0
0:00:00.00 620053 N 0 0 0
0:00:00.00 620352 N 0 0 0
0:00:00.00 620656 N 0 0 0
0:00:00.00 620960 N 0 0 0
0:00:00.00 621238 N 0 0 0
0:00:00.00 621526 N 0 0 0
0:00:00.00 621819 N 0 0 0
0:00:00.00 622116 N 0 0 0
0:00:00.00 622413 N 0 0 0
0:00:00.00 622697 N 0 0 0
0:00:00.00 623003 N 0 0 0
0:00:00.00 623311 N 0 0 0
0:00:00.00 623610 N 0 0 0
0:00:00.00 623916 N 0 0 0
0:00:00.00 624202 N 0 0 0
0:00:00.00 624501 N 0 0 0
0:00:00.00 624791 N 0 0 0
0:00:00.00 625091 N 0 0 0
0:00:00.00 625394 N 0 0 0
0:00:00.00 625693 N 0 0 0
0:00:00.00 625991 N 0 0 0
0:00:00.00 626299 N 0 0 0
0:00:00.00 626611 N 0 0 0
0:00:00.00 626911 N 0 0 0
0:00:00.00 627212 N 0 0 0
0:00:00.00 627509 N 0 0 0
0:00:00.00 627811 N 0 0 0
0:00:00.00 628126 N 0 0 0
0:00:00.00 628420 N 0 0 0
0:00:00.00 628706 N 0 0 0
0:00:00.00 629012 N 0 0 0
0:00:00.00 629316 N 0 0 0
0:00:00.00 629624 N 0 0 0
0:00:00.00 629921 N 0 0 0
0:00:00.00 630218 N 0 0 0
0:00:00.00 630535 N 0 0 0
0:00:00.00 630857 N 0 0 0
0:00:00.00 631163 N 0 0 0
0:00:00.00 631454 N 0 0 0
0:00:00.00 631773 N 0 0 0
0:00:00.00 632108 N 0 0 0
0:00:00.00 632446 N 0 0 0
0:00:00.00 632777 N 0 0 0
0:00:00.00 633233 N 0 0 0
0:00:00.00 633634 N 0 0 0
0:00:00.00 634012 N 0 0 0
0:00:00.00 634421 N 0 0 0
0:00:00.00 634799 N 0 0 0
0:00:00.00 635188 N 0 0 0
0:00:00.00 635582 N 0 0 0
0:00:00.00 635949 N 0 0 0
0:00:00.00 636313 N 0 0 0
0:00:00.00 636678 N 0 0 0
0:00:00.00 637029 N 0 0 0
0:00:00.00 637418 N 0 0 0
0:00:00.00 637799 N 0 0 0
0:00:00.00 638156 N 0 0 0
0:00:00.00 638554 N 0 0 0
0:00:00.00 638908 N 0 0 0
0:00:00.00 639256 N 0 0 0
0:00:00.00 639628 N 0 0 0
0:00:00.00 640012 N 0 0 0
0:00:00.00 640363 N 0 0 0
0:00:00.00 640769 N 0 0 0
0:00:00.00 641133 N 0 0 0
0:00:00.00 641513 N 0 0 0
0:00:00.00 641889 N 0 0 0
0:00:00.00 642235 N 0 0 0
0:00:00.00 642598 N 0 0 0
0:00:00.00 642962 N 0 0 0
0:00:00.00 643302 N 0 0 0
0:00:00.00 643613 N 0 0 0
0:00:00.00 643918 N 0 0 0
0:00:00.00 644215 N 0 0 0
0:00:00.00 644506 N 0 0 0
0:00:00.00 644791 N 0 0 0
0:00:00.00 645095 N 0 0 0
0:00:00.00 645386 N 0 0 0
0:00:00.00 645678 N 0 0 0
0:00:00.00 645968 N 0 0 0
0:00:00.00 646249 N 0 0 0
0:00:00.00 646535 N 0 0 0
0:00:00.00 646830 N 0 0 0
0:00:00.00 647109 N 0 0 0
0:00:00.00 647395 N 0 0 0
0:00:00.00 647674 N 0 0 0
0:00:00.00 647941 N 0 0 0
0:00:00.00 648198 N 0 0 0
0:00:00.00 648472 N 0 0 0
0:00:00.00 648752 N 0 0 0
0:00:00.00 649055 N 0 0 0
0:00:00.00 649357 N 0 0 0
0:00:00.00 649647 N 0 0 0
