0:00:00.00 16 N 0 0 0
0:00:00.00 283 N 0 0 0
0:00:00.00 562 N 0 0 0
0:00:00.00 839 N 0 0 0
0:00:00.00 1105 N 0 0 0
0:00:00.00 1370 N 0 0 0
0:00:00.00 1640 N 0 0 0
0:00:00.00 1910 N 0 0 0
0:00:00.00 2180 N 0 0 0
0:00:00.00 2448 N 0 0 0
0:00:00.00 2720 N 0 0 0
0:00:00.00 2988 N 0 0 0
0:00:00.00 3256 N 0 0 0
0:00:00.00 3530 N 0 0 0
0:00:00.00 3796 N 0 0 0
0:00:00.00 4068 N 0 0 0
0:00:00.00 4345 N 0 0 0
0:00:00.00 4615 N 0 0 0
0:00:00.00 4887 N 0 0 0
0:00:00.00 5164 N 0 0 0
0:00:00.00 5434 N 0 0 0
0:00:00.00 5706 N 0 0 0
0:00:00.00 5978 N 0 0 0
0:00:00.00 6255 N 0 0 0
0:00:00.00 6532 N 0 0 0
0:00:00.00 6804 N 0 0 0
0:00:00.00 7087 N 0 0 0
0:00:00.00 7360 N 0 0 0
0:00:00.00 7634 N 0 0 0
0:00:00.00 7911 N 0 0 0
0:00:00.00 8185 N 0 0 0
0:00:00.00 8458 N 0 0 0
0:00:00.00 8739 N 0 0 0
0:00:00.00 9011 N 0 0 0
0:00:00.00 9284 N 0 0 0
0:00:00.00 9562 N 0 0 0
0:00:00.00 9832 N 0 0 0
0:00:00.00 10102 N 0 0 0
0:00:00.00 10373 N 0 0 0
0:00:00.00 10643 N 0 0 0
0:00:00.00 10919 N 0 0 0
0:00:00.00 11189 N 0 0 0
0:00:00.00 11461 N 0 0 0
0:00:00.00 11734 N 0 0 0
0:00:00.00 12013 N 0 0 0
0:00:00.00 12283 N 0 0 0
0:00:00.00 12551 N 0 0 0
0:00:00.00 12827 N 0 0 0
0:00:00.00 13113 N 0 0 0
0:00:00.00 13387 N 0 0 0
0:00:00.00 13667 N 0 0 0
0:00:00.00 13950 N 0 0 0
0:00:00.00 14222 N 0 0 0
0:00:00.00 14497 N 0 0 0
0:00:00.00 14773 N 0 0 0
0:00:00.00 15046 N 0 0 0
0:00:00.00 15320 N 0 0 0
0:00:00.00 15590 N 0 0 0
0:00:00.00 15863 N 0 0 0
0:00:00.00 16139 N 0 0 0
0:00:00.00 16414 N 0 0 0
0:00:00.00 16688 N 0 0 0
0:00:00.00 16954 N 0 0 0
0:00:00.00 17230 N 0 0 0
0:00:00.00 17512 N 0 0 0
0:00:00.00 17789 N 0 0 0
0:00:00.00 18070 N 0 0 0
0:00:00.00 18353 N 0 0 0
0:00:00.00 18634 N 0 0 0
0:00:00.00 18914 N 0 0 0
0:00:00.00 19188 N 0 0 0
0:00:00.00 19469 N 0 0 0
0:00:00.00 19753 N 0 0 0
0:00:00.00 20027 N 0 0 0
0:00:00.00 20306 N 0 0 0
0:00:00.00 20588 N 0 0 0
0:00:00.00 20866 N 0 0 0
0:00:00.00 21146 N 0 0 0
0:00:00.00 21422 N 0 0 0
0:00:00.00 21701 N 0 0 0
0:00:00.00 21985 N 0 0 0
0:00:00.00 22264 N 0 0 0
0:00:00.00 22550 N 0 0 0
0:00:00.00 22826 N 0 0 0
0:00:00.00 23098 N 0 0 0
0:00:00.00 23380 N 0 0 0
0:00:00.00 23654 N 0 0 0
0:00:00.00 23931 N 0 0 0
0:00:00.00 24208 N 0 0 0
0:00:00.00 24482 N 0 0 0
0:00:00.00 24763 N 0 0 0
0:00:00.00 25043 N 0 0 0
0:00:00.00 25312 N 0 0 0
0:00:00.00 25592 N 0 0 0
0:00:00.00 25868 N 0 0 0
0:00:00.00 26150 N 0 0 0
0:00:00.00 26424 N 0 0 0
0:00:00.00 26698 N 0 0 0
0:00:00.00 26982 N 0 0 0
0:00:00.00 27254 N 0 0 0
0:00:00.00 27527 N 0 0 0
0:00:00.00 27803 N 0 0 0
0:00:00.00 28076 N 0 0 0
0:00:00.00 28355 N 0 0 0
0:00:00.00 28625 N 0 0 0
0:00:00.00 28895 N 0 0 0
0:00:00.00 29174 N 0 0 0
0:00:00.00 29446 N 0 0 0
0:00:00.00 29714 N 0 0 0
0:00:00.00 29988 N 0 0 0
0:00:00.00 30260 N 0 0 0
0:00:00.00 30539 N 0 0 0
0:00:00.00 30814 N 0 0 0
0:00:00.00 31086 N 0 0 0
0:00:00.00 31365 N 0 0 0
0:00:00.00 31644 N 0 0 0
0:00:00.00 31912 N 0 0 0
0:00:00.00 32188 N 0 0 0
0:00:00.00 32459 N 0 0 0
0:00:00.00 32740 N 0 0 0
0:00:00.00 33008 N 0 0 0
0:00:00.00 33282 N 0 0 0
0:00:00.00 33566 N 0 0 0
0:00:00.00 33844 N 0 0 0
0:00:00.00 34121 N 0 0 0
0:00:00.00 34398 N 0 0 0
0:00:00.00 34677 N 0 0 0
0:00:00.00 34958 N 0 0 0
0:00:00.00 35134 N 0 0 0
0:00:00.00 35518 N 0 0 0
0:00:00.00 35795 N 0 0 0
0:00:00.00 35969 N 0 0 0
0:00:00.00 36344 N 0 0 0
0:00:00.00 36617 N 0 0 0
0:00:00.00 36889 N 0 0 0
0:00:00.00 37168 N 0 0 0
0:00:00.00 37442 N 0 0 0
0:00:00.00 37721 N 0 0 0
0:00:00.00 37994 N 0 0 0
0:00:00.00 38266 N 0 0 0
0:00:00.00 38540 N 0 0 0
0:00:00.00 38813 N 0 0 0
0:00:00.00 39089 N 0 0 0
0:00:00.00 39370 N 0 0 0
0:00:00.00 39645 N 0 0 0
0:00:00.00 39926 N 0 0 0
0:00:00.00 40203 N 0 0 0
0:00:00.00 40482 N 0 0 0
0:00:00.00 40759 N 0 0 0
0:00:00.00 41033 N 0 0 0
0:00:00.00 41314 N 0 0 0
0:00:00.00 41593 N 0 0 0
0:00:00.00 41868 N 0 0 0
0:00:00.00 42147 N 0 0 0
0:00:00.00 42422 N 0 0 0
0:00:00.00 42694 N 0 0 0
0:00:00.00 42968 N 0 0 0
0:00:00.00 43241 N 0 0 0
0:00:00.00 43519 N 0 0 0
0:00:00.00 43803 N 0 0 0
0:00:00.00 44078 N 0 0 0
0:00:00.00 44359 N 0 0 0
0:00:00.00 44638 N 0 0 0
0:00:00.00 44912 N 0 0 0
0:00:00.00 45187 N 0 0 0
0:00:00.00 45461 N 0 0 0
0:00:00.00 45740 N 0 0 0
0:00:00.00 46019 N 0 0 0
0:00:00.00 46294 N 0 0 0
0:00:00.00 46580 N 0 0 0
0:00:00.00 46859 N 0 0 0
0:00:00.00 47135 N 0 0 0
0:00:00.00 47414 N 0 0 0
0:00:00.00 47691 N 0 0 0
0:00:00.00 47970 N 0 0 0
0:00:00.00 48253 N 0 0 0
0:00:00.00 48528 N 0 0 0
0:00:00.00 48803 N 0 0 0
0:00:00.00 49081 N 0 0 0
0:00:00.00 49352 N 0 0 0
0:00:00.00 49624 N 0 0 0
0:00:00.00 49900 N 0 0 0
0:00:00.00 50171 N 0 0 0
0:00:00.00 50445 N 0 0 0
0:00:00.00 50715 N 0 0 0
0:00:00.00 50998 N 0 0 0
0:00:00.00 51269 N 0 0 0
0:00:00.00 51536 N 0 0 0
0:00:00.00 51817 N 0 0 0
0:00:00.00 52085 N 0 0 0
0:00:00.00 52366 N 0 0 0
0:00:00.00 52645 N 0 0 0
0:00:00.00 52915 N 0 0 0
0:00:00.00 53197 N 0 0 0
0:00:00.00 53474 N 0 0 0
0:00:00.00 53645 N 0 0 0
0:00:00.00 54014 N 0 0 0
0:00:00.00 54290 N 0 0 0
0:00:00.00 54560 N 0 0 0
0:00:00.00 54832 N 0 0 0
0:00:00.00 55103 N 0 0 0
0:00:00.00 55379 N 0 0 0
0:00:00.00 55649 N 0 0 0
0:00:00.00 55917 N 0 0 0
0:00:00.00 56185 N 0 0 0
0:00:00.00 56464 N 0 0 0
0:00:00.00 56741 N 0 0 0
0:00:00.00 56932 N 0 0 0
0:00:00.00 57283 N 0 0 0
0:00:00.00 57560 N 0 0 0
0:00:00.00 57832 N 0 0 0
0:00:00.00 58095 N 0 0 0
0:00:00.00 58361 N 0 0 0
0:00:00.00 58630 N 0 0 0
0:00:00.00 58898 N 0 0 0
0:00:00.00 59162 N 0 0 0
0:00:00.00 59432 N 0 0 0
0:00:00.00 59708 N 0 0 0
0:00:00.00 59972 N 0 0 0
0:00:00.00 60239 N 0 0 0
0:00:00.00 60514 N 0 0 0
0:00:00.00 60781 N 0 0 0
0:00:00.00 61058 N 0 0 0
0:00:00.00 61331 N 0 0 0
0:00:00.00 61598 N 0 0 0
0:00:00.00 61877 N 0 0 0
0:00:00.00 62145 N 0 0 0
0:00:00.00 62408 N 0 0 0
0:00:00.00 62680 N 0 0 0
0:00:00.00 62948 N 0 0 0
0:00:00.00 63216 N 0 0 0
0:00:00.00 63486 N 0 0 0
0:00:00.00 63756 N 0 0 0
0:00:00.00 64033 N 0 0 0
0:00:00.00 64303 N 0 0 0
0:00:00.00 64568 N 0 0 0
0:00:00.00 64843 N 0 0 0
0:00:00.00 65113 N 0 0 0
0:00:00.00 65389 N 0 0 0
0:00:00.00 65660 N 0 0 0
0:00:00.00 65930 N 0 0 0
0:00:00.00 66211 N 0 0 0
0:00:00.00 66481 N 0 0 0
0:00:00.00 66748 N 0 0 0
0:00:00.00 67019 N 0 0 0
0:00:00.00 67288 N 0 0 0
0:00:00.00 67561 N 0 0 0
0:00:00.00 67835 N 0 0 0
0:00:00.00 68105 N 0 0 0
0:00:00.00 68382 N 0 0 0
0:00:00.00 68652 N 0 0 0
0:00:00.00 68917 N 0 0 0
0:00:00.00 69194 N 0 0 0
0:00:00.00 69462 N 0 0 0
0:00:00.00 69739 N 0 0 0
0:00:00.00 70011 N 0 0 0
0:00:00.00 70279 N 0 0 0
0:00:00.00 70558 N 0 0 0
0:00:00.00 70830 N 0 0 0
0:00:00.00 71100 N 0 0 0
0:00:00.00 71370 N 0 0 0
0:00:00.00 71638 N 0 0 0
0:00:00.00 71908 N 0 0 0
0:00:00.00 72182 N 0 0 0
0:00:00.00 72450 N 0 0 0
0:00:00.00 72720 N 0 0 0
0:00:00.00 72990 N 0 0 0
0:00:00.00 73258 N 0 0 0
0:00:00.00 73528 N 0 0 0
0:00:00.00 73791 N 0 0 0
0:00:00.00 74065 N 0 0 0
0:00:00.00 74340 N 0 0 0
0:00:00.00 74603 N 0 0 0
0:00:00.00 74776 N 0 0 0
0:00:00.00 75146 N 0 0 0
0:00:00.00 75418 N 0 0 0
0:00:00.00 75683 N 0 0 0
0:00:00.00 75951 N 0 0 0
0:00:00.00 76216 N 0 0 0
0:00:00.00 76489 N 0 0 0
0:00:00.00 76756 N 0 0 0
0:00:00.00 77017 N 0 0 0
0:00:00.00 77294 N 0 0 0
0:00:00.00 77560 N 0 0 0
0:00:00.00 77825 N 0 0 0
0:00:00.00 78091 N 0 0 0
0:00:00.00 78361 N 0 0 0
0:00:00.00 78631 N 0 0 0
0:00:00.00 78898 N 0 0 0
0:00:00.00 79164 N 0 0 0
0:00:00.00 79439 N 0 0 0
0:00:00.00 79706 N 0 0 0
0:00:00.00 79967 N 0 0 0
0:00:00.00 80239 N 0 0 0
0:00:00.00 80503 N 0 0 0
0:00:00.00 80770 N 0 0 0
0:00:00.00 81040 N 0 0 0
0:00:00.00 81304 N 0 0 0
0:00:00.00 81576 N 0 0 0
0:00:00.00 81844 N 0 0 0
0:00:00.00 82111 N 0 0 0
0:00:00.00 82379 N 0 0 0
0:00:00.00 82647 N 0 0 0
0:00:00.00 82915 N 0 0 0
0:00:00.00 83183 N 0 0 0
0:00:00.00 83450 N 0 0 0
0:00:00.00 83722 N 0 0 0
0:00:00.00 83990 N 0 0 0
0:00:00.00 84256 N 0 0 0
0:00:00.00 84524 N 0 0 0
0:00:00.00 84785 N 0 0 0
0:00:00.00 85054 N 0 0 0
0:00:00.00 85327 N 0 0 0
0:00:00.00 85592 N 0 0 0
0:00:00.00 85860 N 0 0 0
0:00:00.00 86134 N 0 0 0
0:00:00.00 86404 N 0 0 0
0:00:00.00 86670 N 0 0 0
0:00:00.00 86940 N 0 0 0
0:00:00.00 87210 N 0 0 0
0:00:00.00 87485 N 0 0 0
0:00:00.00 87754 N 0 0 0
0:00:00.00 88027 N 0 0 0
0:00:00.00 88303 N 0 0 0
0:00:00.00 88574 N 0 0 0
0:00:00.00 88844 N 0 0 0
0:00:00.00 89113 N 0 0 0
0:00:00.00 89384 N 0 0 0
0:00:00.00 89662 N 0 0 0
0:00:00.00 89932 N 0 0 0
0:00:00.00 90207 N 0 0 0
0:00:00.00 90482 N 0 0 0
0:00:00.00 90758 N 0 0 0
0:00:00.00 91033 N 0 0 0
0:00:00.00 91305 N 0 0 0
0:00:00.00 91580 N 0 0 0
0:00:00.00 91858 N 0 0 0
0:00:00.00 92129 N 0 0 0
0:00:00.00 92407 N 0 0 0
0:00:00.00 92680 N 0 0 0
0:00:00.00 92947 N 0 0 0
0:00:00.00 93220 N 0 0 0
0:00:00.00 93485 N 0 0 0
0:00:00.00 93751 N 0 0 0
0:00:00.00 94027 N 0 0 0
0:00:00.00 94291 N 0 0 0
0:00:00.00 94567 N 0 0 0
0:00:00.00 94756 N 0 0 0
0:00:00.00 95105 N 0 0 0
0:00:00.00 95382 N 0 0 0
0:00:00.00 95555 N 0 0 0
0:00:00.00 95920 N 0 0 0
0:00:00.00 96111 N 0 0 0
0:00:00.00 96469 N 0 0 0
0:00:00.00 96737 N 0 0 0
0:00:00.00 97009 N 0 0 0
0:00:00.00 97272 N 0 0 0
0:00:00.00 97544 N 0 0 0
0:00:00.00 97803 N 0 0 0
0:00:00.00 98069 N 0 0 0
0:00:00.00 98345 N 0 0 0
0:00:00.00 98611 N 0 0 0
0:00:00.00 98879 N 0 0 0
0:00:00.00 99151 N 0 0 0
0:00:00.00 99425 N 0 0 0
0:00:00.00 99700 N 0 0 0
0:00:00.00 99974 N 0 0 0
0:00:00.00 100253 N 0 0 0
0:00:00.00 100535 N 0 0 0
0:00:00.00 100816 N 0 0 0
0:00:00.00 101093 N 0 0 0
0:00:00.00 101378 N 0 0 0
0:00:00.00 101657 N 0 0 0
0:00:00.00 101932 N 0 0 0
0:00:00.00 102204 N 0 0 0
0:00:00.00 102483 N 0 0 0
0:00:00.00 102766 N 0 0 0
0:00:00.00 103037 N 0 0 0
0:00:00.00 103318 N 0 0 0
0:00:00.00 103597 N 0 0 0
0:00:00.00 103873 N 0 0 0
0:00:00.00 104153 N 0 0 0
0:00:00.00 104332 N 0 0 0
0:00:00.00 104693 N 0 0 0
0:00:00.00 104971 N 0 0 0
0:00:00.00 105239 N 0 0 0
0:00:00.00 105410 N 0 0 0
0:00:00.00 105773 N 0 0 0
0:00:00.00 106040 N 0 0 0
0:00:00.00 106301 N 0 0 0
0:00:00.00 106564 N 0 0 0
0:00:00.00 106823 N 0 0 0
0:00:00.00 107095 N 0 0 0
0:00:00.00 107357 N 0 0 0
0:00:00.00 107626 N 0 0 0
0:00:00.00 107906 N 0 0 0
0:00:00.00 108185 N 0 0 0
0:00:00.00 108463 N 0 0 0
0:00:00.00 108743 N 0 0 0
0:00:00.00 109024 N 0 0 0
0:00:00.00 109314 N 0 0 0
0:00:00.00 109589 N 0 0 0
0:00:00.00 109867 N 0 0 0
0:00:00.00 110155 N 0 0 0
0:00:00.00 110432 N 0 0 0
0:00:00.00 110700 N 0 0 0
0:00:00.00 110977 N 0 0 0
0:00:00.00 111251 N 0 0 0
0:00:00.00 111532 N 0 0 0
0:00:00.00 111805 N 0 0 0
0:00:00.00 112081 N 0 0 0
0:00:00.00 112361 N 0 0 0
0:00:00.00 112640 N 0 0 0
0:00:00.00 112914 N 0 0 0
0:00:00.00 113186 N 0 0 0
0:00:00.00 113458 N 0 0 0
0:00:00.00 113737 N 0 0 0
0:00:00.00 114005 N 0 0 0
0:00:00.00 114275 N 0 0 0
0:00:00.00 114548 N 0 0 0
0:00:00.00 114820 N 0 0 0
0:00:00.00 115085 N 0 0 0
0:00:00.00 115357 N 0 0 0
0:00:00.00 115634 N 0 0 0
0:00:00.00 115911 N 0 0 0
0:00:00.00 116185 N 0 0 0
0:00:00.00 116458 N 0 0 0
0:00:00.00 116737 N 0 0 0
0:00:00.00 117009 N 0 0 0
0:00:00.00 117284 N 0 0 0
0:00:00.00 117551 N 0 0 0
0:00:00.00 117817 N 0 0 0
0:00:00.00 118094 N 0 0 0
0:00:00.00 118357 N 0 0 0
0:00:00.00 118622 N 0 0 0
0:00:00.00 118894 N 0 0 0
0:00:00.00 119162 N 0 0 0
0:00:00.00 119425 N 0 0 0
0:00:00.00 119689 N 0 0 0
0:00:00.00 119954 N 0 0 0
0:00:00.00 120227 N 0 0 0
0:00:00.00 120494 N 0 0 0
0:00:00.00 120758 N 0 0 0
0:00:00.00 121030 N 0 0 0
0:00:00.00 121302 N 0 0 0
0:00:00.00 121570 N 0 0 0
0:00:00.00 121837 N 0 0 0
0:00:00.00 122107 N 0 0 0
0:00:00.00 122382 N 0 0 0
0:00:00.00 122647 N 0 0 0
0:00:00.00 122913 N 0 0 0
0:00:00.00 123185 N 0 0 0
0:00:00.00 123453 N 0 0 0
0:00:00.00 123716 N 0 0 0
0:00:00.00 123982 N 0 0 0
0:00:00.00 124249 N 0 0 0
0:00:00.00 124522 N 0 0 0
0:00:00.00 124787 N 0 0 0
0:00:00.00 125053 N 0 0 0
0:00:00.00 125329 N 0 0 0
0:00:00.00 125599 N 0 0 0
0:00:00.00 125784 N 0 0 0
0:00:00.00 126133 N 0 0 0
0:00:00.00 126400 N 0 0 0
0:00:00.00 126673 N 0 0 0
0:00:00.00 126936 N 0 0 0
0:00:00.00 127199 N 0 0 0
0:00:00.00 127472 N 0 0 0
0:00:00.00 127741 N 0 0 0
0:00:00.00 128003 N 0 0 0
0:00:00.00 128277 N 0 0 0
0:00:00.00 128547 N 0 0 0
0:00:00.00 128821 N 0 0 0
0:00:00.00 129094 N 0 0 0
0:00:00.00 129364 N 0 0 0
0:00:00.00 129640 N 0 0 0
0:00:00.00 129911 N 0 0 0
0:00:00.00 130181 N 0 0 0
0:00:00.00 130453 N 0 0 0
0:00:00.00 130721 N 0 0 0
0:00:00.00 130997 N 0 0 0
0:00:00.00 131274 N 0 0 0
0:00:00.00 131544 N 0 0 0
0:00:00.00 131821 N 0 0 0
0:00:00.00 132025 N 0 0 0
0:00:00.00 132356 N 0 0 0
0:00:00.00 132631 N 0 0 0
0:00:00.00 132899 N 0 0 0
0:00:00.00 133171 N 0 0 0
0:00:00.00 133441 N 0 0 0
0:00:00.00 133709 N 0 0 0
0:00:00.00 133987 N 0 0 0
0:00:00.00 134258 N 0 0 0
0:00:00.00 134527 N 0 0 0
0:00:00.00 134699 N 0 0 0
0:00:00.00 135065 N 0 0 0
0:00:00.00 135337 N 0 0 0
0:00:00.00 135608 N 0 0 0
0:00:00.00 135877 N 0 0 0
0:00:00.00 136148 N 0 0 0
0:00:00.00 136420 N 0 0 0
0:00:00.00 136688 N 0 0 0
0:00:00.00 136962 N 0 0 0
0:00:00.00 137227 N 0 0 0
0:00:00.00 137493 N 0 0 0
0:00:00.00 137772 N 0 0 0
0:00:00.00 138037 N 0 0 0
0:00:00.00 138303 N 0 0 0
0:00:00.00 138578 N 0 0 0
0:00:00.00 138850 N 0 0 0
0:00:00.00 139109 N 0 0 0
0:00:00.00 139376 N 0 0 0
0:00:00.00 139642 N 0 0 0
0:00:00.00 139912 N 0 0 0
0:00:00.00 140179 N 0 0 0
0:00:00.00 140443 N 0 0 0
0:00:00.00 140715 N 0 0 0
0:00:00.00 140899 N 0 0 0
0:00:00.00 141248 N 0 0 0
0:00:00.00 141518 N 0 0 0
0:00:00.00 141788 N 0 0 0
0:00:00.00 142063 N 0 0 0
0:00:00.00 142330 N 0 0 0
0:00:00.00 142600 N 0 0 0
0:00:00.00 142880 N 0 0 0
0:00:00.00 143154 N 0 0 0
0:00:00.00 143420 N 0 0 0
0:00:00.00 143694 N 0 0 0
0:00:00.00 143964 N 0 0 0
0:00:00.00 144239 N 0 0 0
0:00:00.00 144509 N 0 0 0
0:00:00.00 144778 N 0 0 0
0:00:00.00 145053 N 0 0 0
0:00:00.00 145318 N 0 0 0
0:00:00.00 145580 N 0 0 0
0:00:00.00 145847 N 0 0 0
0:00:00.00 146110 N 0 0 0
0:00:00.00 146380 N 0 0 0
0:00:00.00 146644 N 0 0 0
0:00:00.00 146907 N 0 0 0
0:00:00.00 147181 N 0 0 0
0:00:00.00 147447 N 0 0 0
0:00:00.00 147706 N 0 0 0
0:00:00.00 147980 N 0 0 0
0:00:00.00 148246 N 0 0 0
0:00:00.00 148516 N 0 0 0
0:00:00.00 148792 N 0 0 0
0:00:00.00 148984 N 0 0 0
0:00:00.00 149333 N 0 0 0
0:00:00.00 149605 N 0 0 0
0:00:00.00 149873 N 0 0 0
0:00:00.00 150064 N 0 0 0
0:00:00.00 150408 N 0 0 0
0:00:00.00 150680 N 0 0 0
0:00:00.00 150950 N 0 0 0
0:00:00.00 151218 N 0 0 0
0:00:00.00 151493 N 0 0 0
0:00:00.00 151767 N 0 0 0
0:00:00.00 152032 N 0 0 0
0:00:00.00 152303 N 0 0 0
0:00:00.00 152570 N 0 0 0
0:00:00.00 152752 N 0 0 0
0:00:00.00 153108 N 0 0 0
0:00:00.00 153374 N 0 0 0
0:00:00.00 153644 N 0 0 0
0:00:00.00 153824 N 0 0 0
0:00:00.00 154166 N 0 0 0
0:00:00.00 154433 N 0 0 0
0:00:00.00 154694 N 0 0 0
0:00:00.00 154957 N 0 0 0
0:00:00.00 155227 N 0 0 0
0:00:00.00 155489 N 0 0 0
0:00:00.00 155763 N 0 0 0
0:00:00.00 156042 N 0 0 0
0:00:00.00 156312 N 0 0 0
0:00:00.00 156506 N 0 0 0
0:00:00.00 156856 N 0 0 0
0:00:00.00 157120 N 0 0 0
0:00:00.00 157396 N 0 0 0
0:00:00.00 157662 N 0 0 0
0:00:00.00 157923 N 0 0 0
0:00:00.00 158189 N 0 0 0
0:00:00.00 158456 N 0 0 0
0:00:00.00 158717 N 0 0 0
0:00:00.00 158976 N 0 0 0
0:00:00.00 159241 N 0 0 0
0:00:00.00 159509 N 0 0 0
0:00:00.00 159766 N 0 0 0
0:00:00.00 160033 N 0 0 0
0:00:00.00 160304 N 0 0 0
0:00:00.00 160569 N 0 0 0
0:00:00.00 160828 N 0 0 0
0:00:00.00 161095 N 0 0 0
0:00:00.00 161354 N 0 0 0
0:00:00.00 161618 N 0 0 0
0:00:00.00 161883 N 0 0 0
0:00:00.00 162142 N 0 0 0
0:00:00.00 162410 N 0 0 0
0:00:00.00 162673 N 0 0 0
0:00:00.00 162932 N 0 0 0
0:00:00.00 163199 N 0 0 0
0:00:00.00 163465 N 0 0 0
0:00:00.00 163735 N 0 0 0
0:00:00.00 164003 N 0 0 0
0:00:00.00 164270 N 0 0 0
0:00:00.00 164542 N 0 0 0
0:00:00.00 164812 N 0 0 0
0:00:00.00 164997 N 0 0 0
0:00:00.00 165339 N 0 0 0
0:00:00.00 165600 N 0 0 0
0:00:00.00 165859 N 0 0 0
0:00:00.00 166129 N 0 0 0
0:00:00.00 166385 N 0 0 0
0:00:00.00 166640 N 0 0 0
0:00:00.00 166909 N 0 0 0
0:00:00.00 167170 N 0 0 0
0:00:00.00 167425 N 0 0 0
0:00:00.00 167690 N 0 0 0
0:00:00.00 167951 N 0 0 0
0:00:00.00 168136 N 0 0 0
0:00:00.00 168480 N 0 0 0
0:00:00.00 168745 N 0 0 0
0:00:00.00 169016 N 0 0 0
0:00:00.00 169277 N 0 0 0
0:00:00.00 169535 N 0 0 0
0:00:00.00 169742 N 0 0 0
0:00:00.00 170059 N 0 0 0
0:00:00.00 170320 N 0 0 0
0:00:00.00 170588 N 0 0 0
0:00:00.00 170840 N 0 0 0
0:00:00.00 171101 N 0 0 0
0:00:00.00 171367 N 0 0 0
0:00:00.00 171626 N 0 0 0
0:00:00.00 171884 N 0 0 0
0:00:00.00 172147 N 0 0 0
0:00:00.00 172409 N 0 0 0
0:00:00.00 172676 N 0 0 0
0:00:00.00 172940 N 0 0 0
0:00:00.00 173205 N 0 0 0
0:00:00.00 173394 N 0 0 0
0:00:00.00 173743 N 0 0 0
0:00:00.00 174004 N 0 0 0
0:00:00.00 174269 N 0 0 0
0:00:00.00 174528 N 0 0 0
0:00:00.00 174798 N 0 0 0
0:00:00.00 175061 N 0 0 0
0:00:00.00 175322 N 0 0 0
0:00:00.00 175590 N 0 0 0
0:00:00.00 175855 N 0 0 0
0:00:00.00 176114 N 0 0 0
0:00:00.00 176382 N 0 0 0
0:00:00.00 176562 N 0 0 0
0:00:00.00 176908 N 0 0 0
0:00:00.00 177179 N 0 0 0
0:00:00.00 177442 N 0 0 0
0:00:00.00 177712 N 0 0 0
0:00:00.00 177977 N 0 0 0
0:00:00.00 178243 N 0 0 0
0:00:00.00 178508 N 0 0 0
0:00:00.00 178704 N 0 0 0
0:00:00.00 179035 N 0 0 0
0:00:00.00 179307 N 0 0 0
0:00:00.00 179566 N 0 0 0
0:00:00.00 179827 N 0 0 0
0:00:00.00 180099 N 0 0 0
0:00:00.00 180358 N 0 0 0
0:00:00.00 180623 N 0 0 0
0:00:00.00 180887 N 0 0 0
0:00:00.00 181148 N 0 0 0
0:00:00.00 181339 N 0 0 0
0:00:00.00 181687 N 0 0 0
0:00:00.00 181953 N 0 0 0
0:00:00.00 182225 N 0 0 0
0:00:00.00 182497 N 0 0 0
0:00:00.00 182761 N 0 0 0
0:00:00.00 183029 N 0 0 0
0:00:00.00 183303 N 0 0 0
0:00:00.00 183488 N 0 0 0
0:00:00.00 183852 N 0 0 0
0:00:00.00 184126 N 0 0 0
0:00:00.00 184408 N 0 0 0
0:00:00.00 184597 N 0 0 0
0:00:00.00 184952 N 0 0 0
0:00:00.00 185224 N 0 0 0
0:00:00.00 185494 N 0 0 0
0:00:00.00 185769 N 0 0 0
0:00:00.00 186041 N 0 0 0
0:00:00.00 186313 N 0 0 0
0:00:00.00 186586 N 0 0 0
0:00:00.00 186860 N 0 0 0
0:00:00.00 187123 N 0 0 0
0:00:00.00 187389 N 0 0 0
0:00:00.00 187659 N 0 0 0
0:00:00.00 187931 N 0 0 0
0:00:00.00 188194 N 0 0 0
0:00:00.00 188456 N 0 0 0
0:00:00.00 188732 N 0 0 0
0:00:00.00 188996 N 0 0 0
0:00:00.00 189261 N 0 0 0
0:00:00.00 189527 N 0 0 0
0:00:00.00 189792 N 0 0 0
0:00:00.00 190064 N 0 0 0
0:00:00.00 190334 N 0 0 0
0:00:00.00 190514 N 0 0 0
0:00:00.00 190870 N 0 0 0
0:00:00.00 191140 N 0 0 0
0:00:00.00 191399 N 0 0 0
0:00:00.00 191662 N 0 0 0
0:00:00.00 191925 N 0 0 0
0:00:00.00 192195 N 0 0 0
0:00:00.00 192456 N 0 0 0
0:00:00.00 192717 N 0 0 0
0:00:00.00 192991 N 0 0 0
0:00:00.00 193255 N 0 0 0
0:00:00.00 193513 N 0 0 0
0:00:00.00 193784 N 0 0 0
0:00:00.00 194049 N 0 0 0
0:00:00.00 194312 N 0 0 0
0:00:00.00 194585 N 0 0 0
0:00:00.00 194852 N 0 0 0
0:00:00.00 195118 N 0 0 0
0:00:00.00 195388 N 0 0 0
0:00:00.00 195656 N 0 0 0
0:00:00.00 195851 N 0 0 0
0:00:00.00 196182 N 0 0 0
0:00:00.00 196454 N 0 0 0
0:00:00.00 196718 N 0 0 0
0:00:00.00 196983 N 0 0 0
0:00:00.00 197246 N 0 0 0
0:00:00.00 197514 N 0 0 0
0:00:00.00 197780 N 0 0 0
0:00:00.00 198045 N 0 0 0
0:00:00.00 198308 N 0 0 0
0:00:00.00 198571 N 0 0 0
0:00:00.00 198842 N 0 0 0
0:00:00.00 199109 N 0 0 0
0:00:00.00 199373 N 0 0 0
0:00:00.00 199562 N 0 0 0
0:00:00.00 199915 N 0 0 0
0:00:00.00 200176 N 0 0 0
0:00:00.00 200444 N 0 0 0
0:00:00.00 200709 N 0 0 0
0:00:00.00 200974 N 0 0 0
0:00:00.00 201236 N 0 0 0
0:00:00.00 201499 N 0 0 0
0:00:00.00 201769 N 0 0 0
0:00:00.00 202032 N 0 0 0
0:00:00.00 202298 N 0 0 0
0:00:00.00 202570 N 0 0 0
0:00:00.00 202837 N 0 0 0
0:00:00.00 203110 N 0 0 0
0:00:00.00 203386 N 0 0 0
0:00:00.00 203656 N 0 0 0
0:00:00.00 203839 N 0 0 0
0:00:00.00 204208 N 0 0 0
0:00:00.00 204480 N 0 0 0
0:00:00.00 204757 N 0 0 0
0:00:00.00 205031 N 0 0 0
0:00:00.00 205304 N 0 0 0
0:00:00.00 205488 N 0 0 0
0:00:00.00 205853 N 0 0 0
0:00:00.00 206138 N 0 0 0
0:00:00.00 206352 N 0 0 0
0:00:00.00 206689 N 0 0 0
0:00:00.00 206966 N 0 0 0
0:00:00.00 207238 N 0 0 0
0:00:00.00 207515 N 0 0 0
0:00:00.00 207792 N 0 0 0
0:00:00.00 208067 N 0 0 0
0:00:00.00 208352 N 0 0 0
0:00:00.00 208528 N 0 0 0
0:00:00.00 208899 N 0 0 0
0:00:00.00 209180 N 0 0 0
0:00:00.00 209457 N 0 0 0
0:00:00.00 209639 N 0 0 0
0:00:00.00 210006 N 0 0 0
0:00:00.00 210280 N 0 0 0
0:00:00.00 210557 N 0 0 0
0:00:00.00 210746 N 0 0 0
0:00:00.00 211095 N 0 0 0
0:00:00.00 211365 N 0 0 0
0:00:00.00 211633 N 0 0 0
0:00:00.00 211910 N 0 0 0
0:00:00.00 212175 N 0 0 0
0:00:00.00 212440 N 0 0 0
0:00:00.00 212717 N 0 0 0
0:00:00.00 212978 N 0 0 0
0:00:00.00 213237 N 0 0 0
0:00:00.00 213421 N 0 0 0
0:00:00.00 213764 N 0 0 0
0:00:00.00 214029 N 0 0 0
0:00:00.00 214294 N 0 0 0
0:00:00.00 214553 N 0 0 0
0:00:00.00 214823 N 0 0 0
0:00:00.00 215086 N 0 0 0
0:00:00.00 215345 N 0 0 0
0:00:00.00 215528 N 0 0 0
0:00:00.00 215870 N 0 0 0
0:00:00.00 216140 N 0 0 0
0:00:00.00 216407 N 0 0 0
0:00:00.00 216671 N 0 0 0
0:00:00.00 216943 N 0 0 0
0:00:00.00 217213 N 0 0 0
0:00:00.00 217480 N 0 0 0
0:00:00.00 217663 N 0 0 0
0:00:00.00 218030 N 0 0 0
0:00:00.00 218313 N 0 0 0
0:00:00.00 218529 N 0 0 0
0:00:00.00 218662 N 0 0 0
0:00:00.00 219053 N 0 0 0
0:00:00.00 219341 N 0 0 0
0:00:00.00 219623 N 0 0 0
0:00:00.00 219812 N 0 0 0
0:00:00.00 220176 N 0 0 0
0:00:00.00 220466 N 0 0 0
0:00:00.00 220752 N 0 0 0
0:00:00.00 220936 N 0 0 0
0:00:00.00 221315 N 0 0 0
0:00:00.00 221594 N 0 0 0
0:00:00.00 221866 N 0 0 0
0:00:00.00 222044 N 0 0 0
0:00:00.00 222413 N 0 0 0
0:00:00.00 222689 N 0 0 0
0:00:00.00 222962 N 0 0 0
0:00:00.00 223238 N 0 0 0
0:00:00.00 223522 N 0 0 0
0:00:00.00 223801 N 0 0 0
0:00:00.00 224080 N 0 0 0
0:00:00.00 224370 N 0 0 0
0:00:00.00 224654 N 0 0 0
0:00:00.00 224948 N 0 0 0
0:00:00.00 225232 N 0 0 0
0:00:00.00 225518 N 0 0 0
0:00:00.00 225810 N 0 0 0
0:00:00.00 226089 N 0 0 0
0:00:00.00 226366 N 0 0 0
0:00:00.00 226647 N 0 0 0
0:00:00.00 226913 N 0 0 0
0:00:00.00 227192 N 0 0 0
0:00:00.00 227461 N 0 0 0
0:00:00.00 227723 N 0 0 0
0:00:00.00 228001 N 0 0 0
0:00:00.00 228269 N 0 0 0
0:00:00.00 228532 N 0 0 0
0:00:00.00 228803 N 0 0 0
0:00:00.00 229073 N 0 0 0
0:00:00.00 229268 N 0 0 0
0:00:00.00 229621 N 0 0 0
0:00:00.00 229891 N 0 0 0
0:00:00.00 230168 N 0 0 0
0:00:00.00 230438 N 0 0 0
0:00:00.00 230701 N 0 0 0
0:00:00.00 230971 N 0 0 0
0:00:00.00 231235 N 0 0 0
0:00:00.00 231516 N 0 0 0
0:00:00.00 231790 N 0 0 0
0:00:00.00 232060 N 0 0 0
0:00:00.00 232348 N 0 0 0
0:00:00.00 232528 N 0 0 0
0:00:00.00 232902 N 0 0 0
0:00:00.00 233183 N 0 0 0
0:00:00.00 233465 N 0 0 0
0:00:00.00 233653 N 0 0 0
0:00:00.00 234027 N 0 0 0
0:00:00.00 234308 N 0 0 0
0:00:00.00 234592 N 0 0 0
0:00:00.00 234873 N 0 0 0
0:00:00.00 235147 N 0 0 0
0:00:00.00 235429 N 0 0 0
0:00:00.00 235708 N 0 0 0
0:00:00.00 236002 N 0 0 0
0:00:00.00 236279 N 0 0 0
0:00:00.00 236565 N 0 0 0
0:00:00.00 236858 N 0 0 0
0:00:00.00 237141 N 0 0 0
0:00:00.00 237422 N 0 0 0
0:00:00.00 237701 N 0 0 0
0:00:00.00 237976 N 0 0 0
0:00:00.00 238261 N 0 0 0
0:00:00.00 238540 N 0 0 0
0:00:00.00 238815 N 0 0 0
0:00:00.00 239092 N 0 0 0
0:00:00.00 239276 N 0 0 0
0:00:00.00 239639 N 0 0 0
0:00:00.00 239911 N 0 0 0
0:00:00.00 240187 N 0 0 0
0:00:00.00 240460 N 0 0 0
0:00:00.00 240732 N 0 0 0
0:00:00.00 241015 N 0 0 0
0:00:00.00 241286 N 0 0 0
0:00:00.00 241558 N 0 0 0
0:00:00.00 241835 N 0 0 0
0:00:00.00 242113 N 0 0 0
0:00:00.00 242392 N 0 0 0
0:00:00.00 242671 N 0 0 0
0:00:00.00 242852 N 0 0 0
0:00:00.00 243223 N 0 0 0
0:00:00.00 243499 N 0 0 0
0:00:00.00 243769 N 0 0 0
0:00:00.00 244044 N 0 0 0
0:00:00.00 244310 N 0 0 0
0:00:00.00 244492 N 0 0 0
0:00:00.00 244850 N 0 0 0
0:00:00.00 245117 N 0 0 0
0:00:00.00 245392 N 0 0 0
0:00:00.00 245660 N 0 0 0
0:00:00.00 245921 N 0 0 0
0:00:00.00 246191 N 0 0 0
0:00:00.00 246463 N 0 0 0
0:00:00.00 246737 N 0 0 0
0:00:00.00 247014 N 0 0 0
0:00:00.00 247288 N 0 0 0
0:00:00.00 247563 N 0 0 0
0:00:00.00 247844 N 0 0 0
0:00:00.00 248114 N 0 0 0
0:00:00.00 248387 N 0 0 0
0:00:00.00 248663 N 0 0 0
0:00:00.00 248845 N 0 0 0
0:00:00.00 249208 N 0 0 0
0:00:00.00 249482 N 0 0 0
0:00:00.00 249766 N 0 0 0
0:00:00.00 250036 N 0 0 0
0:00:00.00 250304 N 0 0 0
0:00:00.00 250582 N 0 0 0
0:00:00.00 250853 N 0 0 0
0:00:00.00 251138 N 0 0 0
0:00:00.00 251413 N 0 0 0
0:00:00.00 251591 N 0 0 0
0:00:00.00 251960 N 0 0 0
0:00:00.00 252236 N 0 0 0
0:00:00.00 252500 N 0 0 0
0:00:00.00 252772 N 0 0 0
0:00:00.00 253040 N 0 0 0
0:00:00.00 253314 N 0 0 0
0:00:00.00 253586 N 0 0 0
0:00:00.00 253858 N 0 0 0
0:00:00.00 254142 N 0 0 0
0:00:00.00 254419 N 0 0 0
0:00:00.00 254693 N 0 0 0
0:00:00.00 254975 N 0 0 0
0:00:00.00 255258 N 0 0 0
0:00:00.00 255550 N 0 0 0
0:00:00.00 255829 N 0 0 0
0:00:00.00 256111 N 0 0 0
0:00:00.00 256401 N 0 0 0
0:00:00.00 256684 N 0 0 0
0:00:00.00 256964 N 0 0 0
0:00:00.00 257245 N 0 0 0
0:00:00.00 257524 N 0 0 0
0:00:00.00 257810 N 0 0 0
0:00:00.00 258089 N 0 0 0
0:00:00.00 258374 N 0 0 0
0:00:00.00 258653 N 0 0 0
0:00:00.00 258934 N 0 0 0
0:00:00.00 259213 N 0 0 0
0:00:00.00 259488 N 0 0 0
0:00:00.00 259666 N 0 0 0
0:00:00.00 260050 N 0 0 0
0:00:00.00 260325 N 0 0 0
0:00:00.00 260602 N 0 0 0
0:00:00.00 260883 N 0 0 0
0:00:00.00 261157 N 0 0 0
0:00:00.00 261337 N 0 0 0
0:00:00.00 261706 N 0 0 0
0:00:00.00 261979 N 0 0 0
0:00:00.00 262260 N 0 0 0
0:00:00.00 262535 N 0 0 0
0:00:00.00 262813 N 0 0 0
0:00:00.00 262993 N 0 0 0
0:00:00.00 263363 N 0 0 0
0:00:00.00 263646 N 0 0 0
0:00:00.00 263920 N 0 0 0
0:00:00.00 264109 N 0 0 0
0:00:00.00 264479 N 0 0 0
0:00:00.00 264757 N 0 0 0
0:00:00.00 265041 N 0 0 0
0:00:00.00 265318 N 0 0 0
0:00:00.00 265594 N 0 0 0
0:00:00.00 265876 N 0 0 0
0:00:00.00 266159 N 0 0 0
0:00:00.00 266445 N 0 0 0
0:00:00.00 266738 N 0 0 0
0:00:00.00 267028 N 0 0 0
0:00:00.00 267322 N 0 0 0
0:00:00.00 267613 N 0 0 0
0:00:00.00 267905 N 0 0 0
0:00:00.00 268189 N 0 0 0
0:00:00.00 268479 N 0 0 0
0:00:00.00 268772 N 0 0 0
0:00:00.00 269050 N 0 0 0
0:00:00.00 269336 N 0 0 0
0:00:00.00 269624 N 0 0 0
0:00:00.00 269899 N 0 0 0
0:00:00.00 270184 N 0 0 0
0:00:00.00 270464 N 0 0 0
0:00:00.00 270747 N 0 0 0
0:00:00.00 271030 N 0 0 0
0:00:00.00 271312 N 0 0 0
0:00:00.00 271600 N 0 0 0
0:00:00.00 271885 N 0 0 0
0:00:00.00 272167 N 0 0 0
0:00:00.00 272452 N 0 0 0
0:00:00.00 272740 N 0 0 0
0:00:00.00 273033 N 0 0 0
0:00:00.00 273244 N 0 0 0
0:00:00.00 273595 N 0 0 0
0:00:00.00 273886 N 0 0 0
0:00:00.00 274167 N 0 0 0
0:00:00.00 274442 N 0 0 0
0:00:00.00 274720 N 0 0 0
0:00:00.00 274999 N 0 0 0
0:00:00.00 275283 N 0 0 0
0:00:00.00 275566 N 0 0 0
0:00:00.00 275854 N 0 0 0
0:00:00.00 276134 N 0 0 0
0:00:00.00 276413 N 0 0 0
0:00:00.00 276703 N 0 0 0
0:00:00.00 276984 N 0 0 0
0:00:00.00 277276 N 0 0 0
0:00:00.00 277556 N 0 0 0
0:00:00.00 277832 N 0 0 0
0:00:00.00 278123 N 0 0 0
0:00:00.00 278408 N 0 0 0
0:00:00.00 278681 N 0 0 0
0:00:00.00 278962 N 0 0 0
0:00:00.00 279241 N 0 0 0
0:00:00.00 279527 N 0 0 0
0:00:00.00 279805 N 0 0 0
0:00:00.00 280085 N 0 0 0
0:00:00.00 280364 N 0 0 0
0:00:00.00 280643 N 0 0 0
0:00:00.00 280921 N 0 0 0
0:00:00.00 281191 N 0 0 0
0:00:00.00 281471 N 0 0 0
0:00:00.00 281754 N 0 0 0
0:00:00.00 282022 N 0 0 0
0:00:00.00 282193 N 0 0 0
0:00:00.00 282573 N 0 0 0
0:00:00.00 282843 N 0 0 0
0:00:00.00 283118 N 0 0 0
0:00:00.00 283388 N 0 0 0
0:00:00.00 283657 N 0 0 0
0:00:00.00 283930 N 0 0 0
0:00:00.00 284204 N 0 0 0
0:00:00.00 284474 N 0 0 0
0:00:00.00 284749 N 0 0 0
0:00:00.00 285023 N 0 0 0
0:00:00.00 285298 N 0 0 0
0:00:00.00 285570 N 0 0 0
0:00:00.00 285853 N 0 0 0
0:00:00.00 286132 N 0 0 0
0:00:00.00 286407 N 0 0 0
0:00:00.00 286691 N 0 0 0
0:00:00.00 286970 N 0 0 0
0:00:00.00 287147 N 0 0 0
0:00:00.00 287523 N 0 0 0
0:00:00.00 287797 N 0 0 0
0:00:00.00 288070 N 0 0 0
0:00:00.00 288351 N 0 0 0
0:00:00.00 288630 N 0 0 0
0:00:00.00 288907 N 0 0 0
0:00:00.00 289192 N 0 0 0
0:00:00.00 289471 N 0 0 0
0:00:00.00 289750 N 0 0 0
0:00:00.00 290032 N 0 0 0
0:00:00.00 290317 N 0 0 0
0:00:00.00 290599 N 0 0 0
0:00:00.00 290878 N 0 0 0
0:00:00.00 291168 N 0 0 0
0:00:00.00 291451 N 0 0 0
0:00:00.00 291724 N 0 0 0
0:00:00.00 292010 N 0 0 0
0:00:00.00 292288 N 0 0 0
0:00:00.00 292568 N 0 0 0
0:00:00.00 292851 N 0 0 0
0:00:00.00 293132 N 0 0 0
0:00:00.00 293420 N 0 0 0
0:00:00.00 293704 N 0 0 0
0:00:00.00 293983 N 0 0 0
0:00:00.00 294269 N 0 0 0
0:00:00.00 294552 N 0 0 0
0:00:00.00 294840 N 0 0 0
0:00:00.00 295121 N 0 0 0
0:00:00.00 295400 N 0 0 0
0:00:00.00 295688 N 0 0 0
0:00:00.00 295970 N 0 0 0
0:00:00.00 296246 N 0 0 0
0:00:00.00 296521 N 0 0 0
0:00:00.00 296798 N 0 0 0
0:00:00.00 297083 N 0 0 0
0:00:00.00 297358 N 0 0 0
0:00:00.00 297637 N 0 0 0
0:00:00.00 297918 N 0 0 0
0:00:00.00 298201 N 0 0 0
0:00:00.00 298481 N 0 0 0
0:00:00.00 298760 N 0 0 0
0:00:00.00 298940 N 0 0 0
0:00:00.00 299281 N 0 0 0
0:00:00.00 299569 N 0 0 0
0:00:00.00 299756 N 0 0 0
0:00:00.00 300132 N 0 0 0
0:00:00.00 300409 N 0 0 0
0:00:00.00 300690 N 0 0 0
0:00:00.00 300964 N 0 0 0
0:00:00.00 301243 N 0 0 0
0:00:00.00 301525 N 0 0 0
0:00:00.00 301802 N 0 0 0
0:00:00.00 302092 N 0 0 0
0:00:00.00 302283 N 0 0 0
0:00:00.00 302647 N 0 0 0
0:00:00.00 302935 N 0 0 0
0:00:00.00 303214 N 0 0 0
0:00:00.00 303498 N 0 0 0
0:00:00.00 303775 N 0 0 0
0:00:00.00 304054 N 0 0 0
0:00:00.00 304339 N 0 0 0
0:00:00.00 304621 N 0 0 0
0:00:00.00 304900 N 0 0 0
0:00:00.00 305176 N 0 0 0
0:00:00.00 305458 N 0 0 0
0:00:00.00 305743 N 0 0 0
0:00:00.00 306022 N 0 0 0
0:00:00.00 306310 N 0 0 0
0:00:00.00 306596 N 0 0 0
0:00:00.00 306875 N 0 0 0
0:00:00.00 307163 N 0 0 0
0:00:00.00 307451 N 0 0 0
0:00:00.00 307735 N 0 0 0
0:00:00.00 308018 N 0 0 0
0:00:00.00 308300 N 0 0 0
0:00:00.00 308585 N 0 0 0
0:00:00.00 308869 N 0 0 0
0:00:00.00 309145 N 0 0 0
0:00:00.00 309418 N 0 0 0
0:00:00.00 309695 N 0 0 0
0:00:00.00 309980 N 0 0 0
0:00:00.00 310253 N 0 0 0
0:00:00.00 310525 N 0 0 0
0:00:00.00 310811 N 0 0 0
0:00:00.00 311085 N 0 0 0
0:00:00.00 311357 N 0 0 0
0:00:00.00 311634 N 0 0 0
0:00:00.00 311906 N 0 0 0
0:00:00.00 312185 N 0 0 0
0:00:00.00 312457 N 0 0 0
0:00:00.00 312728 N 0 0 0
0:00:00.00 313004 N 0 0 0
0:00:00.00 313277 N 0 0 0
0:00:00.00 313547 N 0 0 0
0:00:00.00 313812 N 0 0 0
0:00:00.00 314084 N 0 0 0
0:00:00.00 314359 N 0 0 0
0:00:00.00 314629 N 0 0 0
0:00:00.00 314896 N 0 0 0
0:00:00.00 315175 N 0 0 0
0:00:00.00 315448 N 0 0 0
0:00:00.00 315716 N 0 0 0
0:00:00.00 315995 N 0 0 0
0:00:00.00 316273 N 0 0 0
0:00:00.00 316553 N 0 0 0
0:00:00.00 316831 N 0 0 0
0:00:00.00 317108 N 0 0 0
0:00:00.00 317390 N 0 0 0
0:00:00.00 317669 N 0 0 0
0:00:00.00 317947 N 0 0 0
0:00:00.00 318220 N 0 0 0
0:00:00.00 318497 N 0 0 0
0:00:00.00 318785 N 0 0 0
0:00:00.00 319061 N 0 0 0
0:00:00.00 319340 N 0 0 0
0:00:00.00 319624 N 0 0 0
0:00:00.00 319905 N 0 0 0
0:00:00.00 320184 N 0 0 0
0:00:00.00 320463 N 0 0 0
0:00:00.00 320744 N 0 0 0
0:00:00.00 321028 N 0 0 0
0:00:00.00 321307 N 0 0 0
0:00:00.00 321588 N 0 0 0
0:00:00.00 321872 N 0 0 0
0:00:00.00 322148 N 0 0 0
0:00:00.00 322425 N 0 0 0
0:00:00.00 322699 N 0 0 0
0:00:00.00 322978 N 0 0 0
0:00:00.00 323255 N 0 0 0
0:00:00.00 323527 N 0 0 0
0:00:00.00 323806 N 0 0 0
0:00:00.00 324079 N 0 0 0
0:00:00.00 324353 N 0 0 0
0:00:00.00 324630 N 0 0 0
0:00:00.00 324904 N 0 0 0
0:00:00.00 325181 N 0 0 0
0:00:00.00 325460 N 0 0 0
0:00:00.00 325732 N 0 0 0
0:00:00.00 326011 N 0 0 0
0:00:00.00 326288 N 0 0 0
0:00:00.00 326560 N 0 0 0
0:00:00.00 326830 N 0 0 0
0:00:00.00 327105 N 0 0 0
0:00:00.00 327382 N 0 0 0
0:00:00.00 327659 N 0 0 0
0:00:00.00 327933 N 0 0 0
0:00:00.00 328217 N 0 0 0
0:00:00.00 328495 N 0 0 0
0:00:00.00 328766 N 0 0 0
0:00:00.00 329051 N 0 0 0
0:00:00.00 329326 N 0 0 0
0:00:00.00 329607 N 0 0 0
0:00:00.00 329888 N 0 0 0
0:00:00.00 330160 N 0 0 0
0:00:00.00 330448 N 0 0 0
0:00:00.00 330728 N 0 0 0
0:00:00.00 331004 N 0 0 0
0:00:00.00 331285 N 0 0 0
0:00:00.00 331564 N 0 0 0
0:00:00.00 331846 N 0 0 0
0:00:00.00 332122 N 0 0 0
0:00:00.00 332402 N 0 0 0
0:00:00.00 332687 N 0 0 0
0:00:00.00 332966 N 0 0 0
0:00:00.00 333248 N 0 0 0
0:00:00.00 333522 N 0 0 0
0:00:00.00 333803 N 0 0 0
0:00:00.00 334080 N 0 0 0
0:00:00.00 334354 N 0 0 0
0:00:00.00 334629 N 0 0 0
0:00:00.00 334906 N 0 0 0
0:00:00.00 335176 N 0 0 0
0:00:00.00 335450 N 0 0 0
0:00:00.00 335725 N 0 0 0
0:00:00.00 336001 N 0 0 0
0:00:00.00 336278 N 0 0 0
0:00:00.00 336555 N 0 0 0
0:00:00.00 336841 N 0 0 0
0:00:00.00 337124 N 0 0 0
0:00:00.00 337399 N 0 0 0
0:00:00.00 337689 N 0 0 0
0:00:00.00 337970 N 0 0 0
0:00:00.00 338254 N 0 0 0
0:00:00.00 338535 N 0 0 0
0:00:00.00 338810 N 0 0 0
0:00:00.00 339097 N 0 0 0
0:00:00.00 339377 N 0 0 0
0:00:00.00 339649 N 0 0 0
0:00:00.00 339923 N 0 0 0
0:00:00.00 340202 N 0 0 0
0:00:00.00 340483 N 0 0 0
0:00:00.00 340756 N 0 0 0
0:00:00.00 341037 N 0 0 0
0:00:00.00 341312 N 0 0 0
0:00:00.00 341588 N 0 0 0
0:00:00.00 341766 N 0 0 0
0:00:00.00 342131 N 0 0 0
0:00:00.00 342407 N 0 0 0
0:00:00.00 342686 N 0 0 0
0:00:00.00 342954 N 0 0 0
0:00:00.00 343222 N 0 0 0
0:00:00.00 343496 N 0 0 0
0:00:00.00 343764 N 0 0 0
0:00:00.00 343946 N 0 0 0
0:00:00.00 344291 N 0 0 0
0:00:00.00 344558 N 0 0 0
0:00:00.00 344830 N 0 0 0
0:00:00.00 345094 N 0 0 0
0:00:00.00 345362 N 0 0 0
0:00:00.00 345631 N 0 0 0
0:00:00.00 345902 N 0 0 0
0:00:00.00 346172 N 0 0 0
0:00:00.00 346441 N 0 0 0
0:00:00.00 346712 N 0 0 0
0:00:00.00 346991 N 0 0 0
0:00:00.00 347265 N 0 0 0
0:00:00.00 347535 N 0 0 0
0:00:00.00 347818 N 0 0 0
0:00:00.00 348088 N 0 0 0
0:00:00.00 348352 N 0 0 0
0:00:00.00 348628 N 0 0 0
0:00:00.00 348901 N 0 0 0
0:00:00.00 349180 N 0 0 0
0:00:00.00 349456 N 0 0 0
0:00:00.00 349729 N 0 0 0
0:00:00.00 350012 N 0 0 0
0:00:00.00 350289 N 0 0 0
0:00:00.00 350563 N 0 0 0
0:00:00.00 350836 N 0 0 0
0:00:00.00 351110 N 0 0 0
0:00:00.00 351385 N 0 0 0
0:00:00.00 351657 N 0 0 0
0:00:00.00 351925 N 0 0 0
0:00:00.00 352204 N 0 0 0
0:00:00.00 352471 N 0 0 0
0:00:00.00 352649 N 0 0 0
0:00:00.00 353002 N 0 0 0
0:00:00.00 353268 N 0 0 0
0:00:00.00 353540 N 0 0 0
0:00:00.00 353806 N 0 0 0
0:00:00.00 354071 N 0 0 0
0:00:00.00 354348 N 0 0 0
0:00:00.00 354618 N 0 0 0
0:00:00.00 354886 N 0 0 0
0:00:00.00 355154 N 0 0 0
0:00:00.00 355424 N 0 0 0
0:00:00.00 355698 N 0 0 0
0:00:00.00 355966 N 0 0 0
0:00:00.00 356229 N 0 0 0
0:00:00.00 356506 N 0 0 0
0:00:00.00 356774 N 0 0 0
0:00:00.00 357035 N 0 0 0
0:00:00.00 357309 N 0 0 0
0:00:00.00 357491 N 0 0 0
0:00:00.00 357847 N 0 0 0
0:00:00.00 358121 N 0 0 0
0:00:00.00 358391 N 0 0 0
0:00:00.00 358666 N 0 0 0
0:00:00.00 358938 N 0 0 0
0:00:00.00 359204 N 0 0 0
0:00:00.00 359476 N 0 0 0
0:00:00.00 359743 N 0 0 0
0:00:00.00 360014 N 0 0 0
0:00:00.00 360225 N 0 0 0
0:00:00.00 360664 N 0 0 0
0:00:00.00 361096 N 0 0 0
0:00:00.00 361355 N 0 0 0
0:00:00.00 361631 N 0 0 0
0:00:00.00 361897 N 0 0 0
0:00:00.00 362171 N 0 0 0
0:00:00.00 362444 N 0 0 0
0:00:00.00 362713 N 0 0 0
0:00:00.00 362992 N 0 0 0
0:00:00.00 363265 N 0 0 0
0:00:00.00 363532 N 0 0 0
0:00:00.00 363803 N 0 0 0
0:00:00.00 364075 N 0 0 0
0:00:00.00 364351 N 0 0 0
0:00:00.00 364619 N 0 0 0
0:00:00.00 364887 N 0 0 0
0:00:00.00 365164 N 0 0 0
0:00:00.00 365429 N 0 0 0
0:00:00.00 365690 N 0 0 0
0:00:00.00 365965 N 0 0 0
0:00:00.00 366226 N 0 0 0
0:00:00.00 366498 N 0 0 0
0:00:00.00 366772 N 0 0 0
0:00:00.00 367038 N 0 0 0
0:00:00.00 367319 N 0 0 0
0:00:00.00 367589 N 0 0 0
0:00:00.00 367859 N 0 0 0
0:00:00.00 368132 N 0 0 0
0:00:00.00 368402 N 0 0 0
0:00:00.00 368676 N 0 0 0
0:00:00.00 368942 N 0 0 0
0:00:00.00 369211 N 0 0 0
0:00:00.00 369490 N 0 0 0
0:00:00.00 369760 N 0 0 0
0:00:00.00 370019 N 0 0 0
0:00:00.00 370292 N 0 0 0
0:00:00.00 370562 N 0 0 0
0:00:00.00 370840 N 0 0 0
0:00:00.00 371108 N 0 0 0
0:00:00.00 371372 N 0 0 0
0:00:00.00 371653 N 0 0 0
0:00:00.00 371927 N 0 0 0
0:00:00.00 372191 N 0 0 0
0:00:00.00 372467 N 0 0 0
0:00:00.00 372737 N 0 0 0
0:00:00.00 373012 N 0 0 0
0:00:00.00 373282 N 0 0 0
0:00:00.00 373550 N 0 0 0
0:00:00.00 373829 N 0 0 0
0:00:00.00 374098 N 0 0 0
0:00:00.00 374272 N 0 0 0
0:00:00.00 374636 N 0 0 0
0:00:00.00 374906 N 0 0 0
0:00:00.00 375178 N 0 0 0
0:00:00.00 375444 N 0 0 0
0:00:00.00 375710 N 0 0 0
0:00:00.00 375988 N 0 0 0
0:00:00.00 376259 N 0 0 0
0:00:00.00 376524 N 0 0 0
0:00:00.00 376798 N 0 0 0
0:00:00.00 377071 N 0 0 0
0:00:00.00 377343 N 0 0 0
0:00:00.00 377528 N 0 0 0
0:00:00.00 377885 N 0 0 0
0:00:00.00 378164 N 0 0 0
0:00:00.00 378428 N 0 0 0
0:00:00.00 378689 N 0 0 0
0:00:00.00 378965 N 0 0 0
0:00:00.00 379229 N 0 0 0
0:00:00.00 379499 N 0 0 0
0:00:00.00 379771 N 0 0 0
0:00:00.00 380039 N 0 0 0
0:00:00.00 380311 N 0 0 0
0:00:00.00 380583 N 0 0 0
0:00:00.00 380853 N 0 0 0
0:00:00.00 381123 N 0 0 0
0:00:00.00 381307 N 0 0 0
0:00:00.00 381661 N 0 0 0
0:00:00.00 381937 N 0 0 0
0:00:00.00 382203 N 0 0 0
0:00:00.00 382471 N 0 0 0
0:00:00.00 382738 N 0 0 0
0:00:00.00 383004 N 0 0 0
0:00:00.00 383274 N 0 0 0
0:00:00.00 383533 N 0 0 0
0:00:00.00 383803 N 0 0 0
0:00:00.00 384079 N 0 0 0
0:00:00.00 384345 N 0 0 0
0:00:00.00 384615 N 0 0 0
0:00:00.00 384896 N 0 0 0
0:00:00.00 385076 N 0 0 0
0:00:00.00 385439 N 0 0 0
0:00:00.00 385715 N 0 0 0
0:00:00.00 385985 N 0 0 0
0:00:00.00 386262 N 0 0 0
0:00:00.00 386528 N 0 0 0
0:00:00.00 386797 N 0 0 0
0:00:00.00 387070 N 0 0 0
0:00:00.00 387337 N 0 0 0
0:00:00.00 387601 N 0 0 0
0:00:00.00 387864 N 0 0 0
0:00:00.00 388134 N 0 0 0
0:00:00.00 388411 N 0 0 0
0:00:00.00 388678 N 0 0 0
0:00:00.00 388856 N 0 0 0
0:00:00.00 389223 N 0 0 0
0:00:00.00 389497 N 0 0 0
0:00:00.00 389763 N 0 0 0
0:00:00.00 390033 N 0 0 0
0:00:00.00 390299 N 0 0 0
0:00:00.00 390568 N 0 0 0
0:00:00.00 390836 N 0 0 0
0:00:00.00 391100 N 0 0 0
0:00:00.00 391374 N 0 0 0
0:00:00.00 391642 N 0 0 0
0:00:00.00 391910 N 0 0 0
0:00:00.00 392180 N 0 0 0
0:00:00.00 392450 N 0 0 0
0:00:00.00 392636 N 0 0 0
0:00:00.00 392994 N 0 0 0
0:00:00.00 393264 N 0 0 0
0:00:00.00 393541 N 0 0 0
0:00:00.00 393815 N 0 0 0
0:00:00.00 394079 N 0 0 0
0:00:00.00 394348 N 0 0 0
0:00:00.00 394618 N 0 0 0
0:00:00.00 394895 N 0 0 0
0:00:00.00 395165 N 0 0 0
0:00:00.00 395435 N 0 0 0
0:00:00.00 395712 N 0 0 0
0:00:00.00 395986 N 0 0 0
0:00:00.00 396254 N 0 0 0
0:00:00.00 396526 N 0 0 0
0:00:00.00 396796 N 0 0 0
0:00:00.00 397076 N 0 0 0
0:00:00.00 397339 N 0 0 0
0:00:00.00 397609 N 0 0 0
0:00:00.00 397888 N 0 0 0
0:00:00.00 398162 N 0 0 0
0:00:00.00 398432 N 0 0 0
0:00:00.00 398614 N 0 0 0
0:00:00.00 398966 N 0 0 0
0:00:00.00 399245 N 0 0 0
0:00:00.00 399514 N 0 0 0
0:00:00.00 399780 N 0 0 0
0:00:00.00 400048 N 0 0 0
0:00:00.00 400313 N 0 0 0
0:00:00.00 400581 N 0 0 0
0:00:00.00 400842 N 0 0 0
0:00:00.00 401108 N 0 0 0
0:00:00.00 401378 N 0 0 0
0:00:00.00 401639 N 0 0 0
0:00:00.00 401906 N 0 0 0
0:00:00.00 402176 N 0 0 0
0:00:00.00 402446 N 0 0 0
0:00:00.00 402709 N 0 0 0
0:00:00.00 402977 N 0 0 0
0:00:00.00 403241 N 0 0 0
0:00:00.00 403519 N 0 0 0
0:00:00.00 403789 N 0 0 0
0:00:00.00 404060 N 0 0 0
0:00:00.00 404336 N 0 0 0
0:00:00.00 404611 N 0 0 0
0:00:00.00 404885 N 0 0 0
0:00:00.00 405059 N 0 0 0
0:00:00.00 405430 N 0 0 0
0:00:00.00 405709 N 0 0 0
0:00:00.00 405977 N 0 0 0
0:00:00.00 406251 N 0 0 0
0:00:00.00 406530 N 0 0 0
0:00:00.00 406807 N 0 0 0
0:00:00.00 407079 N 0 0 0
0:00:00.00 407257 N 0 0 0
0:00:00.00 407614 N 0 0 0
0:00:00.00 407894 N 0 0 0
0:00:00.00 408166 N 0 0 0
0:00:00.00 408431 N 0 0 0
0:00:00.00 408706 N 0 0 0
0:00:00.00 408978 N 0 0 0
0:00:00.00 409239 N 0 0 0
0:00:00.00 409504 N 0 0 0
0:00:00.00 409775 N 0 0 0
0:00:00.00 409957 N 0 0 0
0:00:00.00 410314 N 0 0 0
0:00:00.00 410582 N 0 0 0
0:00:00.00 410857 N 0 0 0
0:00:00.00 411127 N 0 0 0
0:00:00.00 411395 N 0 0 0
0:00:00.00 411669 N 0 0 0
0:00:00.00 411937 N 0 0 0
0:00:00.00 412119 N 0 0 0
0:00:00.00 412483 N 0 0 0
0:00:00.00 412749 N 0 0 0
0:00:00.00 413026 N 0 0 0
0:00:00.00 413296 N 0 0 0
0:00:00.00 413561 N 0 0 0
0:00:00.00 413827 N 0 0 0
0:00:00.00 414094 N 0 0 0
0:00:00.00 414364 N 0 0 0
0:00:00.00 414634 N 0 0 0
0:00:00.00 414902 N 0 0 0
0:00:00.00 415179 N 0 0 0
0:00:00.00 415449 N 0 0 0
0:00:00.00 415717 N 0 0 0
0:00:00.00 415993 N 0 0 0
0:00:00.00 416263 N 0 0 0
0:00:00.00 416540 N 0 0 0
0:00:00.00 416815 N 0 0 0
0:00:00.00 417085 N 0 0 0
0:00:00.00 417364 N 0 0 0
0:00:00.00 417636 N 0 0 0
0:00:00.00 417902 N 0 0 0
0:00:00.00 418174 N 0 0 0
0:00:00.00 418442 N 0 0 0
0:00:00.00 418716 N 0 0 0
0:00:00.00 418988 N 0 0 0
0:00:00.00 419258 N 0 0 0
0:00:00.00 419533 N 0 0 0
0:00:00.00 419713 N 0 0 0
0:00:00.00 420068 N 0 0 0
0:00:00.00 420341 N 0 0 0
0:00:00.00 420608 N 0 0 0
0:00:00.00 420881 N 0 0 0
0:00:00.00 421153 N 0 0 0
0:00:00.00 421416 N 0 0 0
0:00:00.00 421690 N 0 0 0
0:00:00.00 421956 N 0 0 0
0:00:00.00 422215 N 0 0 0
0:00:00.00 422483 N 0 0 0
0:00:00.00 422752 N 0 0 0
0:00:00.00 423020 N 0 0 0
0:00:00.00 423286 N 0 0 0
0:00:00.00 423553 N 0 0 0
0:00:00.00 423828 N 0 0 0
0:00:00.00 424096 N 0 0 0
0:00:00.00 424361 N 0 0 0
0:00:00.00 424634 N 0 0 0
0:00:00.00 424903 N 0 0 0
0:00:00.00 425084 N 0 0 0
0:00:00.00 425443 N 0 0 0
0:00:00.00 425709 N 0 0 0
0:00:00.00 425979 N 0 0 0
0:00:00.00 426244 N 0 0 0
0:00:00.00 426503 N 0 0 0
0:00:00.00 426771 N 0 0 0
0:00:00.00 427039 N 0 0 0
0:00:00.00 427309 N 0 0 0
0:00:00.00 427581 N 0 0 0
0:00:00.00 427851 N 0 0 0
0:00:00.00 428130 N 0 0 0
0:00:00.00 428404 N 0 0 0
0:00:00.00 428674 N 0 0 0
0:00:00.00 428953 N 0 0 0
0:00:00.00 429223 N 0 0 0
0:00:00.00 429507 N 0 0 0
0:00:00.00 429784 N 0 0 0
0:00:00.00 429957 N 0 0 0
0:00:00.00 430331 N 0 0 0
0:00:00.00 430607 N 0 0 0
0:00:00.00 430873 N 0 0 0
0:00:00.00 431147 N 0 0 0
0:00:00.00 431415 N 0 0 0
0:00:00.00 431692 N 0 0 0
0:00:00.00 431959 N 0 0 0
0:00:00.00 432227 N 0 0 0
0:00:00.00 432502 N 0 0 0
0:00:00.00 432776 N 0 0 0
0:00:00.00 433042 N 0 0 0
0:00:00.00 433314 N 0 0 0
0:00:00.00 433586 N 0 0 0
0:00:00.00 433766 N 0 0 0
0:00:00.00 434129 N 0 0 0
0:00:00.00 434398 N 0 0 0
0:00:00.00 434677 N 0 0 0
0:00:00.00 434947 N 0 0 0
0:00:00.00 435206 N 0 0 0
0:00:00.00 435474 N 0 0 0
0:00:00.00 435740 N 0 0 0
0:00:00.00 436012 N 0 0 0
0:00:00.00 436279 N 0 0 0
0:00:00.00 436547 N 0 0 0
0:00:00.00 436822 N 0 0 0
0:00:00.00 437004 N 0 0 0
0:00:00.00 437359 N 0 0 0
0:00:00.00 437627 N 0 0 0
0:00:00.00 437893 N 0 0 0
0:00:00.00 438167 N 0 0 0
0:00:00.00 438435 N 0 0 0
0:00:00.00 438698 N 0 0 0
0:00:00.00 438975 N 0 0 0
0:00:00.00 439241 N 0 0 0
0:00:00.00 439504 N 0 0 0
0:00:00.00 439776 N 0 0 0
0:00:00.00 440044 N 0 0 0
0:00:00.00 440312 N 0 0 0
0:00:00.00 440584 N 0 0 0
0:00:00.00 440849 N 0 0 0
0:00:00.00 441119 N 0 0 0
0:00:00.00 441389 N 0 0 0
0:00:00.00 441657 N 0 0 0
0:00:00.00 441925 N 0 0 0
0:00:00.00 442184 N 0 0 0
0:00:00.00 442453 N 0 0 0
0:00:00.00 442726 N 0 0 0
0:00:00.00 442987 N 0 0 0
0:00:00.00 443252 N 0 0 0
0:00:00.00 443520 N 0 0 0
0:00:00.00 443786 N 0 0 0
0:00:00.00 444047 N 0 0 0
0:00:00.00 444316 N 0 0 0
0:00:00.00 444577 N 0 0 0
0:00:00.00 444847 N 0 0 0
0:00:00.00 445111 N 0 0 0
0:00:00.00 445376 N 0 0 0
0:00:00.00 445651 N 0 0 0
0:00:00.00 445921 N 0 0 0
0:00:00.00 446186 N 0 0 0
0:00:00.00 446449 N 0 0 0
0:00:00.00 446713 N 0 0 0
0:00:00.00 446981 N 0 0 0
0:00:00.00 447244 N 0 0 0
0:00:00.00 447505 N 0 0 0
0:00:00.00 447779 N 0 0 0
0:00:00.00 448040 N 0 0 0
0:00:00.00 448297 N 0 0 0
0:00:00.00 448565 N 0 0 0
0:00:00.00 448828 N 0 0 0
0:00:00.00 449095 N 0 0 0
0:00:00.00 449361 N 0 0 0
0:00:00.00 449627 N 0 0 0
0:00:00.00 449897 N 0 0 0
0:00:00.00 450166 N 0 0 0
0:00:00.00 450427 N 0 0 0
0:00:00.00 450693 N 0 0 0
0:00:00.00 450956 N 0 0 0
0:00:00.00 451219 N 0 0 0
0:00:00.00 451485 N 0 0 0
0:00:00.00 451744 N 0 0 0
0:00:00.00 452011 N 0 0 0
0:00:00.00 452270 N 0 0 0
0:00:00.00 452531 N 0 0 0
0:00:00.00 452795 N 0 0 0
0:00:00.00 453055 N 0 0 0
0:00:00.00 453316 N 0 0 0
0:00:00.00 453584 N 0 0 0
0:00:00.00 453848 N 0 0 0
0:00:00.00 454023 N 0 0 0
0:00:00.00 454379 N 0 0 0
0:00:00.00 454648 N 0 0 0
0:00:00.00 454910 N 0 0 0
0:00:00.00 455171 N 0 0 0
0:00:00.00 455434 N 0 0 0
0:00:00.00 455701 N 0 0 0
0:00:00.00 455960 N 0 0 0
0:00:00.00 456221 N 0 0 0
0:00:00.00 456485 N 0 0 0
0:00:00.00 456746 N 0 0 0
0:00:00.00 457006 N 0 0 0
0:00:00.00 457268 N 0 0 0
0:00:00.00 457529 N 0 0 0
0:00:00.00 457709 N 0 0 0
0:00:00.00 458059 N 0 0 0
0:00:00.00 458323 N 0 0 0
0:00:00.00 458591 N 0 0 0
0:00:00.00 458860 N 0 0 0
0:00:00.00 459119 N 0 0 0
0:00:00.00 459382 N 0 0 0
0:00:00.00 459643 N 0 0 0
0:00:00.00 459911 N 0 0 0
0:00:00.00 460174 N 0 0 0
0:00:00.00 460433 N 0 0 0
0:00:00.00 460706 N 0 0 0
0:00:00.00 460885 N 0 0 0
0:00:00.00 461228 N 0 0 0
0:00:00.00 461498 N 0 0 0
0:00:00.00 461761 N 0 0 0
0:00:00.00 462028 N 0 0 0
0:00:00.00 462292 N 0 0 0
0:00:00.00 462557 N 0 0 0
0:00:00.00 462830 N 0 0 0
0:00:00.00 463009 N 0 0 0
0:00:00.00 463352 N 0 0 0
0:00:00.00 463621 N 0 0 0
0:00:00.00 463882 N 0 0 0
0:00:00.00 464146 N 0 0 0
0:00:00.00 464409 N 0 0 0
0:00:00.00 464668 N 0 0 0
0:00:00.00 464936 N 0 0 0
0:00:00.00 465196 N 0 0 0
0:00:00.00 465457 N 0 0 0
0:00:00.00 465633 N 0 0 0
0:00:00.00 465982 N 0 0 0
0:00:00.00 466247 N 0 0 0
0:00:00.00 466513 N 0 0 0
0:00:00.00 466778 N 0 0 0
0:00:00.00 467039 N 0 0 0
0:00:00.00 467311 N 0 0 0
0:00:00.00 467579 N 0 0 0
0:00:00.00 467838 N 0 0 0
0:00:00.00 468099 N 0 0 0
0:00:00.00 468364 N 0 0 0
0:00:00.00 468632 N 0 0 0
0:00:00.00 468891 N 0 0 0
0:00:00.00 469150 N 0 0 0
0:00:00.00 469418 N 0 0 0
0:00:00.00 469679 N 0 0 0
0:00:00.00 469939 N 0 0 0
0:00:00.00 470207 N 0 0 0
0:00:00.00 470468 N 0 0 0
0:00:00.00 470736 N 0 0 0
0:00:00.00 471006 N 0 0 0
0:00:00.00 471271 N 0 0 0
0:00:00.00 471542 N 0 0 0
0:00:00.00 471811 N 0 0 0
0:00:00.00 472072 N 0 0 0
0:00:00.00 472334 N 0 0 0
0:00:00.00 472511 N 0 0 0
0:00:00.00 472860 N 0 0 0
0:00:00.00 473134 N 0 0 0
0:00:00.00 473393 N 0 0 0
0:00:00.00 473659 N 0 0 0
0:00:00.00 473924 N 0 0 0
0:00:00.00 474190 N 0 0 0
0:00:00.00 474460 N 0 0 0
0:00:00.00 474721 N 0 0 0
0:00:00.00 474991 N 0 0 0
0:00:00.00 475261 N 0 0 0
0:00:00.00 475528 N 0 0 0
0:00:00.00 475792 N 0 0 0
0:00:00.00 476066 N 0 0 0
0:00:00.00 476336 N 0 0 0
0:00:00.00 476599 N 0 0 0
0:00:00.00 476865 N 0 0 0
0:00:00.00 477135 N 0 0 0
0:00:00.00 477407 N 0 0 0
0:00:00.00 477673 N 0 0 0
0:00:00.00 477940 N 0 0 0
0:00:00.00 478211 N 0 0 0
0:00:00.00 478390 N 0 0 0
0:00:00.00 478744 N 0 0 0
0:00:00.00 479011 N 0 0 0
0:00:00.00 479277 N 0 0 0
0:00:00.00 479547 N 0 0 0
0:00:00.00 479812 N 0 0 0
0:00:00.00 480078 N 0 0 0
0:00:00.00 480355 N 0 0 0
0:00:00.00 480623 N 0 0 0
0:00:00.00 480884 N 0 0 0
0:00:00.00 481154 N 0 0 0
0:00:00.00 481424 N 0 0 0
0:00:00.00 481698 N 0 0 0
0:00:00.00 481964 N 0 0 0
0:00:00.00 482146 N 0 0 0
0:00:00.00 482499 N 0 0 0
0:00:00.00 482769 N 0 0 0
0:00:00.00 483030 N 0 0 0
0:00:00.00 483300 N 0 0 0
0:00:00.00 483566 N 0 0 0
0:00:00.00 483840 N 0 0 0
0:00:00.00 484110 N 0 0 0
0:00:00.00 484373 N 0 0 0
0:00:00.00 484652 N 0 0 0
0:00:00.00 484918 N 0 0 0
0:00:00.00 485179 N 0 0 0
0:00:00.00 485451 N 0 0 0
0:00:00.00 485723 N 0 0 0
0:00:00.00 485906 N 0 0 0
0:00:00.00 486261 N 0 0 0
0:00:00.00 486527 N 0 0 0
0:00:00.00 486797 N 0 0 0
0:00:00.00 487066 N 0 0 0
0:00:00.00 487328 N 0 0 0
0:00:00.00 487595 N 0 0 0
0:00:00.00 490788 N 0 0 0
0:00:00.00 491058 N 0 0 0
0:00:00.00 491323 N 0 0 0
0:00:00.00 491582 N 0 0 0
0:00:00.00 491852 N 0 0 0
0:00:00.00 492109 N 0 0 0
0:00:00.00 492377 N 0 0 0
0:00:00.00 492644 N 0 0 0
0:00:00.00 492908 N 0 0 0
0:00:00.00 493186 N 0 0 0
0:00:00.00 493441 N 0 0 0
0:00:00.00 493713 N 0 0 0
0:00:00.00 493985 N 0 0 0
0:00:00.00 494253 N 0 0 0
0:00:00.00 494433 N 0 0 0
0:00:00.00 494788 N 0 0 0
0:00:00.00 495054 N 0 0 0
0:00:00.00 495326 N 0 0 0
0:00:00.00 495587 N 0 0 0
0:00:00.00 495846 N 0 0 0
0:00:00.00 496118 N 0 0 0
0:00:00.00 496377 N 0 0 0
0:00:00.00 496647 N 0 0 0
0:00:00.00 496919 N 0 0 0
0:00:00.00 497182 N 0 0 0
0:00:00.00 497452 N 0 0 0
0:00:00.00 497633 N 0 0 0
0:00:00.00 497984 N 0 0 0
0:00:00.00 498253 N 0 0 0
0:00:00.00 498519 N 0 0 0
0:00:00.00 498780 N 0 0 0
0:00:00.00 499052 N 0 0 0
0:00:00.00 499313 N 0 0 0
0:00:00.00 499574 N 0 0 0
0:00:00.00 499838 N 0 0 0
0:00:00.00 500101 N 0 0 0
0:00:00.00 500364 N 0 0 0
0:00:00.00 500625 N 0 0 0
0:00:00.00 500697 N 0 0 0
0:00:00.00 502772 N 0 0 0
0:00:00.00 503037 N 0 0 0
0:00:00.00 503305 N 0 0 0
0:00:00.00 503573 N 0 0 0
0:00:00.00 503842 N 0 0 0
0:00:00.00 504112 N 0 0 0
0:00:00.00 504383 N 0 0 0
0:00:00.00 504650 N 0 0 0
0:00:00.00 504918 N 0 0 0
0:00:00.00 505188 N 0 0 0
0:00:00.00 505460 N 0 0 0
0:00:00.00 505908 N 0 0 0
0:00:00.00 505996 N 0 0 0
0:00:00.00 506277 N 0 0 0
0:00:00.00 506540 N 0 0 0
0:00:00.00 506803 N 0 0 0
0:00:00.00 507073 N 0 0 0
0:00:00.00 507337 N 0 0 0
0:00:00.00 507604 N 0 0 0
0:00:00.00 507870 N 0 0 0
0:00:00.00 508133 N 0 0 0
0:00:00.00 508396 N 0 0 0
0:00:00.00 508660 N 0 0 0
0:00:00.00 508921 N 0 0 0
0:00:00.00 509182 N 0 0 0
0:00:00.00 509441 N 0 0 0
0:00:00.00 509704 N 0 0 0
0:00:00.00 509974 N 0 0 0
0:00:00.00 510239 N 0 0 0
0:00:00.00 510514 N 0 0 0
0:00:00.00 510788 N 0 0 0
0:00:00.00 511063 N 0 0 0
0:00:00.00 511339 N 0 0 0
0:00:00.00 511515 N 0 0 0
0:00:00.00 511879 N 0 0 0
0:00:00.00 512156 N 0 0 0
0:00:00.00 512419 N 0 0 0
0:00:00.00 512683 N 0 0 0
0:00:00.00 512955 N 0 0 0
0:00:00.00 513221 N 0 0 0
0:00:00.00 513488 N 0 0 0
0:00:00.00 513751 N 0 0 0
0:00:00.00 514021 N 0 0 0
0:00:00.00 514292 N 0 0 0
0:00:00.00 514557 N 0 0 0
0:00:00.00 514827 N 0 0 0
0:00:00.00 515097 N 0 0 0
0:00:00.00 515365 N 0 0 0
0:00:00.00 515633 N 0 0 0
0:00:00.00 515900 N 0 0 0
0:00:00.00 516168 N 0 0 0
0:00:00.00 516442 N 0 0 0
0:00:00.00 516706 N 0 0 0
0:00:00.00 516879 N 0 0 0
0:00:00.00 517241 N 0 0 0
0:00:00.00 517513 N 0 0 0
0:00:00.00 517783 N 0 0 0
0:00:00.00 518045 N 0 0 0
0:00:00.00 518315 N 0 0 0
0:00:00.00 518587 N 0 0 0
0:00:00.00 518855 N 0 0 0
0:00:00.00 519129 N 0 0 0
0:00:00.00 519401 N 0 0 0
0:00:00.00 519667 N 0 0 0
0:00:00.00 519935 N 0 0 0
0:00:00.00 520198 N 0 0 0
0:00:00.00 520461 N 0 0 0
0:00:00.00 520726 N 0 0 0
0:00:00.00 520981 N 0 0 0
0:00:00.00 521235 N 0 0 0
0:00:00.00 521500 N 0 0 0
0:00:00.00 521762 N 0 0 0
0:00:00.00 522020 N 0 0 0
0:00:00.00 522196 N 0 0 0
0:00:00.00 522540 N 0 0 0
0:00:00.00 522808 N 0 0 0
0:00:00.00 523067 N 0 0 0
0:00:00.00 523327 N 0 0 0
0:00:00.00 523597 N 0 0 0
0:00:00.00 523854 N 0 0 0
0:00:00.00 524104 N 0 0 0
0:00:00.00 524363 N 0 0 0
0:00:00.00 524617 N 0 0 0
0:00:00.00 524875 N 0 0 0
0:00:00.00 525130 N 0 0 0
0:00:00.00 525388 N 0 0 0
0:00:00.00 525647 N 0 0 0
0:00:00.00 525904 N 0 0 0
0:00:00.00 526162 N 0 0 0
0:00:00.00 526424 N 0 0 0
0:00:00.00 526678 N 0 0 0
0:00:00.00 526945 N 0 0 0
0:00:00.00 527209 N 0 0 0
0:00:00.00 527470 N 0 0 0
0:00:00.00 527737 N 0 0 0
0:00:00.00 527931 N 0 0 0
0:00:00.00 528264 N 0 0 0
0:00:00.00 528525 N 0 0 0
0:00:00.00 528782 N 0 0 0
0:00:00.00 529040 N 0 0 0
0:00:00.00 529301 N 0 0 0
0:00:00.00 529556 N 0 0 0
0:00:00.00 529814 N 0 0 0
0:00:00.00 530077 N 0 0 0
0:00:00.00 530338 N 0 0 0
0:00:00.00 530593 N 0 0 0
0:00:00.00 530854 N 0 0 0
0:00:00.00 531113 N 0 0 0
0:00:00.00 531380 N 0 0 0
0:00:00.00 531643 N 0 0 0
0:00:00.00 531895 N 0 0 0
0:00:00.00 532174 N 0 0 0
0:00:00.00 532436 N 0 0 0
0:00:00.00 532701 N 0 0 0
0:00:00.00 532966 N 0 0 0
0:00:00.00 533223 N 0 0 0
0:00:00.00 533484 N 0 0 0
0:00:00.00 533754 N 0 0 0
0:00:00.00 534011 N 0 0 0
0:00:00.00 534269 N 0 0 0
0:00:00.00 534535 N 0 0 0
0:00:00.00 534798 N 0 0 0
0:00:00.00 535045 N 0 0 0
0:00:00.00 535315 N 0 0 0
0:00:00.00 535576 N 0 0 0
0:00:00.00 535840 N 0 0 0
0:00:00.00 536098 N 0 0 0
0:00:00.00 536359 N 0 0 0
0:00:00.00 536625 N 0 0 0
0:00:00.00 536886 N 0 0 0
0:00:00.00 537142 N 0 0 0
0:00:00.00 537408 N 0 0 0
0:00:00.00 537667 N 0 0 0
0:00:00.00 537932 N 0 0 0
0:00:00.00 538189 N 0 0 0
0:00:00.00 538447 N 0 0 0
0:00:00.00 538706 N 0 0 0
0:00:00.00 538965 N 0 0 0
0:00:00.00 539212 N 0 0 0
0:00:00.00 539482 N 0 0 0
0:00:00.00 539739 N 0 0 0
0:00:00.00 540005 N 0 0 0
0:00:00.00 540263 N 0 0 0
0:00:00.00 540540 N 0 0 0
0:00:00.00 540814 N 0 0 0
0:00:00.00 541087 N 0 0 0
0:00:00.00 541361 N 0 0 0
0:00:00.00 541631 N 0 0 0
0:00:00.00 541895 N 0 0 0
0:00:00.00 542093 N 0 0 0
0:00:00.00 542435 N 0 0 0
0:00:00.00 542682 N 0 0 0
0:00:00.00 542948 N 0 0 0
0:00:00.00 543217 N 0 0 0
0:00:00.00 543481 N 0 0 0
0:00:00.00 543740 N 0 0 0
0:00:00.00 544001 N 0 0 0
0:00:00.00 544253 N 0 0 0
0:00:00.00 544531 N 0 0 0
0:00:00.00 544795 N 0 0 0
0:00:00.00 545058 N 0 0 0
0:00:00.00 545324 N 0 0 0
0:00:00.00 545580 N 0 0 0
0:00:00.00 545850 N 0 0 0
0:00:00.00 546115 N 0 0 0
0:00:00.00 546379 N 0 0 0
0:00:00.00 546651 N 0 0 0
0:00:00.00 546912 N 0 0 0
0:00:00.00 547171 N 0 0 0
0:00:00.00 547445 N 0 0 0
0:00:00.00 547709 N 0 0 0
0:00:00.00 547965 N 0 0 0
0:00:00.00 548226 N 0 0 0
0:00:00.00 548491 N 0 0 0
0:00:00.00 548755 N 0 0 0
0:00:00.00 549022 N 0 0 0
0:00:00.00 549286 N 0 0 0
0:00:00.00 549558 N 0 0 0
0:00:00.00 549824 N 0 0 0
0:00:00.00 550084 N 0 0 0
0:00:00.00 550350 N 0 0 0
0:00:00.00 550537 N 0 0 0
0:00:00.00 550879 N 0 0 0
0:00:00.00 551147 N 0 0 0
0:00:00.00 551405 N 0 0 0
0:00:00.00 551677 N 0 0 0
0:00:00.00 551947 N 0 0 0
0:00:00.00 552204 N 0 0 0
0:00:00.00 552476 N 0 0 0
0:00:00.00 552650 N 0 0 0
0:00:00.00 553025 N 0 0 0
0:00:00.00 553298 N 0 0 0
0:00:00.00 553570 N 0 0 0
0:00:00.00 553849 N 0 0 0
0:00:00.00 554119 N 0 0 0
0:00:00.00 554386 N 0 0 0
0:00:00.00 554657 N 0 0 0
0:00:00.00 554915 N 0 0 0
0:00:00.00 555197 N 0 0 0
0:00:00.00 555458 N 0 0 0
0:00:00.00 555721 N 0 0 0
0:00:00.00 555989 N 0 0 0
0:00:00.00 556252 N 0 0 0
0:00:00.00 556506 N 0 0 0
0:00:00.00 556760 N 0 0 0
0:00:00.00 557032 N 0 0 0
0:00:00.00 557296 N 0 0 0
0:00:00.00 557557 N 0 0 0
0:00:00.00 557820 N 0 0 0
0:00:00.00 558083 N 0 0 0
0:00:00.00 558342 N 0 0 0
0:00:00.00 558529 N 0 0 0
0:00:00.00 558673 N 0 0 0
0:00:00.00 559031 N 0 0 0
0:00:00.00 559305 N 0 0 0
0:00:00.00 559573 N 0 0 0
0:00:00.00 559829 N 0 0 0
0:00:00.00 560084 N 0 0 0
0:00:00.00 560351 N 0 0 0
0:00:00.00 560610 N 0 0 0
0:00:00.00 560864 N 0 0 0
0:00:00.00 561128 N 0 0 0
0:00:00.00 561391 N 0 0 0
0:00:00.00 561656 N 0 0 0
0:00:00.00 561926 N 0 0 0
0:00:00.00 562181 N 0 0 0
0:00:00.00 562464 N 0 0 0
0:00:00.00 562729 N 0 0 0
0:00:00.00 562995 N 0 0 0
0:00:00.00 563260 N 0 0 0
0:00:00.00 563508 N 0 0 0
0:00:00.00 563782 N 0 0 0
0:00:00.00 563971 N 0 0 0
0:00:00.00 564298 N 0 0 0
0:00:00.00 564572 N 0 0 0
0:00:00.00 564842 N 0 0 0
0:00:00.00 565105 N 0 0 0
0:00:00.00 565364 N 0 0 0
0:00:00.00 565627 N 0 0 0
0:00:00.00 565888 N 0 0 0
0:00:00.00 566150 N 0 0 0
0:00:00.00 566413 N 0 0 0
0:00:00.00 566609 N 0 0 0
0:00:00.00 566935 N 0 0 0
0:00:00.00 567198 N 0 0 0
0:00:00.00 567448 N 0 0 0
0:00:00.00 567711 N 0 0 0
0:00:00.00 567968 N 0 0 0
0:00:00.00 568235 N 0 0 0
0:00:00.00 568496 N 0 0 0
0:00:00.00 568757 N 0 0 0
0:00:00.00 569025 N 0 0 0
0:00:00.00 569295 N 0 0 0
0:00:00.00 569558 N 0 0 0
0:00:00.00 569826 N 0 0 0
0:00:00.00 570096 N 0 0 0
0:00:00.00 570362 N 0 0 0
0:00:00.00 570636 N 0 0 0
0:00:00.00 570904 N 0 0 0
0:00:00.00 571172 N 0 0 0
0:00:00.00 571441 N 0 0 0
0:00:00.00 571703 N 0 0 0
0:00:00.00 571966 N 0 0 0
0:00:00.00 572227 N 0 0 0
0:00:00.00 572494 N 0 0 0
0:00:00.00 572758 N 0 0 0
0:00:00.00 573017 N 0 0 0
0:00:00.00 573282 N 0 0 0
0:00:00.00 573548 N 0 0 0
0:00:00.00 573808 N 0 0 0
0:00:00.00 574070 N 0 0 0
0:00:00.00 574333 N 0 0 0
0:00:00.00 574511 N 0 0 0
0:00:00.00 574864 N 0 0 0
0:00:00.00 575125 N 0 0 0
0:00:00.00 575384 N 0 0 0
0:00:00.00 575651 N 0 0 0
0:00:00.00 575914 N 0 0 0
0:00:00.00 576171 N 0 0 0
0:00:00.00 576428 N 0 0 0
0:00:00.00 576686 N 0 0 0
0:00:00.00 576952 N 0 0 0
0:00:00.00 577206 N 0 0 0
0:00:00.00 577463 N 0 0 0
0:00:00.00 577733 N 0 0 0
0:00:00.00 577993 N 0 0 0
0:00:00.00 578248 N 0 0 0
0:00:00.00 578515 N 0 0 0
0:00:00.00 578779 N 0 0 0
0:00:00.00 579042 N 0 0 0
0:00:00.00 579308 N 0 0 0
0:00:00.00 579573 N 0 0 0
0:00:00.00 579848 N 0 0 0
0:00:00.00 580115 N 0 0 0
0:00:00.00 580376 N 0 0 0
0:00:00.00 580642 N 0 0 0
0:00:00.00 580903 N 0 0 0
0:00:00.00 581175 N 0 0 0
0:00:00.00 581431 N 0 0 0
0:00:00.00 581686 N 0 0 0
0:00:00.00 581953 N 0 0 0
0:00:00.00 582214 N 0 0 0
0:00:00.00 582466 N 0 0 0
0:00:00.00 582732 N 0 0 0
0:00:00.00 582993 N 0 0 0
0:00:00.00 583256 N 0 0 0
0:00:00.00 583522 N 0 0 0
0:00:00.00 583699 N 0 0 0
0:00:00.00 584050 N 0 0 0
0:00:00.00 584311 N 0 0 0
0:00:00.00 584563 N 0 0 0
0:00:00.00 584820 N 0 0 0
0:00:00.00 585074 N 0 0 0
0:00:00.00 585331 N 0 0 0
0:00:00.00 585594 N 0 0 0
0:00:00.00 585846 N 0 0 0
0:00:00.00 586102 N 0 0 0
0:00:00.00 586364 N 0 0 0
0:00:00.00 586624 N 0 0 0
0:00:00.00 586876 N 0 0 0
0:00:00.00 587135 N 0 0 0
0:00:00.00 587396 N 0 0 0
0:00:00.00 587657 N 0 0 0
0:00:00.00 587920 N 0 0 0
0:00:00.00 588166 N 0 0 0
0:00:00.00 588443 N 0 0 0
0:00:00.00 588703 N 0 0 0
0:00:00.00 588956 N 0 0 0
0:00:00.00 589212 N 0 0 0
0:00:00.00 589471 N 0 0 0
0:00:00.00 589729 N 0 0 0
0:00:00.00 589990 N 0 0 0
0:00:00.00 590242 N 0 0 0
0:00:00.00 590495 N 0 0 0
0:00:00.00 590755 N 0 0 0
0:00:00.00 591007 N 0 0 0
0:00:00.00 591257 N 0 0 0
0:00:00.00 591509 N 0 0 0
0:00:00.00 591759 N 0 0 0
0:00:00.00 592013 N 0 0 0
0:00:00.00 592268 N 0 0 0
0:00:00.00 592517 N 0 0 0
0:00:00.00 592774 N 0 0 0
0:00:00.00 593026 N 0 0 0
0:00:00.00 593276 N 0 0 0
0:00:00.00 593528 N 0 0 0
0:00:00.00 593779 N 0 0 0
0:00:00.00 594036 N 0 0 0
0:00:00.00 594295 N 0 0 0
0:00:00.00 594544 N 0 0 0
0:00:00.00 594797 N 0 0 0
0:00:00.00 595058 N 0 0 0
0:00:00.00 595314 N 0 0 0
0:00:00.00 595568 N 0 0 0
0:00:00.00 595825 N 0 0 0
0:00:00.00 596081 N 0 0 0
0:00:00.00 596340 N 0 0 0
0:00:00.00 596601 N 0 0 0
0:00:00.00 596858 N 0 0 0
0:00:00.00 597121 N 0 0 0
0:00:00.00 597382 N 0 0 0
0:00:00.00 597629 N 0 0 0
0:00:00.00 597899 N 0 0 0
0:00:00.00 598156 N 0 0 0
0:00:00.00 598419 N 0 0 0
0:00:00.00 598682 N 0 0 0
0:00:00.00 598925 N 0 0 0
0:00:00.00 599189 N 0 0 0
0:00:00.00 599454 N 0 0 0
0:00:00.00 599710 N 0 0 0
0:00:00.00 599963 N 0 0 0
0:00:00.00 600217 N 0 0 0
0:00:00.00 600471 N 0 0 0
0:00:00.00 600734 N 0 0 0
0:00:00.00 600991 N 0 0 0
0:00:00.00 601245 N 0 0 0
0:00:00.00 601510 N 0 0 0
0:00:00.00 601765 N 0 0 0
0:00:00.00 602015 N 0 0 0
0:00:00.00 602273 N 0 0 0
0:00:00.00 602523 N 0 0 0
0:00:00.00 602779 N 0 0 0
0:00:00.00 603034 N 0 0 0
0:00:00.00 603286 N 0 0 0
0:00:00.00 603542 N 0 0 0
0:00:00.00 603801 N 0 0 0
0:00:00.00 604055 N 0 0 0
0:00:00.00 604309 N 0 0 0
0:00:00.00 604564 N 0 0 0
0:00:00.00 604822 N 0 0 0
0:00:00.00 605090 N 0 0 0
0:00:00.00 605351 N 0 0 0
0:00:00.00 605596 N 0 0 0
0:00:00.00 605873 N 0 0 0
0:00:00.00 606136 N 0 0 0
0:00:00.00 606389 N 0 0 0
0:00:00.00 606650 N 0 0 0
0:00:00.00 606910 N 0 0 0
0:00:00.00 607169 N 0 0 0
0:00:00.00 607412 N 0 0 0
0:00:00.00 607676 N 0 0 0
0:00:00.00 607943 N 0 0 0
0:00:00.00 608197 N 0 0 0
0:00:00.00 608445 N 0 0 0
0:00:00.00 608704 N 0 0 0
0:00:00.00 608960 N 0 0 0
0:00:00.00 609214 N 0 0 0
0:00:00.00 609476 N 0 0 0
0:00:00.00 609734 N 0 0 0
0:00:00.00 609997 N 0 0 0
0:00:00.00 610259 N 0 0 0
0:00:00.00 610520 N 0 0 0
0:00:00.00 610780 N 0 0 0
0:00:00.00 611037 N 0 0 0
0:00:00.00 611302 N 0 0 0
0:00:00.00 611568 N 0 0 0
0:00:00.00 611824 N 0 0 0
0:00:00.00 612083 N 0 0 0
0:00:00.00 612347 N 0 0 0
0:00:00.00 612608 N 0 0 0
0:00:00.00 612868 N 0 0 0
0:00:00.00 613125 N 0 0 0
0:00:00.00 613384 N 0 0 0
0:00:00.00 613647 N 0 0 0
0:00:00.00 613904 N 0 0 0
0:00:00.00 614162 N 0 0 0
0:00:00.00 614425 N 0 0 0
0:00:00.00 614687 N 0 0 0
0:00:00.00 614939 N 0 0 0
0:00:00.00 615197 N 0 0 0
0:00:00.00 615454 N 0 0 0
0:00:00.00 615713 N 0 0 0
0:00:00.00 615969 N 0 0 0
0:00:00.00 616225 N 0 0 0
0:00:00.00 616486 N 0 0 0
0:00:00.00 616745 N 0 0 0
0:00:00.00 616999 N 0 0 0
0:00:00.00 617260 N 0 0 0
0:00:00.00 617515 N 0 0 0
0:00:00.00 617765 N 0 0 0
0:00:00.00 618028 N 0 0 0
0:00:00.00 618282 N 0 0 0
0:00:00.00 618538 N 0 0 0
0:00:00.00 618795 N 0 0 0
0:00:00.00 619056 N 0 0 0
0:00:00.00 619303 N 0 0 0
0:00:00.00 619558 N 0 0 0
0:00:00.00 619814 N 0 0 0
0:00:00.00 620069 N 0 0 0
0:00:00.00 620334 N 0 0 0
0:00:00.00 620590 N 0 0 0
0:00:00.00 620851 N 0 0 0
0:00:00.00 621108 N 0 0 0
0:00:00.00 621360 N 0 0 0
0:00:00.00 621617 N 0 0 0
0:00:00.00 621871 N 0 0 0
0:00:00.00 622127 N 0 0 0
0:00:00.00 622390 N 0 0 0
0:00:00.00 622647 N 0 0 0
0:00:00.00 622903 N 0 0 0
0:00:00.00 623169 N 0 0 0
0:00:00.00 623437 N 0 0 0
0:00:00.00 623693 N 0 0 0
0:00:00.00 623957 N 0 0 0
0:00:00.00 624220 N 0 0 0
0:00:00.00 624487 N 0 0 0
0:00:00.00 624746 N 0 0 0
0:00:00.00 624924 N 0 0 0
0:00:00.00 625261 N 0 0 0
0:00:00.00 625531 N 0 0 0
0:00:00.00 625786 N 0 0 0
0:00:00.00 626047 N 0 0 0
0:00:00.00 626303 N 0 0 0
0:00:00.00 626562 N 0 0 0
0:00:00.00 626827 N 0 0 0
0:00:00.00 627086 N 0 0 0
0:00:00.00 627349 N 0 0 0
0:00:00.00 627602 N 0 0 0
0:00:00.00 627872 N 0 0 0
0:00:00.00 628133 N 0 0 0
0:00:00.00 628393 N 0 0 0
0:00:00.00 628655 N 0 0 0
0:00:00.00 628918 N 0 0 0
0:00:00.00 629174 N 0 0 0
0:00:00.00 629431 N 0 0 0
0:00:00.00 629694 N 0 0 0
0:00:00.00 629951 N 0 0 0
0:00:00.00 630207 N 0 0 0
0:00:00.00 630466 N 0 0 0
0:00:00.00 630722 N 0 0 0
0:00:00.00 630986 N 0 0 0
0:00:00.00 631246 N 0 0 0
0:00:00.00 631505 N 0 0 0
0:00:00.00 631773 N 0 0 0
0:00:00.00 632034 N 0 0 0
0:00:00.00 632286 N 0 0 0
0:00:00.00 632547 N 0 0 0
0:00:00.00 632803 N 0 0 0
0:00:00.00 633058 N 0 0 0
0:00:00.00 633312 N 0 0 0
0:00:00.00 633569 N 0 0 0
0:00:00.00 633832 N 0 0 0
0:00:00.00 634091 N 0 0 0
0:00:00.00 634349 N 0 0 0
0:00:00.00 634599 N 0 0 0
0:00:00.00 634867 N 0 0 0
0:00:00.00 635128 N 0 0 0
0:00:00.00 635396 N 0 0 0
0:00:00.00 635652 N 0 0 0
0:00:00.00 635918 N 0 0 0
0:00:00.00 636178 N 0 0 0
0:00:00.00 636455 N 0 0 0
0:00:00.00 636714 N 0 0 0
0:00:00.00 636975 N 0 0 0
0:00:00.00 637240 N 0 0 0
0:00:00.00 637504 N 0 0 0
0:00:00.00 637762 N 0 0 0
0:00:00.00 638019 N 0 0 0
0:00:00.00 638282 N 0 0 0
0:00:00.00 638536 N 0 0 0
0:00:00.00 638793 N 0 0 0
0:00:00.00 639049 N 0 0 0
0:00:00.00 639304 N 0 0 0
0:00:00.00 639569 N 0 0 0
0:00:00.00 639830 N 0 0 0
0:00:00.00 640089 N 0 0 0
0:00:00.00 640355 N 0 0 0
0:00:00.00 640622 N 0 0 0
0:00:00.00 640876 N 0 0 0
0:00:00.00 641137 N 0 0 0
0:00:00.00 641394 N 0 0 0
0:00:00.00 641659 N 0 0 0
0:00:00.00 641916 N 0 0 0
0:00:00.00 642177 N 0 0 0
0:00:00.00 642447 N 0 0 0
0:00:00.00 642706 N 0 0 0
0:00:00.00 642962 N 0 0 0
0:00:00.00 643228 N 0 0 0
0:00:00.00 643489 N 0 0 0
0:00:00.00 643748 N 0 0 0
0:00:00.00 644015 N 0 0 0
0:00:00.00 644272 N 0 0 0
0:00:00.00 644539 N 0 0 0
0:00:00.00 644801 N 0 0 0
0:00:00.00 645055 N 0 0 0
0:00:00.00 645311 N 0 0 0
0:00:00.00 645566 N 0 0 0
0:00:00.00 645826 N 0 0 0
0:00:00.00 646090 N 0 0 0
0:00:00.00 646339 N 0 0 0
0:00:00.00 646594 N 0 0 0
0:00:00.00 646857 N 0 0 0
0:00:00.00 647114 N 0 0 0
0:00:00.00 647368 N 0 0 0
0:00:00.00 647624 N 0 0 0
0:00:00.00 647879 N 0 0 0
0:00:00.00 648144 N 0 0 0
0:00:00.00 648405 N 0 0 0
0:00:00.00 648662 N 0 0 0
0:00:00.00 648932 N 0 0 0
0:00:00.00 649192 N 0 0 0
0:00:00.00 649442 N 0 0 0
0:00:00.00 649701 N 0 0 0
