0:00:00.00 16 N 0 0 0
0:00:00.00 88 N 0 0 0
0:00:00.00 160 N 0 0 0
0:00:00.00 590 N 0 0 0
0:00:00.00 997 N 0 0 0
0:00:00.00 1402 N 0 0 0
0:00:00.00 1827 N 0 0 0
0:00:00.00 2239 N 0 0 0
0:00:00.00 2669 N 0 0 0
0:00:00.00 3096 N 0 0 0
0:00:00.00 3523 N 0 0 0
0:00:00.00 3951 N 0 0 0
0:00:00.00 4374 N 0 0 0
0:00:00.00 4792 N 0 0 0
0:00:00.00 5231 N 0 0 0
0:00:00.00 5657 N 0 0 0
0:00:00.00 6091 N 0 0 0
0:00:00.00 6539 N 0 0 0
0:00:00.00 6975 N 0 0 0
0:00:00.00 7423 N 0 0 0
0:00:00.00 7855 N 0 0 0
0:00:00.00 8312 N 0 0 0
0:00:00.00 8752 N 0 0 0
0:00:00.00 9200 N 0 0 0
0:00:00.00 9641 N 0 0 0
0:00:00.00 10071 N 0 0 0
0:00:00.00 10512 N 0 0 0
0:00:00.00 10921 N 0 0 0
0:00:00.00 11340 N 0 0 0
0:00:00.00 11749 N 0 0 0
0:00:00.00 12172 N 0 0 0
0:00:00.00 12614 N 0 0 0
0:00:00.00 13055 N 0 0 0
0:00:00.00 13495 N 0 0 0
0:00:00.00 13945 N 0 0 0
0:00:00.00 14380 N 0 0 0
0:00:00.00 14834 N 0 0 0
0:00:00.00 15268 N 0 0 0
0:00:00.00 15707 N 0 0 0
0:00:00.00 16142 N 0 0 0
0:00:00.00 16574 N 0 0 0
0:00:00.00 17015 N 0 0 0
0:00:00.00 17444 N 0 0 0
0:00:00.00 17883 N 0 0 0
0:00:00.00 18338 N 0 0 0
0:00:00.00 18767 N 0 0 0
0:00:00.00 19217 N 0 0 0
0:00:00.00 19660 N 0 0 0
0:00:00.00 20099 N 0 0 0
0:00:00.00 20534 N 0 0 0
0:00:00.00 20975 N 0 0 0
0:00:00.00 21411 N 0 0 0
0:00:00.00 21848 N 0 0 0
0:00:00.00 22289 N 0 0 0
0:00:00.00 22727 N 0 0 0
0:00:00.00 23162 N 0 0 0
0:00:00.00 23607 N 0 0 0
0:00:00.00 24039 N 0 0 0
0:00:00.00 24478 N 0 0 0
0:00:00.00 24896 N 0 0 0
0:00:00.00 25326 N 0 0 0
0:00:00.00 25745 N 0 0 0
0:00:00.00 26165 N 0 0 0
0:00:00.00 26604 N 0 0 0
0:00:00.00 27029 N 0 0 0
0:00:00.00 27461 N 0 0 0
0:00:00.00 27887 N 0 0 0
0:00:00.00 28330 N 0 0 0
0:00:00.00 28769 N 0 0 0
0:00:00.00 29196 N 0 0 0
0:00:00.00 29639 N 0 0 0
0:00:00.00 30042 N 0 0 0
0:00:00.00 30479 N 0 0 0
0:00:00.00 30899 N 0 0 0
0:00:00.00 31338 N 0 0 0
0:00:00.00 31777 N 0 0 0
0:00:00.00 32222 N 0 0 0
0:00:00.00 32675 N 0 0 0
0:00:00.00 33109 N 0 0 0
0:00:00.00 33554 N 0 0 0
0:00:00.00 33997 N 0 0 0
0:00:00.00 34441 N 0 0 0
0:00:00.00 34873 N 0 0 0
0:00:00.00 35321 N 0 0 0
0:00:00.00 35750 N 0 0 0
0:00:00.00 36178 N 0 0 0
0:00:00.00 36619 N 0 0 0
0:00:00.00 37058 N 0 0 0
0:00:00.00 37494 N 0 0 0
0:00:00.00 37935 N 0 0 0
0:00:00.00 38365 N 0 0 0
0:00:00.00 38794 N 0 0 0
0:00:00.00 39213 N 0 0 0
0:00:00.00 39652 N 0 0 0
0:00:00.00 40075 N 0 0 0
0:00:00.00 40509 N 0 0 0
0:00:00.00 40948 N 0 0 0
0:00:00.00 41382 N 0 0 0
0:00:00.00 41819 N 0 0 0
0:00:00.00 42244 N 0 0 0
0:00:00.00 42683 N 0 0 0
0:00:00.00 43108 N 0 0 0
0:00:00.00 43535 N 0 0 0
0:00:00.00 43960 N 0 0 0
0:00:00.00 44375 N 0 0 0
0:00:00.00 44802 N 0 0 0
0:00:00.00 45221 N 0 0 0
0:00:00.00 45653 N 0 0 0
0:00:00.00 46084 N 0 0 0
0:00:00.00 46514 N 0 0 0
0:00:00.00 46960 N 0 0 0
0:00:00.00 47389 N 0 0 0
0:00:00.00 47817 N 0 0 0
0:00:00.00 48253 N 0 0 0
0:00:00.00 48681 N 0 0 0
0:00:00.00 49126 N 0 0 0
0:00:00.00 49561 N 0 0 0
0:00:00.00 49999 N 0 0 0
0:00:00.00 50429 N 0 0 0
0:00:00.00 50855 N 0 0 0
0:00:00.00 51291 N 0 0 0
0:00:00.00 51710 N 0 0 0
0:00:00.00 52142 N 0 0 0
0:00:00.00 52567 N 0 0 0
0:00:00.00 52978 N 0 0 0
0:00:00.00 53408 N 0 0 0
0:00:00.00 53831 N 0 0 0
0:00:00.00 54261 N 0 0 0
0:00:00.00 54688 N 0 0 0
0:00:00.00 55114 N 0 0 0
0:00:00.00 55550 N 0 0 0
0:00:00.00 55976 N 0 0 0
0:00:00.00 56396 N 0 0 0
0:00:00.00 56817 N 0 0 0
0:00:00.00 57235 N 0 0 0
0:00:00.00 57652 N 0 0 0
0:00:00.00 58093 N 0 0 0
0:00:00.00 58529 N 0 0 0
0:00:00.00 58991 N 0 0 0
0:00:00.00 59436 N 0 0 0
0:00:00.00 59888 N 0 0 0
0:00:00.00 60331 N 0 0 0
0:00:00.00 60777 N 0 0 0
0:00:00.00 61231 N 0 0 0
0:00:00.00 61672 N 0 0 0
0:00:00.00 62123 N 0 0 0
0:00:00.00 62557 N 0 0 0
0:00:00.00 63004 N 0 0 0
0:00:00.00 63425 N 0 0 0
0:00:00.00 63860 N 0 0 0
0:00:00.00 64291 N 0 0 0
0:00:00.00 64708 N 0 0 0
0:00:00.00 65129 N 0 0 0
0:00:00.00 65556 N 0 0 0
0:00:00.00 65966 N 0 0 0
0:00:00.00 66389 N 0 0 0
0:00:00.00 66812 N 0 0 0
0:00:00.00 67241 N 0 0 0
0:00:00.00 67658 N 0 0 0
0:00:00.00 68085 N 0 0 0
0:00:00.00 68519 N 0 0 0
0:00:00.00 68929 N 0 0 0
0:00:00.00 69358 N 0 0 0
0:00:00.00 69784 N 0 0 0
0:00:00.00 70209 N 0 0 0
0:00:00.00 70646 N 0 0 0
0:00:00.00 71066 N 0 0 0
0:00:00.00 71501 N 0 0 0
0:00:00.00 71917 N 0 0 0
0:00:00.00 72351 N 0 0 0
0:00:00.00 72783 N 0 0 0
0:00:00.00 73206 N 0 0 0
0:00:00.00 73643 N 0 0 0
0:00:00.00 74072 N 0 0 0
0:00:00.00 74507 N 0 0 0
0:00:00.00 74943 N 0 0 0
0:00:00.00 75368 N 0 0 0
0:00:00.00 75791 N 0 0 0
0:00:00.00 76208 N 0 0 0
0:00:00.00 76628 N 0 0 0
0:00:00.00 77058 N 0 0 0
0:00:00.00 77467 N 0 0 0
0:00:00.00 77888 N 0 0 0
0:00:00.00 78309 N 0 0 0
0:00:00.00 78716 N 0 0 0
0:00:00.00 79135 N 0 0 0
0:00:00.00 79542 N 0 0 0
0:00:00.00 79960 N 0 0 0
0:00:00.00 80372 N 0 0 0
0:00:00.00 80788 N 0 0 0
0:00:00.00 81216 N 0 0 0
0:00:00.00 81634 N 0 0 0
0:00:00.00 82064 N 0 0 0
0:00:00.00 82485 N 0 0 0
0:00:00.00 82919 N 0 0 0
0:00:00.00 83340 N 0 0 0
0:00:00.00 83768 N 0 0 0
0:00:00.00 84195 N 0 0 0
0:00:00.00 84616 N 0 0 0
0:00:00.00 85034 N 0 0 0
0:00:00.00 85459 N 0 0 0
0:00:00.00 85871 N 0 0 0
0:00:00.00 86296 N 0 0 0
0:00:00.00 86713 N 0 0 0
0:00:00.00 87147 N 0 0 0
0:00:00.00 87583 N 0 0 0
0:00:00.00 88013 N 0 0 0
0:00:00.00 88457 N 0 0 0
0:00:00.00 88882 N 0 0 0
0:00:00.00 89325 N 0 0 0
0:00:00.00 89757 N 0 0 0
0:00:00.00 90184 N 0 0 0
0:00:00.00 90628 N 0 0 0
0:00:00.00 91055 N 0 0 0
0:00:00.00 91496 N 0 0 0
0:00:00.00 91924 N 0 0 0
0:00:00.00 92371 N 0 0 0
0:00:00.00 92808 N 0 0 0
0:00:00.00 93254 N 0 0 0
0:00:00.00 93688 N 0 0 0
0:00:00.00 94133 N 0 0 0
0:00:00.00 94563 N 0 0 0
0:00:00.00 94991 N 0 0 0
0:00:00.00 95429 N 0 0 0
0:00:00.00 95843 N 0 0 0
0:00:00.00 96273 N 0 0 0
0:00:00.00 96696 N 0 0 0
0:00:00.00 97121 N 0 0 0
0:00:00.00 97549 N 0 0 0
0:00:00.00 97967 N 0 0 0
0:00:00.00 98392 N 0 0 0
0:00:00.00 98809 N 0 0 0
0:00:00.00 99229 N 0 0 0
0:00:00.00 99659 N 0 0 0
0:00:00.00 100093 N 0 0 0
0:00:00.00 100526 N 0 0 0
0:00:00.00 100971 N 0 0 0
0:00:00.00 101407 N 0 0 0
0:00:00.00 101851 N 0 0 0
0:00:00.00 102271 N 0 0 0
0:00:00.00 102699 N 0 0 0
0:00:00.00 103127 N 0 0 0
0:00:00.00 103545 N 0 0 0
0:00:00.00 103975 N 0 0 0
0:00:00.00 104393 N 0 0 0
0:00:00.00 104823 N 0 0 0
0:00:00.00 105259 N 0 0 0
0:00:00.00 105689 N 0 0 0
0:00:00.00 106123 N 0 0 0
0:00:00.00 106546 N 0 0 0
0:00:00.00 106979 N 0 0 0
0:00:00.00 107406 N 0 0 0
0:00:00.00 107829 N 0 0 0
0:00:00.00 108256 N 0 0 0
0:00:00.00 108686 N 0 0 0
0:00:00.00 109107 N 0 0 0
0:00:00.00 109544 N 0 0 0
0:00:00.00 109964 N 0 0 0
0:00:00.00 110396 N 0 0 0
0:00:00.00 110812 N 0 0 0
0:00:00.00 111238 N 0 0 0
0:00:00.00 111663 N 0 0 0
0:00:00.00 112077 N 0 0 0
0:00:00.00 112504 N 0 0 0
0:00:00.00 112921 N 0 0 0
0:00:00.00 113342 N 0 0 0
0:00:00.00 113765 N 0 0 0
0:00:00.00 114188 N 0 0 0
0:00:00.00 114626 N 0 0 0
0:00:00.00 115043 N 0 0 0
0:00:00.00 115468 N 0 0 0
0:00:00.00 115888 N 0 0 0
0:00:00.00 116300 N 0 0 0
0:00:00.00 116717 N 0 0 0
0:00:00.00 117146 N 0 0 0
0:00:00.00 117560 N 0 0 0
0:00:00.00 117983 N 0 0 0
0:00:00.00 118402 N 0 0 0
0:00:00.00 118827 N 0 0 0
0:00:00.00 119248 N 0 0 0
0:00:00.00 119669 N 0 0 0
0:00:00.00 120098 N 0 0 0
0:00:00.00 120514 N 0 0 0
0:00:00.00 120942 N 0 0 0
0:00:00.00 121349 N 0 0 0
0:00:00.00 121765 N 0 0 0
0:00:00.00 122180 N 0 0 0
0:00:00.00 122591 N 0 0 0
0:00:00.00 123017 N 0 0 0
0:00:00.00 123433 N 0 0 0
0:00:00.00 123865 N 0 0 0
0:00:00.00 124286 N 0 0 0
0:00:00.00 124702 N 0 0 0
0:00:00.00 125123 N 0 0 0
0:00:00.00 125543 N 0 0 0
0:00:00.00 125962 N 0 0 0
0:00:00.00 126389 N 0 0 0
0:00:00.00 126812 N 0 0 0
0:00:00.00 127235 N 0 0 0
0:00:00.00 127654 N 0 0 0
0:00:00.00 128066 N 0 0 0
0:00:00.00 128493 N 0 0 0
0:00:00.00 128902 N 0 0 0
0:00:00.00 129319 N 0 0 0
0:00:00.00 129731 N 0 0 0
0:00:00.00 130140 N 0 0 0
0:00:00.00 130563 N 0 0 0
0:00:00.00 130981 N 0 0 0
0:00:00.00 131413 N 0 0 0
0:00:00.00 131843 N 0 0 0
0:00:00.00 132266 N 0 0 0
0:00:00.00 132694 N 0 0 0
0:00:00.00 133103 N 0 0 0
0:00:00.00 133524 N 0 0 0
0:00:00.00 133931 N 0 0 0
0:00:00.00 134348 N 0 0 0
0:00:00.00 134773 N 0 0 0
0:00:00.00 135194 N 0 0 0
0:00:00.00 135630 N 0 0 0
0:00:00.00 136057 N 0 0 0
0:00:00.00 136494 N 0 0 0
0:00:00.00 136933 N 0 0 0
0:00:00.00 137349 N 0 0 0
0:00:00.00 137779 N 0 0 0
0:00:00.00 138222 N 0 0 0
0:00:00.00 138650 N 0 0 0
0:00:00.00 139095 N 0 0 0
0:00:00.00 139520 N 0 0 0
0:00:00.00 139959 N 0 0 0
0:00:00.00 140400 N 0 0 0
0:00:00.00 140823 N 0 0 0
0:00:00.00 141269 N 0 0 0
0:00:00.00 141698 N 0 0 0
0:00:00.00 142130 N 0 0 0
0:00:00.00 142546 N 0 0 0
0:00:00.00 142967 N 0 0 0
0:00:00.00 143392 N 0 0 0
0:00:00.00 143807 N 0 0 0
0:00:00.00 144236 N 0 0 0
0:00:00.00 144662 N 0 0 0
0:00:00.00 145103 N 0 0 0
0:00:00.00 145539 N 0 0 0
0:00:00.00 145987 N 0 0 0
0:00:00.00 146426 N 0 0 0
0:00:00.00 146858 N 0 0 0
0:00:00.00 147294 N 0 0 0
0:00:00.00 147730 N 0 0 0
0:00:00.00 148149 N 0 0 0
0:00:00.00 148572 N 0 0 0
0:00:00.00 148993 N 0 0 0
0:00:00.00 149427 N 0 0 0
0:00:00.00 149866 N 0 0 0
0:00:00.00 150295 N 0 0 0
0:00:00.00 150746 N 0 0 0
0:00:00.00 151171 N 0 0 0
0:00:00.00 151616 N 0 0 0
0:00:00.00 152046 N 0 0 0
0:00:00.00 152480 N 0 0 0
0:00:00.00 152919 N 0 0 0
0:00:00.00 153347 N 0 0 0
0:00:00.00 153781 N 0 0 0
0:00:00.00 154224 N 0 0 0
0:00:00.00 154651 N 0 0 0
0:00:00.00 155079 N 0 0 0
0:00:00.00 155502 N 0 0 0
0:00:00.00 155925 N 0 0 0
0:00:00.00 156355 N 0 0 0
0:00:00.00 156767 N 0 0 0
0:00:00.00 157201 N 0 0 0
0:00:00.00 157619 N 0 0 0
0:00:00.00 158049 N 0 0 0
0:00:00.00 158485 N 0 0 0
0:00:00.00 158902 N 0 0 0
0:00:00.00 159334 N 0 0 0
0:00:00.00 159754 N 0 0 0
0:00:00.00 160189 N 0 0 0
0:00:00.00 160614 N 0 0 0
0:00:00.00 161044 N 0 0 0
0:00:00.00 161469 N 0 0 0
0:00:00.00 161881 N 0 0 0
0:00:00.00 162306 N 0 0 0
0:00:00.00 162725 N 0 0 0
0:00:00.00 163148 N 0 0 0
0:00:00.00 163571 N 0 0 0
0:00:00.00 163993 N 0 0 0
0:00:00.00 164412 N 0 0 0
0:00:00.00 164828 N 0 0 0
0:00:00.00 165238 N 0 0 0
0:00:00.00 165670 N 0 0 0
0:00:00.00 166086 N 0 0 0
0:00:00.00 166518 N 0 0 0
0:00:00.00 166948 N 0 0 0
0:00:00.00 167380 N 0 0 0
0:00:00.00 167807 N 0 0 0
0:00:00.00 168235 N 0 0 0
0:00:00.00 168669 N 0 0 0
0:00:00.00 169081 N 0 0 0
0:00:00.00 169502 N 0 0 0
0:00:00.00 169918 N 0 0 0
0:00:00.00 170332 N 0 0 0
0:00:00.00 170757 N 0 0 0
0:00:00.00 171178 N 0 0 0
0:00:00.00 171612 N 0 0 0
0:00:00.00 172026 N 0 0 0
0:00:00.00 172463 N 0 0 0
0:00:00.00 172885 N 0 0 0
0:00:00.00 173297 N 0 0 0
0:00:00.00 173718 N 0 0 0
0:00:00.00 174141 N 0 0 0
0:00:00.00 174577 N 0 0 0
0:00:00.00 175003 N 0 0 0
0:00:00.00 175444 N 0 0 0
0:00:00.00 175876 N 0 0 0
0:00:00.00 176294 N 0 0 0
0:00:00.00 176713 N 0 0 0
0:00:00.00 177125 N 0 0 0
0:00:00.00 177541 N 0 0 0
0:00:00.00 177953 N 0 0 0
0:00:00.00 178369 N 0 0 0
0:00:00.00 178789 N 0 0 0
0:00:00.00 179213 N 0 0 0
0:00:00.00 179644 N 0 0 0
0:00:00.00 180076 N 0 0 0
0:00:00.00 180504 N 0 0 0
0:00:00.00 180927 N 0 0 0
0:00:00.00 181370 N 0 0 0
0:00:00.00 181802 N 0 0 0
0:00:00.00 182245 N 0 0 0
0:00:00.00 182684 N 0 0 0
0:00:00.00 183132 N 0 0 0
0:00:00.00 183577 N 0 0 0
0:00:00.00 184018 N 0 0 0
0:00:00.00 184460 N 0 0 0
0:00:00.00 184887 N 0 0 0
0:00:00.00 185323 N 0 0 0
0:00:00.00 185751 N 0 0 0
0:00:00.00 186187 N 0 0 0
0:00:00.00 186613 N 0 0 0
0:00:00.00 187045 N 0 0 0
0:00:00.00 187470 N 0 0 0
0:00:00.00 187888 N 0 0 0
0:00:00.00 188311 N 0 0 0
0:00:00.00 188737 N 0 0 0
0:00:00.00 189142 N 0 0 0
0:00:00.00 189563 N 0 0 0
0:00:00.00 189967 N 0 0 0
0:00:00.00 190382 N 0 0 0
0:00:00.00 190793 N 0 0 0
0:00:00.00 191205 N 0 0 0
0:00:00.00 191628 N 0 0 0
0:00:00.00 192038 N 0 0 0
0:00:00.00 192465 N 0 0 0
0:00:00.00 192890 N 0 0 0
0:00:00.00 193302 N 0 0 0
0:00:00.00 193729 N 0 0 0
0:00:00.00 194150 N 0 0 0
0:00:00.00 194578 N 0 0 0
0:00:00.00 194994 N 0 0 0
0:00:00.00 195431 N 0 0 0
0:00:00.00 195856 N 0 0 0
0:00:00.00 196265 N 0 0 0
0:00:00.00 196691 N 0 0 0
0:00:00.00 197114 N 0 0 0
0:00:00.00 197548 N 0 0 0
0:00:00.00 197973 N 0 0 0
0:00:00.00 198412 N 0 0 0
0:00:00.00 198835 N 0 0 0
0:00:00.00 199269 N 0 0 0
0:00:00.00 199703 N 0 0 0
0:00:00.00 200133 N 0 0 0
0:00:00.00 200563 N 0 0 0
0:00:00.00 200995 N 0 0 0
0:00:00.00 201431 N 0 0 0
0:00:00.00 201861 N 0 0 0
0:00:00.00 202286 N 0 0 0
0:00:00.00 202714 N 0 0 0
0:00:00.00 203139 N 0 0 0
0:00:00.00 203562 N 0 0 0
0:00:00.00 203985 N 0 0 0
0:00:00.00 204406 N 0 0 0
0:00:00.00 204820 N 0 0 0
0:00:00.00 205241 N 0 0 0
0:00:00.00 205659 N 0 0 0
0:00:00.00 206068 N 0 0 0
0:00:00.00 206482 N 0 0 0
0:00:00.00 206903 N 0 0 0
0:00:00.00 207319 N 0 0 0
0:00:00.00 207742 N 0 0 0
0:00:00.00 208157 N 0 0 0
0:00:00.00 208597 N 0 0 0
0:00:00.00 209018 N 0 0 0
0:00:00.00 209453 N 0 0 0
0:00:00.00 209893 N 0 0 0
0:00:00.00 210325 N 0 0 0
0:00:00.00 210760 N 0 0 0
0:00:00.00 211183 N 0 0 0
0:00:00.00 211615 N 0 0 0
0:00:00.00 212044 N 0 0 0
0:00:00.00 212481 N 0 0 0
0:00:00.00 212926 N 0 0 0
0:00:00.00 213350 N 0 0 0
0:00:00.00 213791 N 0 0 0
0:00:00.00 214225 N 0 0 0
0:00:00.00 214672 N 0 0 0
0:00:00.00 215105 N 0 0 0
0:00:00.00 215541 N 0 0 0
0:00:00.00 215971 N 0 0 0
0:00:00.00 216391 N 0 0 0
0:00:00.00 216819 N 0 0 0
0:00:00.00 217246 N 0 0 0
0:00:00.00 217669 N 0 0 0
0:00:00.00 218104 N 0 0 0
0:00:00.00 218529 N 0 0 0
0:00:00.00 218959 N 0 0 0
0:00:00.00 219384 N 0 0 0
0:00:00.00 219816 N 0 0 0
0:00:00.00 220250 N 0 0 0
0:00:00.00 220667 N 0 0 0
0:00:00.00 221098 N 0 0 0
0:00:00.00 221519 N 0 0 0
0:00:00.00 221942 N 0 0 0
0:00:00.00 222367 N 0 0 0
0:00:00.00 222793 N 0 0 0
0:00:00.00 223229 N 0 0 0
0:00:00.00 223643 N 0 0 0
0:00:00.00 224082 N 0 0 0
0:00:00.00 224501 N 0 0 0
0:00:00.00 224921 N 0 0 0
0:00:00.00 225351 N 0 0 0
0:00:00.00 225781 N 0 0 0
0:00:00.00 226217 N 0 0 0
0:00:00.00 226638 N 0 0 0
0:00:00.00 227075 N 0 0 0
0:00:00.00 227516 N 0 0 0
0:00:00.00 227936 N 0 0 0
0:00:00.00 228362 N 0 0 0
0:00:00.00 228793 N 0 0 0
0:00:00.00 229214 N 0 0 0
0:00:00.00 229646 N 0 0 0
0:00:00.00 230076 N 0 0 0
0:00:00.00 230508 N 0 0 0
0:00:00.00 230944 N 0 0 0
0:00:00.00 231363 N 0 0 0
0:00:00.00 231782 N 0 0 0
0:00:00.00 232171 N 0 0 0
0:00:00.00 232576 N 0 0 0
0:00:00.00 232967 N 0 0 0
0:00:00.00 233361 N 0 0 0
0:00:00.00 233762 N 0 0 0
0:00:00.00 234160 N 0 0 0
0:00:00.00 234574 N 0 0 0
0:00:00.00 234974 N 0 0 0
0:00:00.00 235399 N 0 0 0
0:00:00.00 235822 N 0 0 0
0:00:00.00 236245 N 0 0 0
0:00:00.00 236671 N 0 0 0
0:00:00.00 237094 N 0 0 0
0:00:00.00 237523 N 0 0 0
0:00:00.00 237942 N 0 0 0
0:00:00.00 238378 N 0 0 0
0:00:00.00 238801 N 0 0 0
0:00:00.00 239225 N 0 0 0
0:00:00.00 239650 N 0 0 0
0:00:00.00 240077 N 0 0 0
0:00:00.00 240502 N 0 0 0
0:00:00.00 240916 N 0 0 0
0:00:00.00 241342 N 0 0 0
0:00:00.00 241751 N 0 0 0
0:00:00.00 242176 N 0 0 0
0:00:00.00 242591 N 0 0 0
0:00:00.00 243032 N 0 0 0
0:00:00.00 243457 N 0 0 0
0:00:00.00 243893 N 0 0 0
0:00:00.00 244332 N 0 0 0
0:00:00.00 244750 N 0 0 0
0:00:00.00 245185 N 0 0 0
0:00:00.00 245617 N 0 0 0
0:00:00.00 246044 N 0 0 0
0:00:00.00 246470 N 0 0 0
0:00:00.00 246897 N 0 0 0
0:00:00.00 247333 N 0 0 0
0:00:00.00 247752 N 0 0 0
0:00:00.00 248184 N 0 0 0
0:00:00.00 248612 N 0 0 0
0:00:00.00 249039 N 0 0 0
0:00:00.00 249466 N 0 0 0
0:00:00.00 249892 N 0 0 0
0:00:00.00 250322 N 0 0 0
0:00:00.00 250745 N 0 0 0
0:00:00.00 251170 N 0 0 0
0:00:00.00 251604 N 0 0 0
0:00:00.00 252027 N 0 0 0
0:00:00.00 252466 N 0 0 0
0:00:00.00 252891 N 0 0 0
0:00:00.00 253328 N 0 0 0
0:00:00.00 253746 N 0 0 0
0:00:00.00 254173 N 0 0 0
0:00:00.00 254590 N 0 0 0
0:00:00.00 255006 N 0 0 0
0:00:00.00 255436 N 0 0 0
0:00:00.00 255848 N 0 0 0
0:00:00.00 256268 N 0 0 0
0:00:00.00 256678 N 0 0 0
0:00:00.00 257083 N 0 0 0
0:00:00.00 257486 N 0 0 0
0:00:00.00 257872 N 0 0 0
0:00:00.00 258251 N 0 0 0
0:00:00.00 258622 N 0 0 0
0:00:00.00 258979 N 0 0 0
0:00:00.00 259335 N 0 0 0
0:00:00.00 259677 N 0 0 0
0:00:00.00 260017 N 0 0 0
0:00:00.00 260352 N 0 0 0
0:00:00.00 260683 N 0 0 0
0:00:00.00 261016 N 0 0 0
0:00:00.00 261322 N 0 0 0
0:00:00.00 261535 N 0 0 0
0:00:00.00 261891 N 0 0 0
0:00:00.00 262233 N 0 0 0
0:00:00.00 262571 N 0 0 0
0:00:00.00 262917 N 0 0 0
0:00:00.00 263261 N 0 0 0
0:00:00.00 263608 N 0 0 0
0:00:00.00 263965 N 0 0 0
0:00:00.00 264326 N 0 0 0
0:00:00.00 264690 N 0 0 0
0:00:00.00 265068 N 0 0 0
0:00:00.00 265457 N 0 0 0
0:00:00.00 265856 N 0 0 0
0:00:00.00 266267 N 0 0 0
0:00:00.00 266681 N 0 0 0
0:00:00.00 267116 N 0 0 0
0:00:00.00 267545 N 0 0 0
0:00:00.00 267980 N 0 0 0
0:00:00.00 268407 N 0 0 0
0:00:00.00 268843 N 0 0 0
0:00:00.00 269258 N 0 0 0
0:00:00.00 269689 N 0 0 0
0:00:00.00 270117 N 0 0 0
0:00:00.00 270535 N 0 0 0
0:00:00.00 270945 N 0 0 0
0:00:00.00 271339 N 0 0 0
0:00:00.00 271744 N 0 0 0
0:00:00.00 272110 N 0 0 0
0:00:00.00 272489 N 0 0 0
0:00:00.00 272866 N 0 0 0
0:00:00.00 273231 N 0 0 0
0:00:00.00 273614 N 0 0 0
0:00:00.00 273992 N 0 0 0
0:00:00.00 274388 N 0 0 0
0:00:00.00 274799 N 0 0 0
0:00:00.00 275213 N 0 0 0
0:00:00.00 275650 N 0 0 0
0:00:00.00 276079 N 0 0 0
0:00:00.00 276520 N 0 0 0
0:00:00.00 276952 N 0 0 0
0:00:00.00 277403 N 0 0 0
0:00:00.00 277830 N 0 0 0
0:00:00.00 278284 N 0 0 0
0:00:00.00 278714 N 0 0 0
0:00:00.00 279164 N 0 0 0
0:00:00.00 279596 N 0 0 0
0:00:00.00 280042 N 0 0 0
0:00:00.00 280476 N 0 0 0
0:00:00.00 280913 N 0 0 0
0:00:00.00 281354 N 0 0 0
0:00:00.00 281794 N 0 0 0
0:00:00.00 282235 N 0 0 0
0:00:00.00 282672 N 0 0 0
0:00:00.00 283118 N 0 0 0
0:00:00.00 283549 N 0 0 0
0:00:00.00 283991 N 0 0 0
0:00:00.00 284425 N 0 0 0
0:00:00.00 284861 N 0 0 0
0:00:00.00 285289 N 0 0 0
0:00:00.00 285718 N 0 0 0
0:00:00.00 286148 N 0 0 0
0:00:00.00 286556 N 0 0 0
0:00:00.00 286979 N 0 0 0
0:00:00.00 287386 N 0 0 0
0:00:00.00 287797 N 0 0 0
0:00:00.00 288205 N 0 0 0
0:00:00.00 288616 N 0 0 0
0:00:00.00 289037 N 0 0 0
0:00:00.00 289445 N 0 0 0
0:00:00.00 289876 N 0 0 0
0:00:00.00 290293 N 0 0 0
0:00:00.00 290729 N 0 0 0
0:00:00.00 291148 N 0 0 0
0:00:00.00 291578 N 0 0 0
0:00:00.00 292000 N 0 0 0
0:00:00.00 292433 N 0 0 0
0:00:00.00 292871 N 0 0 0
0:00:00.00 293299 N 0 0 0
0:00:00.00 293738 N 0 0 0
0:00:00.00 294158 N 0 0 0
0:00:00.00 294601 N 0 0 0
0:00:00.00 295020 N 0 0 0
0:00:00.00 295465 N 0 0 0
0:00:00.00 295895 N 0 0 0
0:00:00.00 296339 N 0 0 0
0:00:00.00 296768 N 0 0 0
0:00:00.00 297193 N 0 0 0
0:00:00.00 297625 N 0 0 0
0:00:00.00 298037 N 0 0 0
0:00:00.00 298463 N 0 0 0
0:00:00.00 298894 N 0 0 0
0:00:00.00 299311 N 0 0 0
0:00:00.00 299738 N 0 0 0
0:00:00.00 300157 N 0 0 0
0:00:00.00 300589 N 0 0 0
0:00:00.00 301012 N 0 0 0
0:00:00.00 301437 N 0 0 0
0:00:00.00 301860 N 0 0 0
0:00:00.00 302274 N 0 0 0
0:00:00.00 302692 N 0 0 0
0:00:00.00 303107 N 0 0 0
0:00:00.00 303523 N 0 0 0
0:00:00.00 303941 N 0 0 0
0:00:00.00 304357 N 0 0 0
0:00:00.00 304774 N 0 0 0
0:00:00.00 305186 N 0 0 0
0:00:00.00 305609 N 0 0 0
0:00:00.00 306029 N 0 0 0
0:00:00.00 306450 N 0 0 0
0:00:00.00 306873 N 0 0 0
0:00:00.00 307287 N 0 0 0
0:00:00.00 307706 N 0 0 0
0:00:00.00 308110 N 0 0 0
0:00:00.00 308525 N 0 0 0
0:00:00.00 308938 N 0 0 0
0:00:00.00 309371 N 0 0 0
0:00:00.00 309800 N 0 0 0
0:00:00.00 310232 N 0 0 0
0:00:00.00 310669 N 0 0 0
0:00:00.00 311089 N 0 0 0
0:00:00.00 311522 N 0 0 0
0:00:00.00 311945 N 0 0 0
0:00:00.00 312379 N 0 0 0
0:00:00.00 312813 N 0 0 0
0:00:00.00 313240 N 0 0 0
0:00:00.00 313677 N 0 0 0
0:00:00.00 314091 N 0 0 0
0:00:00.00 314530 N 0 0 0
0:00:00.00 314953 N 0 0 0
0:00:00.00 315382 N 0 0 0
0:00:00.00 315812 N 0 0 0
0:00:00.00 316228 N 0 0 0
0:00:00.00 316661 N 0 0 0
0:00:00.00 317088 N 0 0 0
0:00:00.00 317525 N 0 0 0
0:00:00.00 317954 N 0 0 0
0:00:00.00 318375 N 0 0 0
0:00:00.00 318802 N 0 0 0
0:00:00.00 319210 N 0 0 0
0:00:00.00 319628 N 0 0 0
0:00:00.00 320033 N 0 0 0
0:00:00.00 320452 N 0 0 0
0:00:00.00 320857 N 0 0 0
0:00:00.00 321286 N 0 0 0
0:00:00.00 321710 N 0 0 0
0:00:00.00 322126 N 0 0 0
0:00:00.00 322553 N 0 0 0
0:00:00.00 322985 N 0 0 0
0:00:00.00 323413 N 0 0 0
0:00:00.00 323845 N 0 0 0
0:00:00.00 324257 N 0 0 0
0:00:00.00 324679 N 0 0 0
0:00:00.00 325100 N 0 0 0
0:00:00.00 325523 N 0 0 0
0:00:00.00 325955 N 0 0 0
0:00:00.00 326369 N 0 0 0
0:00:00.00 326794 N 0 0 0
0:00:00.00 327208 N 0 0 0
0:00:00.00 327634 N 0 0 0
0:00:00.00 328063 N 0 0 0
0:00:00.00 328489 N 0 0 0
0:00:00.00 328909 N 0 0 0
0:00:00.00 329339 N 0 0 0
0:00:00.00 329778 N 0 0 0
0:00:00.00 330192 N 0 0 0
0:00:00.00 330620 N 0 0 0
0:00:00.00 331033 N 0 0 0
0:00:00.00 331459 N 0 0 0
0:00:00.00 331880 N 0 0 0
0:00:00.00 332294 N 0 0 0
0:00:00.00 332721 N 0 0 0
0:00:00.00 333131 N 0 0 0
0:00:00.00 333554 N 0 0 0
0:00:00.00 333967 N 0 0 0
0:00:00.00 334391 N 0 0 0
0:00:00.00 334816 N 0 0 0
0:00:00.00 335232 N 0 0 0
0:00:00.00 335662 N 0 0 0
0:00:00.00 336078 N 0 0 0
0:00:00.00 336499 N 0 0 0
0:00:00.00 336922 N 0 0 0
0:00:00.00 337331 N 0 0 0
0:00:00.00 337754 N 0 0 0
0:00:00.00 338168 N 0 0 0
0:00:00.00 338596 N 0 0 0
0:00:00.00 339016 N 0 0 0
0:00:00.00 339442 N 0 0 0
0:00:00.00 339878 N 0 0 0
0:00:00.00 340308 N 0 0 0
0:00:00.00 340745 N 0 0 0
0:00:00.00 341176 N 0 0 0
0:00:00.00 341609 N 0 0 0
0:00:00.00 342045 N 0 0 0
0:00:00.00 342477 N 0 0 0
0:00:00.00 342920 N 0 0 0
0:00:00.00 343343 N 0 0 0
0:00:00.00 343775 N 0 0 0
0:00:00.00 344200 N 0 0 0
0:00:00.00 344630 N 0 0 0
0:00:00.00 345053 N 0 0 0
0:00:00.00 345470 N 0 0 0
0:00:00.00 345893 N 0 0 0
0:00:00.00 346302 N 0 0 0
0:00:00.00 346727 N 0 0 0
0:00:00.00 347157 N 0 0 0
0:00:00.00 347571 N 0 0 0
0:00:00.00 348007 N 0 0 0
0:00:00.00 348421 N 0 0 0
0:00:00.00 348853 N 0 0 0
0:00:00.00 349270 N 0 0 0
0:00:00.00 349693 N 0 0 0
0:00:00.00 350113 N 0 0 0
0:00:00.00 350527 N 0 0 0
0:00:00.00 350957 N 0 0 0
0:00:00.00 351369 N 0 0 0
0:00:00.00 351801 N 0 0 0
0:00:00.00 352224 N 0 0 0
0:00:00.00 352647 N 0 0 0
0:00:00.00 353075 N 0 0 0
0:00:00.00 353486 N 0 0 0
0:00:00.00 353916 N 0 0 0
0:00:00.00 354330 N 0 0 0
0:00:00.00 354755 N 0 0 0
0:00:00.00 355178 N 0 0 0
0:00:00.00 355603 N 0 0 0
0:00:00.00 356029 N 0 0 0
0:00:00.00 356443 N 0 0 0
0:00:00.00 356872 N 0 0 0
0:00:00.00 357295 N 0 0 0
0:00:00.00 357710 N 0 0 0
0:00:00.00 358139 N 0 0 0
0:00:00.00 358556 N 0 0 0
0:00:00.00 358983 N 0 0 0
0:00:00.00 359411 N 0 0 0
0:00:00.00 359843 N 0 0 0
0:00:00.00 360272 N 0 0 0
0:00:00.00 360693 N 0 0 0
0:00:00.00 361132 N 0 0 0
0:00:00.00 361546 N 0 0 0
0:00:00.00 361967 N 0 0 0
0:00:00.00 362378 N 0 0 0
0:00:00.00 362803 N 0 0 0
0:00:00.00 363227 N 0 0 0
0:00:00.00 363649 N 0 0 0
0:00:00.00 364079 N 0 0 0
0:00:00.00 364464 N 0 0 0
0:00:00.00 364846 N 0 0 0
0:00:00.00 365218 N 0 0 0
0:00:00.00 365587 N 0 0 0
0:00:00.00 365958 N 0 0 0
0:00:00.00 366327 N 0 0 0
0:00:00.00 366698 N 0 0 0
0:00:00.00 367079 N 0 0 0
0:00:00.00 367468 N 0 0 0
0:00:00.00 367873 N 0 0 0
0:00:00.00 368309 N 0 0 0
0:00:00.00 368750 N 0 0 0
0:00:00.00 369200 N 0 0 0
0:00:00.00 369661 N 0 0 0
0:00:00.00 370100 N 0 0 0
0:00:00.00 370537 N 0 0 0
0:00:00.00 370976 N 0 0 0
0:00:00.00 371439 N 0 0 0
0:00:00.00 371875 N 0 0 0
0:00:00.00 372323 N 0 0 0
0:00:00.00 372760 N 0 0 0
0:00:00.00 373207 N 0 0 0
0:00:00.00 373642 N 0 0 0
0:00:00.00 374087 N 0 0 0
0:00:00.00 374531 N 0 0 0
0:00:00.00 374960 N 0 0 0
0:00:00.00 375397 N 0 0 0
0:00:00.00 375813 N 0 0 0
0:00:00.00 376234 N 0 0 0
0:00:00.00 376646 N 0 0 0
0:00:00.00 377064 N 0 0 0
0:00:00.00 377480 N 0 0 0
0:00:00.00 377878 N 0 0 0
0:00:00.00 378315 N 0 0 0
0:00:00.00 378738 N 0 0 0
0:00:00.00 379168 N 0 0 0
0:00:00.00 379611 N 0 0 0
0:00:00.00 380032 N 0 0 0
0:00:00.00 380471 N 0 0 0
0:00:00.00 380900 N 0 0 0
0:00:00.00 381348 N 0 0 0
0:00:00.00 381793 N 0 0 0
0:00:00.00 382225 N 0 0 0
0:00:00.00 382673 N 0 0 0
0:00:00.00 383121 N 0 0 0
0:00:00.00 383562 N 0 0 0
0:00:00.00 384019 N 0 0 0
0:00:00.00 384446 N 0 0 0
0:00:00.00 384883 N 0 0 0
0:00:00.00 385315 N 0 0 0
0:00:00.00 385767 N 0 0 0
0:00:00.00 386204 N 0 0 0
0:00:00.00 386656 N 0 0 0
0:00:00.00 387099 N 0 0 0
0:00:00.00 387540 N 0 0 0
0:00:00.00 387985 N 0 0 0
0:00:00.00 388422 N 0 0 0
0:00:00.00 388856 N 0 0 0
0:00:00.00 389290 N 0 0 0
0:00:00.00 389718 N 0 0 0
0:00:00.00 390155 N 0 0 0
0:00:00.00 390577 N 0 0 0
0:00:00.00 391012 N 0 0 0
0:00:00.00 391435 N 0 0 0
0:00:00.00 391867 N 0 0 0
0:00:00.00 392287 N 0 0 0
0:00:00.00 392711 N 0 0 0
0:00:00.00 393142 N 0 0 0
0:00:00.00 393554 N 0 0 0
0:00:00.00 393973 N 0 0 0
0:00:00.00 394394 N 0 0 0
0:00:00.00 394825 N 0 0 0
0:00:00.00 395246 N 0 0 0
0:00:00.00 395685 N 0 0 0
0:00:00.00 396110 N 0 0 0
0:00:00.00 396531 N 0 0 0
0:00:00.00 396958 N 0 0 0
0:00:00.00 397368 N 0 0 0
0:00:00.00 397784 N 0 0 0
0:00:00.00 398210 N 0 0 0
0:00:00.00 398630 N 0 0 0
0:00:00.00 399051 N 0 0 0
0:00:00.00 399458 N 0 0 0
0:00:00.00 399884 N 0 0 0
0:00:00.00 400315 N 0 0 0
0:00:00.00 400748 N 0 0 0
0:00:00.00 401195 N 0 0 0
0:00:00.00 401621 N 0 0 0
0:00:00.00 402061 N 0 0 0
0:00:00.00 402485 N 0 0 0
0:00:00.00 402932 N 0 0 0
0:00:00.00 403360 N 0 0 0
0:00:00.00 403808 N 0 0 0
0:00:00.00 404253 N 0 0 0
0:00:00.00 404687 N 0 0 0
0:00:00.00 405126 N 0 0 0
0:00:00.00 405551 N 0 0 0
0:00:00.00 405983 N 0 0 0
0:00:00.00 406400 N 0 0 0
0:00:00.00 406834 N 0 0 0
0:00:00.00 407259 N 0 0 0
0:00:00.00 407677 N 0 0 0
0:00:00.00 408101 N 0 0 0
0:00:00.00 408521 N 0 0 0
0:00:00.00 408944 N 0 0 0
0:00:00.00 409363 N 0 0 0
0:00:00.00 409790 N 0 0 0
0:00:00.00 410222 N 0 0 0
0:00:00.00 410638 N 0 0 0
0:00:00.00 411079 N 0 0 0
0:00:00.00 411509 N 0 0 0
0:00:00.00 411941 N 0 0 0
0:00:00.00 412373 N 0 0 0
0:00:00.00 412792 N 0 0 0
0:00:00.00 413221 N 0 0 0
0:00:00.00 413638 N 0 0 0
0:00:00.00 414058 N 0 0 0
0:00:00.00 414479 N 0 0 0
0:00:00.00 414886 N 0 0 0
0:00:00.00 415321 N 0 0 0
0:00:00.00 415739 N 0 0 0
0:00:00.00 416176 N 0 0 0
0:00:00.00 416597 N 0 0 0
0:00:00.00 417040 N 0 0 0
0:00:00.00 417479 N 0 0 0
0:00:00.00 417904 N 0 0 0
0:00:00.00 418347 N 0 0 0
0:00:00.00 418768 N 0 0 0
0:00:00.00 419198 N 0 0 0
0:00:00.00 419623 N 0 0 0
0:00:00.00 420052 N 0 0 0
0:00:00.00 420484 N 0 0 0
0:00:00.00 420898 N 0 0 0
0:00:00.00 421339 N 0 0 0
0:00:00.00 421754 N 0 0 0
0:00:00.00 422197 N 0 0 0
0:00:00.00 422627 N 0 0 0
0:00:00.00 423061 N 0 0 0
0:00:00.00 423488 N 0 0 0
0:00:00.00 423913 N 0 0 0
0:00:00.00 424339 N 0 0 0
0:00:00.00 424750 N 0 0 0
0:00:00.00 425171 N 0 0 0
0:00:00.00 425605 N 0 0 0
0:00:00.00 426022 N 0 0 0
0:00:00.00 426449 N 0 0 0
0:00:00.00 426868 N 0 0 0
0:00:00.00 427297 N 0 0 0
0:00:00.00 427712 N 0 0 0
0:00:00.00 428125 N 0 0 0
0:00:00.00 428549 N 0 0 0
0:00:00.00 428965 N 0 0 0
0:00:00.00 429381 N 0 0 0
0:00:00.00 429813 N 0 0 0
0:00:00.00 430227 N 0 0 0
0:00:00.00 430654 N 0 0 0
0:00:00.00 431064 N 0 0 0
0:00:00.00 431498 N 0 0 0
0:00:00.00 431924 N 0 0 0
0:00:00.00 432346 N 0 0 0
0:00:00.00 432785 N 0 0 0
0:00:00.00 433206 N 0 0 0
0:00:00.00 433643 N 0 0 0
0:00:00.00 434072 N 0 0 0
0:00:00.00 434511 N 0 0 0
0:00:00.00 434943 N 0 0 0
0:00:00.00 435375 N 0 0 0
0:00:00.00 435814 N 0 0 0
0:00:00.00 436230 N 0 0 0
0:00:00.00 436664 N 0 0 0
0:00:00.00 437085 N 0 0 0
0:00:00.00 437519 N 0 0 0
0:00:00.00 437940 N 0 0 0
0:00:00.00 438359 N 0 0 0
0:00:00.00 438782 N 0 0 0
0:00:00.00 439195 N 0 0 0
0:00:00.00 439616 N 0 0 0
0:00:00.00 440042 N 0 0 0
0:00:00.00 440464 N 0 0 0
0:00:00.00 440888 N 0 0 0
0:00:00.00 441301 N 0 0 0
0:00:00.00 441724 N 0 0 0
0:00:00.00 442139 N 0 0 0
0:00:00.00 442557 N 0 0 0
0:00:00.00 442989 N 0 0 0
0:00:00.00 443401 N 0 0 0
0:00:00.00 443835 N 0 0 0
0:00:00.00 444256 N 0 0 0
0:00:00.00 444694 N 0 0 0
0:00:00.00 445111 N 0 0 0
0:00:00.00 445541 N 0 0 0
0:00:00.00 445977 N 0 0 0
0:00:00.00 446409 N 0 0 0
0:00:00.00 446861 N 0 0 0
0:00:00.00 447287 N 0 0 0
0:00:00.00 447728 N 0 0 0
0:00:00.00 448150 N 0 0 0
0:00:00.00 448589 N 0 0 0
0:00:00.00 449019 N 0 0 0
0:00:00.00 449449 N 0 0 0
0:00:00.00 449881 N 0 0 0
0:00:00.00 450297 N 0 0 0
0:00:00.00 450727 N 0 0 0
0:00:00.00 451156 N 0 0 0
0:00:00.00 451593 N 0 0 0
0:00:00.00 452030 N 0 0 0
0:00:00.00 452461 N 0 0 0
0:00:00.00 452898 N 0 0 0
0:00:00.00 453321 N 0 0 0
0:00:00.00 453755 N 0 0 0
0:00:00.00 454196 N 0 0 0
0:00:00.00 454617 N 0 0 0
0:00:00.00 455044 N 0 0 0
0:00:00.00 455481 N 0 0 0
0:00:00.00 455913 N 0 0 0
0:00:00.00 456341 N 0 0 0
0:00:00.00 456779 N 0 0 0
0:00:00.00 457205 N 0 0 0
0:00:00.00 457634 N 0 0 0
0:00:00.00 458069 N 0 0 0
0:00:00.00 458483 N 0 0 0
0:00:00.00 458910 N 0 0 0
0:00:00.00 459328 N 0 0 0
0:00:00.00 459758 N 0 0 0
0:00:00.00 460184 N 0 0 0
0:00:00.00 460602 N 0 0 0
0:00:00.00 461034 N 0 0 0
0:00:00.00 461446 N 0 0 0
0:00:00.00 461864 N 0 0 0
0:00:00.00 462283 N 0 0 0
0:00:00.00 462690 N 0 0 0
0:00:00.00 463117 N 0 0 0
0:00:00.00 463532 N 0 0 0
0:00:00.00 463963 N 0 0 0
0:00:00.00 464400 N 0 0 0
0:00:00.00 464825 N 0 0 0
0:00:00.00 465255 N 0 0 0
0:00:00.00 465676 N 0 0 0
0:00:00.00 466103 N 0 0 0
0:00:00.00 466524 N 0 0 0
0:00:00.00 466954 N 0 0 0
0:00:00.00 467379 N 0 0 0
0:00:00.00 467798 N 0 0 0
0:00:00.00 468227 N 0 0 0
0:00:00.00 468653 N 0 0 0
0:00:00.00 469080 N 0 0 0
0:00:00.00 469508 N 0 0 0
0:00:00.00 469928 N 0 0 0
0:00:00.00 470351 N 0 0 0
0:00:00.00 470759 N 0 0 0
0:00:00.00 471182 N 0 0 0
0:00:00.00 471600 N 0 0 0
0:00:00.00 472021 N 0 0 0
0:00:00.00 472444 N 0 0 0
0:00:00.00 472858 N 0 0 0
0:00:00.00 473272 N 0 0 0
0:00:00.00 473679 N 0 0 0
0:00:00.00 474098 N 0 0 0
0:00:00.00 474521 N 0 0 0
0:00:00.00 474932 N 0 0 0
0:00:00.00 475364 N 0 0 0
0:00:00.00 475774 N 0 0 0
0:00:00.00 476203 N 0 0 0
0:00:00.00 476620 N 0 0 0
0:00:00.00 477063 N 0 0 0
0:00:00.00 477493 N 0 0 0
0:00:00.00 477914 N 0 0 0
0:00:00.00 478337 N 0 0 0
0:00:00.00 478748 N 0 0 0
0:00:00.00 479174 N 0 0 0
0:00:00.00 479596 N 0 0 0
0:00:00.00 480010 N 0 0 0
0:00:00.00 480433 N 0 0 0
0:00:00.00 480850 N 0 0 0
0:00:00.00 481273 N 0 0 0
0:00:00.00 481693 N 0 0 0
0:00:00.00 482108 N 0 0 0
0:00:00.00 482537 N 0 0 0
0:00:00.00 482960 N 0 0 0
0:00:00.00 483390 N 0 0 0
0:00:00.00 483826 N 0 0 0
0:00:00.00 484250 N 0 0 0
0:00:00.00 484677 N 0 0 0
0:00:00.00 485093 N 0 0 0
0:00:00.00 485527 N 0 0 0
0:00:00.00 485948 N 0 0 0
0:00:00.00 486385 N 0 0 0
0:00:00.00 486819 N 0 0 0
0:00:00.00 487249 N 0 0 0
0:00:00.00 487683 N 0 0 0
0:00:00.00 488101 N 0 0 0
0:00:00.00 488536 N 0 0 0
0:00:00.00 488945 N 0 0 0
0:00:00.00 489375 N 0 0 0
0:00:00.00 489796 N 0 0 0
0:00:00.00 490219 N 0 0 0
0:00:00.00 490648 N 0 0 0
0:00:00.00 491067 N 0 0 0
0:00:00.00 491492 N 0 0 0
0:00:00.00 491904 N 0 0 0
0:00:00.00 492334 N 0 0 0
0:00:00.00 492754 N 0 0 0
0:00:00.00 493164 N 0 0 0
0:00:00.00 493585 N 0 0 0
0:00:00.00 493996 N 0 0 0
0:00:00.00 494426 N 0 0 0
0:00:00.00 494842 N 0 0 0
0:00:00.00 495279 N 0 0 0
0:00:00.00 495709 N 0 0 0
0:00:00.00 496130 N 0 0 0
0:00:00.00 496561 N 0 0 0
0:00:00.00 496980 N 0 0 0
0:00:00.00 497405 N 0 0 0
0:00:00.00 497835 N 0 0 0
0:00:00.00 498254 N 0 0 0
0:00:00.00 498685 N 0 0 0
0:00:00.00 499106 N 0 0 0
0:00:00.00 499534 N 0 0 0
0:00:00.00 499963 N 0 0 0
0:00:00.00 500384 N 0 0 0
0:00:00.00 500818 N 0 0 0
0:00:00.00 501230 N 0 0 0
0:00:00.00 501647 N 0 0 0
0:00:00.00 502065 N 0 0 0
0:00:00.00 502483 N 0 0 0
0:00:00.00 502909 N 0 0 0
0:00:00.00 503314 N 0 0 0
0:00:00.00 503752 N 0 0 0
0:00:00.00 504166 N 0 0 0
0:00:00.00 504594 N 0 0 0
0:00:00.00 505021 N 0 0 0
0:00:00.00 505445 N 0 0 0
0:00:00.00 505870 N 0 0 0
0:00:00.00 506284 N 0 0 0
0:00:00.00 506720 N 0 0 0
0:00:00.00 507143 N 0 0 0
0:00:00.00 507568 N 0 0 0
0:00:00.00 507998 N 0 0 0
0:00:00.00 508419 N 0 0 0
0:00:00.00 508847 N 0 0 0
0:00:00.00 509265 N 0 0 0
0:00:00.00 509695 N 0 0 0
0:00:00.00 510118 N 0 0 0
0:00:00.00 510534 N 0 0 0
0:00:00.00 510959 N 0 0 0
0:00:00.00 511380 N 0 0 0
0:00:00.00 511799 N 0 0 0
0:00:00.00 512228 N 0 0 0
0:00:00.00 512642 N 0 0 0
0:00:00.00 513056 N 0 0 0
0:00:00.00 513464 N 0 0 0
0:00:00.00 513880 N 0 0 0
0:00:00.00 514303 N 0 0 0
0:00:00.00 514708 N 0 0 0
0:00:00.00 515135 N 0 0 0
0:00:00.00 515547 N 0 0 0
0:00:00.00 515968 N 0 0 0
0:00:00.00 516384 N 0 0 0
0:00:00.00 516812 N 0 0 0
0:00:00.00 517241 N 0 0 0
0:00:00.00 517658 N 0 0 0
0:00:00.00 518087 N 0 0 0
0:00:00.00 518501 N 0 0 0
0:00:00.00 518918 N 0 0 0
0:00:00.00 519334 N 0 0 0
0:00:00.00 519757 N 0 0 0
0:00:00.00 520177 N 0 0 0
0:00:00.00 520583 N 0 0 0
0:00:00.00 521015 N 0 0 0
0:00:00.00 521426 N 0 0 0
0:00:00.00 521854 N 0 0 0
0:00:00.00 522281 N 0 0 0
0:00:00.00 522707 N 0 0 0
0:00:00.00 523130 N 0 0 0
0:00:00.00 523552 N 0 0 0
0:00:00.00 523975 N 0 0 0
0:00:00.00 524394 N 0 0 0
0:00:00.00 524808 N 0 0 0
0:00:00.00 525238 N 0 0 0
0:00:00.00 525649 N 0 0 0
0:00:00.00 526070 N 0 0 0
0:00:00.00 526493 N 0 0 0
0:00:00.00 526903 N 0 0 0
0:00:00.00 527319 N 0 0 0
0:00:00.00 527722 N 0 0 0
0:00:00.00 528145 N 0 0 0
0:00:00.00 528561 N 0 0 0
0:00:00.00 528982 N 0 0 0
0:00:00.00 529409 N 0 0 0
0:00:00.00 529823 N 0 0 0
0:00:00.00 530240 N 0 0 0
0:00:00.00 530644 N 0 0 0
0:00:00.00 531063 N 0 0 0
0:00:00.00 531479 N 0 0 0
0:00:00.00 531887 N 0 0 0
0:00:00.00 532312 N 0 0 0
0:00:00.00 532721 N 0 0 0
0:00:00.00 533140 N 0 0 0
0:00:00.00 533543 N 0 0 0
0:00:00.00 533975 N 0 0 0
0:00:00.00 534395 N 0 0 0
0:00:00.00 534809 N 0 0 0
0:00:00.00 535237 N 0 0 0
0:00:00.00 535653 N 0 0 0
0:00:00.00 536081 N 0 0 0
0:00:00.00 536510 N 0 0 0
0:00:00.00 536926 N 0 0 0
0:00:00.00 537354 N 0 0 0
0:00:00.00 537770 N 0 0 0
0:00:00.00 538204 N 0 0 0
0:00:00.00 538621 N 0 0 0
0:00:00.00 539042 N 0 0 0
0:00:00.00 539465 N 0 0 0
0:00:00.00 539881 N 0 0 0
0:00:00.00 540301 N 0 0 0
0:00:00.00 540724 N 0 0 0
0:00:00.00 541147 N 0 0 0
0:00:00.00 541566 N 0 0 0
0:00:00.00 541976 N 0 0 0
0:00:00.00 542407 N 0 0 0
0:00:00.00 542822 N 0 0 0
0:00:00.00 543244 N 0 0 0
0:00:00.00 543663 N 0 0 0
0:00:00.00 544084 N 0 0 0
0:00:00.00 544498 N 0 0 0
0:00:00.00 544909 N 0 0 0
0:00:00.00 545339 N 0 0 0
0:00:00.00 545756 N 0 0 0
0:00:00.00 546176 N 0 0 0
0:00:00.00 546601 N 0 0 0
0:00:00.00 547015 N 0 0 0
0:00:00.00 547429 N 0 0 0
0:00:00.00 547855 N 0 0 0
0:00:00.00 548276 N 0 0 0
0:00:00.00 548714 N 0 0 0
0:00:00.00 549128 N 0 0 0
0:00:00.00 549563 N 0 0 0
0:00:00.00 549979 N 0 0 0
0:00:00.00 550413 N 0 0 0
0:00:00.00 550836 N 0 0 0
0:00:00.00 551270 N 0 0 0
0:00:00.00 551698 N 0 0 0
0:00:00.00 552118 N 0 0 0
0:00:00.00 552546 N 0 0 0
0:00:00.00 552955 N 0 0 0
0:00:00.00 553374 N 0 0 0
0:00:00.00 553795 N 0 0 0
0:00:00.00 554211 N 0 0 0
0:00:00.00 554621 N 0 0 0
0:00:00.00 555034 N 0 0 0
0:00:00.00 555457 N 0 0 0
0:00:00.00 555869 N 0 0 0
0:00:00.00 556288 N 0 0 0
0:00:00.00 556715 N 0 0 0
0:00:00.00 557134 N 0 0 0
0:00:00.00 557552 N 0 0 0
0:00:00.00 557969 N 0 0 0
0:00:00.00 558387 N 0 0 0
0:00:00.00 558796 N 0 0 0
0:00:00.00 559210 N 0 0 0
0:00:00.00 559631 N 0 0 0
0:00:00.00 560045 N 0 0 0
0:00:00.00 560466 N 0 0 0
0:00:00.00 560885 N 0 0 0
0:00:00.00 561303 N 0 0 0
0:00:00.00 561721 N 0 0 0
0:00:00.00 562133 N 0 0 0
0:00:00.00 562561 N 0 0 0
0:00:00.00 562972 N 0 0 0
0:00:00.00 563398 N 0 0 0
0:00:00.00 563812 N 0 0 0
0:00:00.00 564235 N 0 0 0
0:00:00.00 564647 N 0 0 0
0:00:00.00 565079 N 0 0 0
0:00:00.00 565502 N 0 0 0
0:00:00.00 565922 N 0 0 0
0:00:00.00 566352 N 0 0 0
0:00:00.00 566770 N 0 0 0
0:00:00.00 567193 N 0 0 0
0:00:00.00 567603 N 0 0 0
0:00:00.00 568028 N 0 0 0
0:00:00.00 568453 N 0 0 0
0:00:00.00 568877 N 0 0 0
0:00:00.00 569313 N 0 0 0
0:00:00.00 569731 N 0 0 0
0:00:00.00 570154 N 0 0 0
0:00:00.00 570562 N 0 0 0
0:00:00.00 570992 N 0 0 0
0:00:00.00 571419 N 0 0 0
0:00:00.00 571837 N 0 0 0
0:00:00.00 572269 N 0 0 0
0:00:00.00 572679 N 0 0 0
0:00:00.00 573106 N 0 0 0
0:00:00.00 573523 N 0 0 0
0:00:00.00 573946 N 0 0 0
0:00:00.00 574366 N 0 0 0
0:00:00.00 574776 N 0 0 0
0:00:00.00 575192 N 0 0 0
0:00:00.00 575593 N 0 0 0
0:00:00.00 576011 N 0 0 0
0:00:00.00 576425 N 0 0 0
0:00:00.00 576857 N 0 0 0
0:00:00.00 577265 N 0 0 0
0:00:00.00 577676 N 0 0 0
0:00:00.00 578077 N 0 0 0
0:00:00.00 578473 N 0 0 0
0:00:00.00 578867 N 0 0 0
0:00:00.00 579263 N 0 0 0
0:00:00.00 579661 N 0 0 0
0:00:00.00 580061 N 0 0 0
0:00:00.00 580471 N 0 0 0
0:00:00.00 580894 N 0 0 0
0:00:00.00 581323 N 0 0 0
0:00:00.00 581747 N 0 0 0
0:00:00.00 582188 N 0 0 0
0:00:00.00 582620 N 0 0 0
0:00:00.00 583054 N 0 0 0
0:00:00.00 583481 N 0 0 0
0:00:00.00 583911 N 0 0 0
0:00:00.00 584334 N 0 0 0
0:00:00.00 584750 N 0 0 0
0:00:00.00 585178 N 0 0 0
0:00:00.00 585599 N 0 0 0
0:00:00.00 586022 N 0 0 0
0:00:00.00 586460 N 0 0 0
0:00:00.00 586881 N 0 0 0
0:00:00.00 587311 N 0 0 0
0:00:00.00 587727 N 0 0 0
0:00:00.00 588155 N 0 0 0
0:00:00.00 588569 N 0 0 0
0:00:00.00 589000 N 0 0 0
0:00:00.00 589432 N 0 0 0
0:00:00.00 589849 N 0 0 0
0:00:00.00 590278 N 0 0 0
0:00:00.00 590693 N 0 0 0
0:00:00.00 591125 N 0 0 0
0:00:00.00 591548 N 0 0 0
0:00:00.00 591968 N 0 0 0
0:00:00.00 592394 N 0 0 0
0:00:00.00 592805 N 0 0 0
0:00:00.00 593231 N 0 0 0
0:00:00.00 593651 N 0 0 0
0:00:00.00 594079 N 0 0 0
0:00:00.00 594499 N 0 0 0
0:00:00.00 594918 N 0 0 0
0:00:00.00 595343 N 0 0 0
0:00:00.00 595753 N 0 0 0
0:00:00.00 596171 N 0 0 0
0:00:00.00 596597 N 0 0 0
0:00:00.00 597015 N 0 0 0
0:00:00.00 597440 N 0 0 0
0:00:00.00 597857 N 0 0 0
0:00:00.00 598280 N 0 0 0
0:00:00.00 598707 N 0 0 0
0:00:00.00 599130 N 0 0 0
0:00:00.00 599562 N 0 0 0
0:00:00.00 599974 N 0 0 0
0:00:00.00 600408 N 0 0 0
0:00:00.00 600824 N 0 0 0
0:00:00.00 601243 N 0 0 0
0:00:00.00 601663 N 0 0 0
0:00:00.00 602078 N 0 0 0
0:00:00.00 602505 N 0 0 0
0:00:00.00 602912 N 0 0 0
0:00:00.00 603342 N 0 0 0
0:00:00.00 603754 N 0 0 0
0:00:00.00 604172 N 0 0 0
0:00:00.00 604588 N 0 0 0
0:00:00.00 605000 N 0 0 0
0:00:00.00 605421 N 0 0 0
0:00:00.00 605821 N 0 0 0
0:00:00.00 606245 N 0 0 0
0:00:00.00 606658 N 0 0 0
0:00:00.00 607068 N 0 0 0
0:00:00.00 607489 N 0 0 0
0:00:00.00 607905 N 0 0 0
0:00:00.00 608330 N 0 0 0
0:00:00.00 608753 N 0 0 0
0:00:00.00 609170 N 0 0 0
0:00:00.00 609593 N 0 0 0
0:00:00.00 610006 N 0 0 0
0:00:00.00 610427 N 0 0 0
0:00:00.00 610859 N 0 0 0
0:00:00.00 611275 N 0 0 0
0:00:00.00 611707 N 0 0 0
0:00:00.00 612122 N 0 0 0
0:00:00.00 612542 N 0 0 0
0:00:00.00 612959 N 0 0 0
0:00:00.00 613373 N 0 0 0
0:00:00.00 613800 N 0 0 0
0:00:00.00 614210 N 0 0 0
0:00:00.00 614637 N 0 0 0
0:00:00.00 615058 N 0 0 0
0:00:00.00 615467 N 0 0 0
0:00:00.00 615892 N 0 0 0
0:00:00.00 616307 N 0 0 0
0:00:00.00 616732 N 0 0 0
0:00:00.00 617161 N 0 0 0
0:00:00.00 617584 N 0 0 0
0:00:00.00 618008 N 0 0 0
0:00:00.00 618417 N 0 0 0
0:00:00.00 618833 N 0 0 0
0:00:00.00 619256 N 0 0 0
0:00:00.00 619677 N 0 0 0
0:00:00.00 620111 N 0 0 0
0:00:00.00 620539 N 0 0 0
0:00:00.00 620975 N 0 0 0
0:00:00.00 621400 N 0 0 0
0:00:00.00 621826 N 0 0 0
0:00:00.00 622256 N 0 0 0
0:00:00.00 622667 N 0 0 0
0:00:00.00 623088 N 0 0 0
0:00:00.00 623516 N 0 0 0
0:00:00.00 623934 N 0 0 0
0:00:00.00 624364 N 0 0 0
0:00:00.00 624775 N 0 0 0
0:00:00.00 625205 N 0 0 0
0:00:00.00 625610 N 0 0 0
0:00:00.00 626035 N 0 0 0
0:00:00.00 626456 N 0 0 0
0:00:00.00 626859 N 0 0 0
0:00:00.00 627282 N 0 0 0
0:00:00.00 627694 N 0 0 0
0:00:00.00 628124 N 0 0 0
0:00:00.00 628553 N 0 0 0
0:00:00.00 628979 N 0 0 0
0:00:00.00 629408 N 0 0 0
0:00:00.00 629816 N 0 0 0
0:00:00.00 630247 N 0 0 0
0:00:00.00 630666 N 0 0 0
0:00:00.00 631100 N 0 0 0
0:00:00.00 631523 N 0 0 0
0:00:00.00 631957 N 0 0 0
0:00:00.00 632387 N 0 0 0
0:00:00.00 632804 N 0 0 0
0:00:00.00 633233 N 0 0 0
0:00:00.00 633658 N 0 0 0
0:00:00.00 634079 N 0 0 0
0:00:00.00 634498 N 0 0 0
0:00:00.00 634918 N 0 0 0
0:00:00.00 635337 N 0 0 0
0:00:00.00 635753 N 0 0 0
0:00:00.00 636178 N 0 0 0
0:00:00.00 636608 N 0 0 0
0:00:00.00 637018 N 0 0 0
0:00:00.00 637450 N 0 0 0
0:00:00.00 637862 N 0 0 0
0:00:00.00 638284 N 0 0 0
0:00:00.00 638696 N 0 0 0
0:00:00.00 639115 N 0 0 0
0:00:00.00 639538 N 0 0 0
0:00:00.00 639952 N 0 0 0
0:00:00.00 640370 N 0 0 0
0:00:00.00 640782 N 0 0 0
0:00:00.00 641191 N 0 0 0
0:00:00.00 641603 N 0 0 0
0:00:00.00 642011 N 0 0 0
0:00:00.00 642434 N 0 0 0
0:00:00.00 642839 N 0 0 0
0:00:00.00 643266 N 0 0 0
0:00:00.00 643684 N 0 0 0
0:00:00.00 644090 N 0 0 0
0:00:00.00 644504 N 0 0 0
0:00:00.00 644920 N 0 0 0
0:00:00.00 645336 N 0 0 0
0:00:00.00 645754 N 0 0 0
0:00:00.00 646164 N 0 0 0
0:00:00.00 646580 N 0 0 0
0:00:00.00 646987 N 0 0 0
0:00:00.00 647401 N 0 0 0
0:00:00.00 647820 N 0 0 0
0:00:00.00 648229 N 0 0 0
0:00:00.00 648652 N 0 0 0
0:00:00.00 649071 N 0 0 0
0:00:00.00 649498 N 0 0 0
0:00:00.00 649926 N 0 0 0
