0:00:00.00 9 N 0 0 0
0:00:00.00 99 N 0 0 0
0:00:00.00 373 N 0 0 0
0:00:00.00 679 N 0 0 0
0:00:00.00 985 N 0 0 0
0:00:00.00 1289 N 0 0 0
0:00:00.00 1591 N 0 0 0
0:00:00.00 1885 N 0 0 0
0:00:00.00 2180 N 0 0 0
0:00:00.00 2480 N 0 0 0
0:00:00.00 2770 N 0 0 0
0:00:00.00 3058 N 0 0 0
0:00:00.00 3368 N 0 0 0
0:00:00.00 3679 N 0 0 0
0:00:00.00 3983 N 0 0 0
0:00:00.00 4286 N 0 0 0
0:00:00.00 4583 N 0 0 0
0:00:00.00 4887 N 0 0 0
0:00:00.00 5175 N 0 0 0
0:00:00.00 5467 N 0 0 0
0:00:00.00 5767 N 0 0 0
0:00:00.00 6062 N 0 0 0
0:00:00.00 6356 N 0 0 0
0:00:00.00 6649 N 0 0 0
0:00:00.00 6934 N 0 0 0
0:00:00.00 7218 N 0 0 0
0:00:00.00 7510 N 0 0 0
0:00:00.00 7798 N 0 0 0
0:00:00.00 8086 N 0 0 0
0:00:00.00 8383 N 0 0 0
0:00:00.00 8667 N 0 0 0
0:00:00.00 8971 N 0 0 0
0:00:00.00 9268 N 0 0 0
0:00:00.00 9569 N 0 0 0
0:00:00.00 9880 N 0 0 0
0:00:00.00 10183 N 0 0 0
0:00:00.00 10483 N 0 0 0
0:00:00.00 10793 N 0 0 0
0:00:00.00 11038 N 0 0 0
0:00:00.00 11387 N 0 0 0
0:00:00.00 11691 N 0 0 0
0:00:00.00 11995 N 0 0 0
0:00:00.00 12298 N 0 0 0
0:00:00.00 12598 N 0 0 0
0:00:00.00 12901 N 0 0 0
0:00:00.00 13203 N 0 0 0
0:00:00.00 13500 N 0 0 0
0:00:00.00 13795 N 0 0 0
0:00:00.00 14074 N 0 0 0
0:00:00.00 14362 N 0 0 0
0:00:00.00 14641 N 0 0 0
0:00:00.00 14920 N 0 0 0
0:00:00.00 15214 N 0 0 0
0:00:00.00 15500 N 0 0 0
0:00:00.00 15793 N 0 0 0
0:00:00.00 16092 N 0 0 0
0:00:00.00 16398 N 0 0 0
0:00:00.00 16704 N 0 0 0
0:00:00.00 17010 N 0 0 0
0:00:00.00 17318 N 0 0 0
0:00:00.00 17627 N 0 0 0
0:00:00.00 17937 N 0 0 0
0:00:00.00 18247 N 0 0 0
0:00:00.00 18553 N 0 0 0
0:00:00.00 18859 N 0 0 0
0:00:00.00 19159 N 0 0 0
0:00:00.00 19463 N 0 0 0
0:00:00.00 19766 N 0 0 0
0:00:00.00 20059 N 0 0 0
0:00:00.00 20365 N 0 0 0
0:00:00.00 20659 N 0 0 0
0:00:00.00 20961 N 0 0 0
0:00:00.00 21271 N 0 0 0
0:00:00.00 21571 N 0 0 0
0:00:00.00 21874 N 0 0 0
0:00:00.00 22180 N 0 0 0
0:00:00.00 22478 N 0 0 0
0:00:00.00 22779 N 0 0 0
0:00:00.00 23080 N 0 0 0
0:00:00.00 23377 N 0 0 0
0:00:00.00 23672 N 0 0 0
0:00:00.00 23972 N 0 0 0
0:00:00.00 24275 N 0 0 0
0:00:00.00 24570 N 0 0 0
0:00:00.00 24867 N 0 0 0
0:00:00.00 25175 N 0 0 0
0:00:00.00 25475 N 0 0 0
0:00:00.00 25780 N 0 0 0
0:00:00.00 26082 N 0 0 0
0:00:00.00 26379 N 0 0 0
0:00:00.00 26678 N 0 0 0
0:00:00.00 26980 N 0 0 0
0:00:00.00 27283 N 0 0 0
0:00:00.00 27580 N 0 0 0
0:00:00.00 27877 N 0 0 0
0:00:00.00 28179 N 0 0 0
0:00:00.00 28474 N 0 0 0
0:00:00.00 28771 N 0 0 0
0:00:00.00 29065 N 0 0 0
0:00:00.00 29354 N 0 0 0
0:00:00.00 29653 N 0 0 0
0:00:00.00 29950 N 0 0 0
0:00:00.00 30244 N 0 0 0
0:00:00.00 30542 N 0 0 0
0:00:00.00 30834 N 0 0 0
0:00:00.00 31126 N 0 0 0
0:00:00.00 31415 N 0 0 0
0:00:00.00 31709 N 0 0 0
0:00:00.00 31991 N 0 0 0
0:00:00.00 32276 N 0 0 0
0:00:00.00 32564 N 0 0 0
0:00:00.00 32854 N 0 0 0
0:00:00.00 33145 N 0 0 0
0:00:00.00 33433 N 0 0 0
0:00:00.00 33660 N 0 0 0
0:00:00.00 33988 N 0 0 0
0:00:00.00 34294 N 0 0 0
0:00:00.00 34582 N 0 0 0
0:00:00.00 34870 N 0 0 0
0:00:00.00 35156 N 0 0 0
0:00:00.00 35390 N 0 0 0
0:00:00.00 35705 N 0 0 0
0:00:00.00 35996 N 0 0 0
0:00:00.00 36281 N 0 0 0
0:00:00.00 36567 N 0 0 0
0:00:00.00 36848 N 0 0 0
0:00:00.00 37136 N 0 0 0
0:00:00.00 37424 N 0 0 0
0:00:00.00 37708 N 0 0 0
0:00:00.00 37935 N 0 0 0
0:00:00.00 38264 N 0 0 0
0:00:00.00 38495 N 0 0 0
0:00:00.00 38855 N 0 0 0
0:00:00.00 39150 N 0 0 0
0:00:00.00 39433 N 0 0 0
0:00:00.00 39717 N 0 0 0
0:00:00.00 39998 N 0 0 0
0:00:00.00 40288 N 0 0 0
0:00:00.00 40525 N 0 0 0
0:00:00.00 40831 N 0 0 0
0:00:00.00 41128 N 0 0 0
0:00:00.00 41416 N 0 0 0
0:00:00.00 41710 N 0 0 0
0:00:00.00 42001 N 0 0 0
0:00:00.00 42291 N 0 0 0
0:00:00.00 42586 N 0 0 0
0:00:00.00 42880 N 0 0 0
0:00:00.00 43178 N 0 0 0
0:00:00.00 43477 N 0 0 0
0:00:00.00 43771 N 0 0 0
0:00:00.00 44066 N 0 0 0
0:00:00.00 44354 N 0 0 0
0:00:00.00 44647 N 0 0 0
0:00:00.00 44939 N 0 0 0
0:00:00.00 45236 N 0 0 0
0:00:00.00 45526 N 0 0 0
0:00:00.00 45814 N 0 0 0
0:00:00.00 46116 N 0 0 0
0:00:00.00 46408 N 0 0 0
0:00:00.00 46699 N 0 0 0
0:00:00.00 46996 N 0 0 0
0:00:00.00 47288 N 0 0 0
0:00:00.00 47572 N 0 0 0
0:00:00.00 47866 N 0 0 0
0:00:00.00 48150 N 0 0 0
0:00:00.00 48433 N 0 0 0
0:00:00.00 48719 N 0 0 0
0:00:00.00 49014 N 0 0 0
0:00:00.00 49300 N 0 0 0
0:00:00.00 49594 N 0 0 0
0:00:00.00 49885 N 0 0 0
0:00:00.00 50182 N 0 0 0
0:00:00.00 50479 N 0 0 0
0:00:00.00 50782 N 0 0 0
0:00:00.00 51086 N 0 0 0
0:00:00.00 51383 N 0 0 0
0:00:00.00 51687 N 0 0 0
0:00:00.00 51993 N 0 0 0
0:00:00.00 52297 N 0 0 0
0:00:00.00 52594 N 0 0 0
0:00:00.00 52900 N 0 0 0
0:00:00.00 53204 N 0 0 0
0:00:00.00 53507 N 0 0 0
0:00:00.00 53815 N 0 0 0
0:00:00.00 54121 N 0 0 0
0:00:00.00 54423 N 0 0 0
0:00:00.00 54733 N 0 0 0
0:00:00.00 55040 N 0 0 0
0:00:00.00 55341 N 0 0 0
0:00:00.00 55643 N 0 0 0
0:00:00.00 55955 N 0 0 0
0:00:00.00 56257 N 0 0 0
0:00:00.00 56558 N 0 0 0
0:00:00.00 56866 N 0 0 0
0:00:00.00 57163 N 0 0 0
0:00:00.00 57461 N 0 0 0
0:00:00.00 57762 N 0 0 0
0:00:00.00 58054 N 0 0 0
0:00:00.00 58354 N 0 0 0
0:00:00.00 58642 N 0 0 0
0:00:00.00 58937 N 0 0 0
0:00:00.00 59233 N 0 0 0
0:00:00.00 59526 N 0 0 0
0:00:00.00 59821 N 0 0 0
0:00:00.00 60115 N 0 0 0
0:00:00.00 60401 N 0 0 0
0:00:00.00 60691 N 0 0 0
0:00:00.00 60917 N 0 0 0
0:00:00.00 61240 N 0 0 0
0:00:00.00 61533 N 0 0 0
0:00:00.00 61828 N 0 0 0
0:00:00.00 62113 N 0 0 0
0:00:00.00 62402 N 0 0 0
0:00:00.00 62696 N 0 0 0
0:00:00.00 62980 N 0 0 0
0:00:00.00 63274 N 0 0 0
0:00:00.00 63565 N 0 0 0
0:00:00.00 63855 N 0 0 0
0:00:00.00 64148 N 0 0 0
0:00:00.00 64445 N 0 0 0
0:00:00.00 64958 N 0 0 0
0:00:00.00 65281 N 0 0 0
0:00:00.00 65579 N 0 0 0
0:00:00.00 65875 N 0 0 0
0:00:00.00 66164 N 0 0 0
0:00:00.00 66451 N 0 0 0
0:00:00.00 66751 N 0 0 0
0:00:00.00 67041 N 0 0 0
0:00:00.00 67331 N 0 0 0
0:00:00.00 67628 N 0 0 0
0:00:00.00 67925 N 0 0 0
0:00:00.00 68216 N 0 0 0
0:00:00.00 68521 N 0 0 0
0:00:00.00 68823 N 0 0 0
0:00:00.00 69379 N 0 0 0
0:00:00.00 69701 N 0 0 0
0:00:00.00 70013 N 0 0 0
0:00:00.00 70324 N 0 0 0
0:00:00.00 70618 N 0 0 0
0:00:00.00 70916 N 0 0 0
0:00:00.00 71212 N 0 0 0
0:00:00.00 71510 N 0 0 0
0:00:00.00 71757 N 0 0 0
0:00:00.00 72108 N 0 0 0
0:00:00.00 72346 N 0 0 0
0:00:00.00 72722 N 0 0 0
0:00:00.00 73042 N 0 0 0
0:00:00.00 73354 N 0 0 0
0:00:00.00 73669 N 0 0 0
0:00:00.00 73975 N 0 0 0
0:00:00.00 74272 N 0 0 0
0:00:00.00 74581 N 0 0 0
0:00:00.00 74882 N 0 0 0
0:00:00.00 75173 N 0 0 0
0:00:00.00 75463 N 0 0 0
0:00:00.00 75762 N 0 0 0
0:00:00.00 76061 N 0 0 0
0:00:00.00 76360 N 0 0 0
0:00:00.00 76662 N 0 0 0
0:00:00.00 76961 N 0 0 0
0:00:00.00 77261 N 0 0 0
0:00:00.00 77564 N 0 0 0
0:00:00.00 77868 N 0 0 0
0:00:00.00 78167 N 0 0 0
0:00:00.00 78466 N 0 0 0
0:00:00.00 78773 N 0 0 0
0:00:00.00 79078 N 0 0 0
0:00:00.00 79382 N 0 0 0
0:00:00.00 79684 N 0 0 0
0:00:00.00 79985 N 0 0 0
0:00:00.00 80287 N 0 0 0
0:00:00.00 80597 N 0 0 0
0:00:00.00 80847 N 0 0 0
0:00:00.00 81194 N 0 0 0
0:00:00.00 81497 N 0 0 0
0:00:00.00 81801 N 0 0 0
0:00:00.00 82094 N 0 0 0
0:00:00.00 82388 N 0 0 0
0:00:00.00 82683 N 0 0 0
0:00:00.00 82976 N 0 0 0
0:00:00.00 83273 N 0 0 0
0:00:00.00 83563 N 0 0 0
0:00:00.00 83860 N 0 0 0
0:00:00.00 84146 N 0 0 0
0:00:00.00 84431 N 0 0 0
0:00:00.00 84719 N 0 0 0
0:00:00.00 85007 N 0 0 0
0:00:00.00 85298 N 0 0 0
0:00:00.00 85590 N 0 0 0
0:00:00.00 85878 N 0 0 0
0:00:00.00 86166 N 0 0 0
0:00:00.00 86459 N 0 0 0
0:00:00.00 86756 N 0 0 0
0:00:00.00 87039 N 0 0 0
0:00:00.00 87325 N 0 0 0
0:00:00.00 87622 N 0 0 0
0:00:00.00 87908 N 0 0 0
0:00:00.00 88207 N 0 0 0
0:00:00.00 88499 N 0 0 0
0:00:00.00 88794 N 0 0 0
0:00:00.00 89102 N 0 0 0
0:00:00.00 89402 N 0 0 0
0:00:00.00 89707 N 0 0 0
0:00:00.00 90004 N 0 0 0
0:00:00.00 90304 N 0 0 0
0:00:00.00 90616 N 0 0 0
0:00:00.00 90929 N 0 0 0
0:00:00.00 91229 N 0 0 0
0:00:00.00 91534 N 0 0 0
0:00:00.00 91843 N 0 0 0
0:00:00.00 92149 N 0 0 0
0:00:00.00 92468 N 0 0 0
0:00:00.00 92785 N 0 0 0
0:00:00.00 93098 N 0 0 0
0:00:00.00 93422 N 0 0 0
0:00:00.00 93742 N 0 0 0
0:00:00.00 94059 N 0 0 0
0:00:00.00 94358 N 0 0 0
0:00:00.00 94671 N 0 0 0
0:00:00.00 94975 N 0 0 0
0:00:00.00 95287 N 0 0 0
0:00:00.00 95584 N 0 0 0
0:00:00.00 95877 N 0 0 0
0:00:00.00 96167 N 0 0 0
0:00:00.00 96453 N 0 0 0
0:00:00.00 96748 N 0 0 0
0:00:00.00 97042 N 0 0 0
0:00:00.00 97330 N 0 0 0
0:00:00.00 97623 N 0 0 0
0:00:00.00 97918 N 0 0 0
0:00:00.00 98213 N 0 0 0
0:00:00.00 98518 N 0 0 0
0:00:00.00 98813 N 0 0 0
0:00:00.00 99027 N 0 0 0
0:00:00.00 99356 N 0 0 0
0:00:00.00 99664 N 0 0 0
0:00:00.00 99958 N 0 0 0
0:00:00.00 100246 N 0 0 0
0:00:00.00 100537 N 0 0 0
0:00:00.00 100760 N 0 0 0
0:00:00.00 101081 N 0 0 0
0:00:00.00 101387 N 0 0 0
0:00:00.00 101675 N 0 0 0
0:00:00.00 101963 N 0 0 0
0:00:00.00 102258 N 0 0 0
0:00:00.00 102492 N 0 0 0
0:00:00.00 102825 N 0 0 0
0:00:00.00 103147 N 0 0 0
0:00:00.00 103673 N 0 0 0
0:00:00.00 104002 N 0 0 0
0:00:00.00 104301 N 0 0 0
0:00:00.00 104594 N 0 0 0
0:00:00.00 104899 N 0 0 0
0:00:00.00 105192 N 0 0 0
0:00:00.00 105469 N 0 0 0
0:00:00.00 105786 N 0 0 0
0:00:00.00 106079 N 0 0 0
0:00:00.00 106380 N 0 0 0
0:00:00.00 106672 N 0 0 0
0:00:00.00 106965 N 0 0 0
0:00:00.00 107273 N 0 0 0
0:00:00.00 107570 N 0 0 0
0:00:00.00 107863 N 0 0 0
0:00:00.00 108160 N 0 0 0
0:00:00.00 108455 N 0 0 0
0:00:00.00 108745 N 0 0 0
0:00:00.00 109019 N 0 0 0
0:00:00.00 109305 N 0 0 0
0:00:00.00 109580 N 0 0 0
0:00:00.00 109818 N 0 0 0
0:00:00.00 110124 N 0 0 0
0:00:00.00 110416 N 0 0 0
0:00:00.00 110698 N 0 0 0
0:00:00.00 110981 N 0 0 0
0:00:00.00 111269 N 0 0 0
0:00:00.00 111499 N 0 0 0
0:00:00.00 111829 N 0 0 0
0:00:00.00 112126 N 0 0 0
0:00:00.00 112430 N 0 0 0
0:00:00.00 112721 N 0 0 0
0:00:00.00 113013 N 0 0 0
0:00:00.00 113317 N 0 0 0
0:00:00.00 113605 N 0 0 0
0:00:00.00 113900 N 0 0 0
0:00:00.00 114197 N 0 0 0
0:00:00.00 114494 N 0 0 0
0:00:00.00 114790 N 0 0 0
0:00:00.00 115087 N 0 0 0
0:00:00.00 115385 N 0 0 0
0:00:00.00 115684 N 0 0 0
0:00:00.00 115979 N 0 0 0
0:00:00.00 116282 N 0 0 0
0:00:00.00 116584 N 0 0 0
0:00:00.00 116885 N 0 0 0
0:00:00.00 117182 N 0 0 0
0:00:00.00 117484 N 0 0 0
0:00:00.00 117783 N 0 0 0
0:00:00.00 118071 N 0 0 0
0:00:00.00 118366 N 0 0 0
0:00:00.00 118660 N 0 0 0
0:00:00.00 118953 N 0 0 0
0:00:00.00 119259 N 0 0 0
0:00:00.00 119554 N 0 0 0
0:00:00.00 119851 N 0 0 0
0:00:00.00 120150 N 0 0 0
0:00:00.00 120458 N 0 0 0
0:00:00.00 120760 N 0 0 0
0:00:00.00 121052 N 0 0 0
0:00:00.00 121361 N 0 0 0
0:00:00.00 121658 N 0 0 0
0:00:00.00 121963 N 0 0 0
0:00:00.00 122263 N 0 0 0
0:00:00.00 122558 N 0 0 0
0:00:00.00 122859 N 0 0 0
0:00:00.00 123143 N 0 0 0
0:00:00.00 123431 N 0 0 0
0:00:00.00 123734 N 0 0 0
0:00:00.00 124018 N 0 0 0
0:00:00.00 124313 N 0 0 0
0:00:00.00 124607 N 0 0 0
0:00:00.00 124897 N 0 0 0
0:00:00.00 125197 N 0 0 0
0:00:00.00 125478 N 0 0 0
0:00:00.00 125699 N 0 0 0
0:00:00.00 126047 N 0 0 0
0:00:00.00 126355 N 0 0 0
0:00:00.00 126652 N 0 0 0
0:00:00.00 126945 N 0 0 0
0:00:00.00 127157 N 0 0 0
0:00:00.00 127472 N 0 0 0
0:00:00.00 127708 N 0 0 0
0:00:00.00 128056 N 0 0 0
0:00:00.00 128288 N 0 0 0
0:00:00.00 128624 N 0 0 0
0:00:00.00 128857 N 0 0 0
0:00:00.00 129204 N 0 0 0
0:00:00.00 129506 N 0 0 0
0:00:00.00 129800 N 0 0 0
0:00:00.00 130003 N 0 0 0
0:00:00.00 130324 N 0 0 0
0:00:00.00 130619 N 0 0 0
0:00:00.00 130909 N 0 0 0
0:00:00.00 131197 N 0 0 0
0:00:00.00 131479 N 0 0 0
0:00:00.00 131753 N 0 0 0
0:00:00.00 132030 N 0 0 0
0:00:00.00 132309 N 0 0 0
0:00:00.00 132583 N 0 0 0
0:00:00.00 132849 N 0 0 0
0:00:00.00 133126 N 0 0 0
0:00:00.00 133398 N 0 0 0
0:00:00.00 133668 N 0 0 0
0:00:00.00 133945 N 0 0 0
0:00:00.00 134228 N 0 0 0
0:00:00.00 134498 N 0 0 0
0:00:00.00 134771 N 0 0 0
0:00:00.00 135050 N 0 0 0
0:00:00.00 135317 N 0 0 0
0:00:00.00 135585 N 0 0 0
0:00:00.00 135846 N 0 0 0
0:00:00.00 136111 N 0 0 0
0:00:00.00 136373 N 0 0 0
0:00:00.00 136642 N 0 0 0
0:00:00.00 136904 N 0 0 0
0:00:00.00 137171 N 0 0 0
0:00:00.00 137437 N 0 0 0
0:00:00.00 137696 N 0 0 0
0:00:00.00 137968 N 0 0 0
0:00:00.00 138238 N 0 0 0
0:00:00.00 138503 N 0 0 0
0:00:00.00 138758 N 0 0 0
0:00:00.00 139032 N 0 0 0
0:00:00.00 139295 N 0 0 0
0:00:00.00 139558 N 0 0 0
0:00:00.00 139826 N 0 0 0
0:00:00.00 140096 N 0 0 0
0:00:00.00 140357 N 0 0 0
0:00:00.00 140621 N 0 0 0
0:00:00.00 140893 N 0 0 0
0:00:00.00 141158 N 0 0 0
0:00:00.00 141421 N 0 0 0
0:00:00.00 141655 N 0 0 0
0:00:00.00 141944 N 0 0 0
0:00:00.00 142204 N 0 0 0
0:00:00.00 142466 N 0 0 0
0:00:00.00 142724 N 0 0 0
0:00:00.00 142983 N 0 0 0
0:00:00.00 143235 N 0 0 0
0:00:00.00 143491 N 0 0 0
0:00:00.00 143743 N 0 0 0
0:00:00.00 143998 N 0 0 0
0:00:00.00 144254 N 0 0 0
0:00:00.00 144506 N 0 0 0
0:00:00.00 144754 N 0 0 0
0:00:00.00 145004 N 0 0 0
0:00:00.00 145260 N 0 0 0
0:00:00.00 145508 N 0 0 0
0:00:00.00 145764 N 0 0 0
0:00:00.00 146016 N 0 0 0
0:00:00.00 146264 N 0 0 0
0:00:00.00 146509 N 0 0 0
0:00:00.00 146761 N 0 0 0
0:00:00.00 147017 N 0 0 0
0:00:00.00 147262 N 0 0 0
0:00:00.00 147506 N 0 0 0
0:00:00.00 147753 N 0 0 0
0:00:00.00 147998 N 0 0 0
0:00:00.00 148243 N 0 0 0
0:00:00.00 148487 N 0 0 0
0:00:00.00 148732 N 0 0 0
0:00:00.00 148975 N 0 0 0
0:00:00.00 149218 N 0 0 0
0:00:00.00 149461 N 0 0 0
0:00:00.00 149708 N 0 0 0
0:00:00.00 149956 N 0 0 0
0:00:00.00 150199 N 0 0 0
0:00:00.00 150446 N 0 0 0
0:00:00.00 150687 N 0 0 0
0:00:00.00 150930 N 0 0 0
0:00:00.00 151173 N 0 0 0
0:00:00.00 151416 N 0 0 0
0:00:00.00 151657 N 0 0 0
0:00:00.00 151904 N 0 0 0
0:00:00.00 152143 N 0 0 0
0:00:00.00 152379 N 0 0 0
0:00:00.00 152618 N 0 0 0
0:00:00.00 152867 N 0 0 0
0:00:00.00 153108 N 0 0 0
0:00:00.00 153346 N 0 0 0
0:00:00.00 153585 N 0 0 0
0:00:00.00 153833 N 0 0 0
0:00:00.00 154067 N 0 0 0
0:00:00.00 154309 N 0 0 0
0:00:00.00 154557 N 0 0 0
0:00:00.00 154807 N 0 0 0
0:00:00.00 155048 N 0 0 0
0:00:00.00 155293 N 0 0 0
0:00:00.00 155538 N 0 0 0
0:00:00.00 155788 N 0 0 0
0:00:00.00 156033 N 0 0 0
0:00:00.00 156276 N 0 0 0
0:00:00.00 156519 N 0 0 0
0:00:00.00 156760 N 0 0 0
0:00:00.00 157005 N 0 0 0
0:00:00.00 157252 N 0 0 0
0:00:00.00 157493 N 0 0 0
0:00:00.00 157739 N 0 0 0
0:00:00.00 157988 N 0 0 0
0:00:00.00 158177 N 0 0 0
0:00:00.00 158459 N 0 0 0
0:00:00.00 158719 N 0 0 0
0:00:00.00 158972 N 0 0 0
0:00:00.00 159224 N 0 0 0
0:00:00.00 159476 N 0 0 0
0:00:00.00 159732 N 0 0 0
0:00:00.00 159982 N 0 0 0
0:00:00.00 160232 N 0 0 0
0:00:00.00 160486 N 0 0 0
0:00:00.00 160742 N 0 0 0
0:00:00.00 160992 N 0 0 0
0:00:00.00 161240 N 0 0 0
0:00:00.00 161489 N 0 0 0
0:00:00.00 161678 N 0 0 0
0:00:00.00 161953 N 0 0 0
0:00:00.00 162205 N 0 0 0
0:00:00.00 162452 N 0 0 0
0:00:00.00 162702 N 0 0 0
0:00:00.00 162950 N 0 0 0
0:00:00.00 163202 N 0 0 0
0:00:00.00 163458 N 0 0 0
0:00:00.00 163712 N 0 0 0
0:00:00.00 163969 N 0 0 0
0:00:00.00 164228 N 0 0 0
0:00:00.00 164480 N 0 0 0
0:00:00.00 164747 N 0 0 0
0:00:00.00 165006 N 0 0 0
0:00:00.00 165263 N 0 0 0
0:00:00.00 165521 N 0 0 0
0:00:00.00 165785 N 0 0 0
0:00:00.00 165937 N 0 0 0
0:00:00.00 166217 N 0 0 0
0:00:00.00 166532 N 0 0 0
0:00:00.00 166808 N 0 0 0
0:00:00.00 167071 N 0 0 0
0:00:00.00 167339 N 0 0 0
0:00:00.00 167603 N 0 0 0
0:00:00.00 167872 N 0 0 0
0:00:00.00 168136 N 0 0 0
0:00:00.00 168404 N 0 0 0
0:00:00.00 168667 N 0 0 0
0:00:00.00 168925 N 0 0 0
0:00:00.00 169187 N 0 0 0
0:00:00.00 169450 N 0 0 0
0:00:00.00 169711 N 0 0 0
0:00:00.00 169969 N 0 0 0
0:00:00.00 170226 N 0 0 0
0:00:00.00 170478 N 0 0 0
0:00:00.00 170743 N 0 0 0
0:00:00.00 171002 N 0 0 0
0:00:00.00 171265 N 0 0 0
0:00:00.00 171515 N 0 0 0
0:00:00.00 171781 N 0 0 0
0:00:00.00 172040 N 0 0 0
0:00:00.00 172296 N 0 0 0
0:00:00.00 172562 N 0 0 0
0:00:00.00 172829 N 0 0 0
0:00:00.00 173083 N 0 0 0
0:00:00.00 173333 N 0 0 0
0:00:00.00 173597 N 0 0 0
0:00:00.00 173853 N 0 0 0
0:00:00.00 174109 N 0 0 0
0:00:00.00 174361 N 0 0 0
0:00:00.00 174620 N 0 0 0
0:00:00.00 174868 N 0 0 0
0:00:00.00 175127 N 0 0 0
0:00:00.00 175383 N 0 0 0
0:00:00.00 175648 N 0 0 0
0:00:00.00 175898 N 0 0 0
0:00:00.00 176159 N 0 0 0
0:00:00.00 176418 N 0 0 0
0:00:00.00 176665 N 0 0 0
0:00:00.00 176944 N 0 0 0
0:00:00.00 177205 N 0 0 0
0:00:00.00 177460 N 0 0 0
0:00:00.00 177719 N 0 0 0
0:00:00.00 177869 N 0 0 0
0:00:00.00 178202 N 0 0 0
0:00:00.00 178506 N 0 0 0
0:00:00.00 178774 N 0 0 0
0:00:00.00 179032 N 0 0 0
0:00:00.00 179289 N 0 0 0
0:00:00.00 179557 N 0 0 0
0:00:00.00 179784 N 0 0 0
0:00:00.00 180076 N 0 0 0
0:00:00.00 180248 N 0 0 0
0:00:00.00 180603 N 0 0 0
0:00:00.00 180866 N 0 0 0
0:00:00.00 181127 N 0 0 0
0:00:00.00 181375 N 0 0 0
0:00:00.00 181447 N 0 0 0
0:00:00.00 181654 N 0 0 0
0:00:00.00 181906 N 0 0 0
0:00:00.00 182165 N 0 0 0
0:00:00.00 182410 N 0 0 0
0:00:00.00 182686 N 0 0 0
0:00:00.00 182948 N 0 0 0
0:00:00.00 183206 N 0 0 0
0:00:00.00 183461 N 0 0 0
0:00:00.00 183719 N 0 0 0
0:00:00.00 183978 N 0 0 0
0:00:00.00 184178 N 0 0 0
0:00:00.00 184482 N 0 0 0
0:00:00.00 184743 N 0 0 0
0:00:00.00 185000 N 0 0 0
0:00:00.00 185258 N 0 0 0
0:00:00.00 185522 N 0 0 0
0:00:00.00 185782 N 0 0 0
0:00:00.00 186037 N 0 0 0
0:00:00.00 186287 N 0 0 0
0:00:00.00 186476 N 0 0 0
0:00:00.00 186761 N 0 0 0
0:00:00.00 187013 N 0 0 0
0:00:00.00 187274 N 0 0 0
0:00:00.00 187529 N 0 0 0
0:00:00.00 187774 N 0 0 0
0:00:00.00 188026 N 0 0 0
0:00:00.00 188278 N 0 0 0
0:00:00.00 188528 N 0 0 0
0:00:00.00 188779 N 0 0 0
0:00:00.00 189027 N 0 0 0
0:00:00.00 189277 N 0 0 0
0:00:00.00 189524 N 0 0 0
0:00:00.00 189770 N 0 0 0
0:00:00.00 190024 N 0 0 0
0:00:00.00 190271 N 0 0 0
0:00:00.00 190516 N 0 0 0
0:00:00.00 190768 N 0 0 0
0:00:00.00 190948 N 0 0 0
0:00:00.00 191225 N 0 0 0
0:00:00.00 191482 N 0 0 0
0:00:00.00 191732 N 0 0 0
0:00:00.00 191979 N 0 0 0
0:00:00.00 192229 N 0 0 0
0:00:00.00 192481 N 0 0 0
0:00:00.00 192728 N 0 0 0
0:00:00.00 192973 N 0 0 0
0:00:00.00 193225 N 0 0 0
0:00:00.00 193450 N 0 0 0
0:00:00.00 193723 N 0 0 0
0:00:00.00 193977 N 0 0 0
0:00:00.00 194240 N 0 0 0
0:00:00.00 194499 N 0 0 0
0:00:00.00 194760 N 0 0 0
0:00:00.00 195021 N 0 0 0
0:00:00.00 195287 N 0 0 0
0:00:00.00 195552 N 0 0 0
0:00:00.00 195815 N 0 0 0
0:00:00.00 196081 N 0 0 0
0:00:00.00 196348 N 0 0 0
0:00:00.00 196614 N 0 0 0
0:00:00.00 196884 N 0 0 0
0:00:00.00 197152 N 0 0 0
0:00:00.00 197426 N 0 0 0
0:00:00.00 197696 N 0 0 0
0:00:00.00 197964 N 0 0 0
0:00:00.00 198234 N 0 0 0
0:00:00.00 198506 N 0 0 0
0:00:00.00 198776 N 0 0 0
0:00:00.00 199049 N 0 0 0
0:00:00.00 199328 N 0 0 0
0:00:00.00 199604 N 0 0 0
0:00:00.00 199795 N 0 0 0
0:00:00.00 200099 N 0 0 0
0:00:00.00 200383 N 0 0 0
0:00:00.00 200579 N 0 0 0
0:00:00.00 200894 N 0 0 0
0:00:00.00 201168 N 0 0 0
0:00:00.00 201447 N 0 0 0
0:00:00.00 201719 N 0 0 0
0:00:00.00 201998 N 0 0 0
0:00:00.00 202277 N 0 0 0
0:00:00.00 202558 N 0 0 0
0:00:00.00 202838 N 0 0 0
0:00:00.00 203119 N 0 0 0
0:00:00.00 203404 N 0 0 0
0:00:00.00 203688 N 0 0 0
0:00:00.00 203967 N 0 0 0
0:00:00.00 204251 N 0 0 0
0:00:00.00 204403 N 0 0 0
0:00:00.00 204811 N 0 0 0
0:00:00.00 205094 N 0 0 0
0:00:00.00 205378 N 0 0 0
0:00:00.00 205654 N 0 0 0
0:00:00.00 205927 N 0 0 0
0:00:00.00 206213 N 0 0 0
0:00:00.00 206494 N 0 0 0
0:00:00.00 206773 N 0 0 0
0:00:00.00 207052 N 0 0 0
0:00:00.00 207337 N 0 0 0
0:00:00.00 207614 N 0 0 0
0:00:00.00 207891 N 0 0 0
0:00:00.00 208172 N 0 0 0
0:00:00.00 208447 N 0 0 0
0:00:00.00 208726 N 0 0 0
0:00:00.00 208998 N 0 0 0
0:00:00.00 209279 N 0 0 0
0:00:00.00 209556 N 0 0 0
0:00:00.00 209833 N 0 0 0
0:00:00.00 210109 N 0 0 0
0:00:00.00 210386 N 0 0 0
0:00:00.00 210663 N 0 0 0
0:00:00.00 210937 N 0 0 0
0:00:00.00 211219 N 0 0 0
0:00:00.00 211491 N 0 0 0
0:00:00.00 211757 N 0 0 0
0:00:00.00 212027 N 0 0 0
0:00:00.00 212301 N 0 0 0
0:00:00.00 212571 N 0 0 0
0:00:00.00 212834 N 0 0 0
0:00:00.00 213107 N 0 0 0
0:00:00.00 213377 N 0 0 0
0:00:00.00 213646 N 0 0 0
0:00:00.00 213921 N 0 0 0
0:00:00.00 214200 N 0 0 0
0:00:00.00 214470 N 0 0 0
0:00:00.00 214745 N 0 0 0
0:00:00.00 215026 N 0 0 0
0:00:00.00 215307 N 0 0 0
0:00:00.00 215590 N 0 0 0
0:00:00.00 215867 N 0 0 0
0:00:00.00 216144 N 0 0 0
0:00:00.00 216425 N 0 0 0
0:00:00.00 216706 N 0 0 0
0:00:00.00 216985 N 0 0 0
0:00:00.00 217183 N 0 0 0
0:00:00.00 217490 N 0 0 0
0:00:00.00 217766 N 0 0 0
0:00:00.00 218043 N 0 0 0
0:00:00.00 218320 N 0 0 0
0:00:00.00 218596 N 0 0 0
0:00:00.00 218862 N 0 0 0
0:00:00.00 219141 N 0 0 0
0:00:00.00 219415 N 0 0 0
0:00:00.00 219685 N 0 0 0
0:00:00.00 219965 N 0 0 0
0:00:00.00 220241 N 0 0 0
0:00:00.00 220511 N 0 0 0
0:00:00.00 220786 N 0 0 0
0:00:00.00 221069 N 0 0 0
0:00:00.00 221333 N 0 0 0
0:00:00.00 221612 N 0 0 0
0:00:00.00 221886 N 0 0 0
0:00:00.00 222161 N 0 0 0
0:00:00.00 222430 N 0 0 0
0:00:00.00 222701 N 0 0 0
0:00:00.00 222975 N 0 0 0
0:00:00.00 223250 N 0 0 0
0:00:00.00 223524 N 0 0 0
0:00:00.00 223796 N 0 0 0
0:00:00.00 224071 N 0 0 0
0:00:00.00 224345 N 0 0 0
0:00:00.00 224620 N 0 0 0
0:00:00.00 224899 N 0 0 0
0:00:00.00 225167 N 0 0 0
0:00:00.00 225445 N 0 0 0
0:00:00.00 225718 N 0 0 0
0:00:00.00 226003 N 0 0 0
0:00:00.00 226274 N 0 0 0
0:00:00.00 226465 N 0 0 0
0:00:00.00 226769 N 0 0 0
0:00:00.00 227056 N 0 0 0
0:00:00.00 227327 N 0 0 0
0:00:00.00 227597 N 0 0 0
0:00:00.00 227869 N 0 0 0
0:00:00.00 228128 N 0 0 0
0:00:00.00 228400 N 0 0 0
0:00:00.00 228674 N 0 0 0
0:00:00.00 228947 N 0 0 0
0:00:00.00 229221 N 0 0 0
0:00:00.00 229498 N 0 0 0
0:00:00.00 229774 N 0 0 0
0:00:00.00 230049 N 0 0 0
0:00:00.00 230335 N 0 0 0
0:00:00.00 230607 N 0 0 0
0:00:00.00 230882 N 0 0 0
0:00:00.00 231158 N 0 0 0
0:00:00.00 231431 N 0 0 0
0:00:00.00 231703 N 0 0 0
0:00:00.00 231988 N 0 0 0
0:00:00.00 232258 N 0 0 0
0:00:00.00 232528 N 0 0 0
0:00:00.00 232807 N 0 0 0
0:00:00.00 233082 N 0 0 0
0:00:00.00 233365 N 0 0 0
0:00:00.00 233627 N 0 0 0
0:00:00.00 233910 N 0 0 0
0:00:00.00 234193 N 0 0 0
0:00:00.00 234468 N 0 0 0
0:00:00.00 234756 N 0 0 0
0:00:00.00 234952 N 0 0 0
0:00:00.00 235260 N 0 0 0
0:00:00.00 235539 N 0 0 0
0:00:00.00 235823 N 0 0 0
0:00:00.00 236102 N 0 0 0
0:00:00.00 236381 N 0 0 0
0:00:00.00 236653 N 0 0 0
0:00:00.00 236936 N 0 0 0
0:00:00.00 237220 N 0 0 0
0:00:00.00 237505 N 0 0 0
0:00:00.00 237793 N 0 0 0
0:00:00.00 238079 N 0 0 0
0:00:00.00 238363 N 0 0 0
0:00:00.00 238649 N 0 0 0
0:00:00.00 238946 N 0 0 0
0:00:00.00 239231 N 0 0 0
0:00:00.00 239427 N 0 0 0
0:00:00.00 239744 N 0 0 0
0:00:00.00 240030 N 0 0 0
0:00:00.00 240314 N 0 0 0
0:00:00.00 240532 N 0 0 0
0:00:00.00 240880 N 0 0 0
0:00:00.00 241177 N 0 0 0
0:00:00.00 241475 N 0 0 0
0:00:00.00 241781 N 0 0 0
0:00:00.00 242078 N 0 0 0
0:00:00.00 242386 N 0 0 0
0:00:00.00 242689 N 0 0 0
0:00:00.00 243000 N 0 0 0
0:00:00.00 243317 N 0 0 0
0:00:00.00 243619 N 0 0 0
0:00:00.00 243936 N 0 0 0
0:00:00.00 244246 N 0 0 0
0:00:00.00 244548 N 0 0 0
0:00:00.00 244867 N 0 0 0
0:00:00.00 245176 N 0 0 0
0:00:00.00 245477 N 0 0 0
0:00:00.00 245790 N 0 0 0
0:00:00.00 246096 N 0 0 0
0:00:00.00 246393 N 0 0 0
0:00:00.00 246697 N 0 0 0
0:00:00.00 246996 N 0 0 0
0:00:00.00 247289 N 0 0 0
0:00:00.00 247590 N 0 0 0
0:00:00.00 247892 N 0 0 0
0:00:00.00 248189 N 0 0 0
0:00:00.00 248485 N 0 0 0
0:00:00.00 248787 N 0 0 0
0:00:00.00 249100 N 0 0 0
0:00:00.00 249410 N 0 0 0
0:00:00.00 249725 N 0 0 0
0:00:00.00 250047 N 0 0 0
0:00:00.00 250367 N 0 0 0
0:00:00.00 250681 N 0 0 0
0:00:00.00 251001 N 0 0 0
0:00:00.00 251320 N 0 0 0
0:00:00.00 251631 N 0 0 0
0:00:00.00 251948 N 0 0 0
0:00:00.00 252256 N 0 0 0
0:00:00.00 252565 N 0 0 0
0:00:00.00 252877 N 0 0 0
0:00:00.00 253172 N 0 0 0
0:00:00.00 253373 N 0 0 0
0:00:00.00 253719 N 0 0 0
0:00:00.00 254023 N 0 0 0
0:00:00.00 254333 N 0 0 0
0:00:00.00 254646 N 0 0 0
0:00:00.00 254956 N 0 0 0
0:00:00.00 255280 N 0 0 0
0:00:00.00 255604 N 0 0 0
0:00:00.00 255920 N 0 0 0
0:00:00.00 256235 N 0 0 0
0:00:00.00 256552 N 0 0 0
0:00:00.00 256871 N 0 0 0
0:00:00.00 257186 N 0 0 0
0:00:00.00 257495 N 0 0 0
0:00:00.00 257809 N 0 0 0
0:00:00.00 258120 N 0 0 0
0:00:00.00 258433 N 0 0 0
0:00:00.00 258752 N 0 0 0
0:00:00.00 259061 N 0 0 0
0:00:00.00 259369 N 0 0 0
0:00:00.00 259686 N 0 0 0
0:00:00.00 259990 N 0 0 0
0:00:00.00 260294 N 0 0 0
0:00:00.00 260600 N 0 0 0
0:00:00.00 260901 N 0 0 0
0:00:00.00 261124 N 0 0 0
0:00:00.00 261484 N 0 0 0
0:00:00.00 261785 N 0 0 0
0:00:00.00 262087 N 0 0 0
0:00:00.00 262393 N 0 0 0
0:00:00.00 262598 N 0 0 0
0:00:00.00 262924 N 0 0 0
0:00:00.00 263219 N 0 0 0
0:00:00.00 263417 N 0 0 0
0:00:00.00 263736 N 0 0 0
0:00:00.00 263965 N 0 0 0
0:00:00.00 264292 N 0 0 0
0:00:00.00 264584 N 0 0 0
0:00:00.00 264866 N 0 0 0
0:00:00.00 265144 N 0 0 0
0:00:00.00 265428 N 0 0 0
0:00:00.00 265705 N 0 0 0
0:00:00.00 265984 N 0 0 0
0:00:00.00 266258 N 0 0 0
0:00:00.00 266539 N 0 0 0
0:00:00.00 266810 N 0 0 0
0:00:00.00 267088 N 0 0 0
0:00:00.00 267372 N 0 0 0
0:00:00.00 267647 N 0 0 0
0:00:00.00 267817 N 0 0 0
0:00:00.00 268180 N 0 0 0
0:00:00.00 268459 N 0 0 0
0:00:00.00 268722 N 0 0 0
0:00:00.00 268994 N 0 0 0
0:00:00.00 269221 N 0 0 0
0:00:00.00 269352 N 0 0 0
0:00:00.00 269431 N 0 0 0
0:00:00.00 269516 N 0 0 0
0:00:00.00 269782 N 0 0 0
0:00:00.00 270054 N 0 0 0
0:00:00.00 270322 N 0 0 0
0:00:00.00 270590 N 0 0 0
0:00:00.00 270859 N 0 0 0
0:00:00.00 271127 N 0 0 0
0:00:00.00 271400 N 0 0 0
0:00:00.00 271669 N 0 0 0
0:00:00.00 271939 N 0 0 0
0:00:00.00 272196 N 0 0 0
0:00:00.00 272417 N 0 0 0
0:00:00.00 272714 N 0 0 0
0:00:00.00 272979 N 0 0 0
0:00:00.00 273249 N 0 0 0
0:00:00.00 273521 N 0 0 0
0:00:00.00 273780 N 0 0 0
0:00:00.00 273973 N 0 0 0
0:00:00.00 274277 N 0 0 0
0:00:00.00 274543 N 0 0 0
0:00:00.00 274810 N 0 0 0
0:00:00.00 275071 N 0 0 0
0:00:00.00 275344 N 0 0 0
0:00:00.00 275551 N 0 0 0
0:00:00.00 275857 N 0 0 0
0:00:00.00 276129 N 0 0 0
0:00:00.00 276401 N 0 0 0
0:00:00.00 276669 N 0 0 0
0:00:00.00 276937 N 0 0 0
0:00:00.00 277196 N 0 0 0
0:00:00.00 277463 N 0 0 0
0:00:00.00 277688 N 0 0 0
0:00:00.00 277979 N 0 0 0
0:00:00.00 278242 N 0 0 0
0:00:00.00 278501 N 0 0 0
0:00:00.00 278762 N 0 0 0
0:00:00.00 279018 N 0 0 0
0:00:00.00 279252 N 0 0 0
0:00:00.00 279538 N 0 0 0
0:00:00.00 279805 N 0 0 0
0:00:00.00 280073 N 0 0 0
0:00:00.00 280354 N 0 0 0
0:00:00.00 280622 N 0 0 0
0:00:00.00 280895 N 0 0 0
0:00:00.00 281171 N 0 0 0
0:00:00.00 281444 N 0 0 0
0:00:00.00 281722 N 0 0 0
0:00:00.00 282008 N 0 0 0
0:00:00.00 282294 N 0 0 0
0:00:00.00 282573 N 0 0 0
0:00:00.00 282856 N 0 0 0
0:00:00.00 283149 N 0 0 0
0:00:00.00 283437 N 0 0 0
0:00:00.00 283725 N 0 0 0
0:00:00.00 284009 N 0 0 0
0:00:00.00 284299 N 0 0 0
0:00:00.00 284587 N 0 0 0
0:00:00.00 284870 N 0 0 0
0:00:00.00 285160 N 0 0 0
0:00:00.00 285451 N 0 0 0
0:00:00.00 285736 N 0 0 0
0:00:00.00 286020 N 0 0 0
0:00:00.00 286315 N 0 0 0
0:00:00.00 286533 N 0 0 0
0:00:00.00 286839 N 0 0 0
0:00:00.00 287140 N 0 0 0
0:00:00.00 287438 N 0 0 0
0:00:00.00 287730 N 0 0 0
0:00:00.00 288022 N 0 0 0
0:00:00.00 288315 N 0 0 0
0:00:00.00 288605 N 0 0 0
0:00:00.00 288900 N 0 0 0
0:00:00.00 289197 N 0 0 0
0:00:00.00 289492 N 0 0 0
0:00:00.00 289796 N 0 0 0
0:00:00.00 290090 N 0 0 0
0:00:00.00 290387 N 0 0 0
0:00:00.00 290684 N 0 0 0
0:00:00.00 290981 N 0 0 0
0:00:00.00 291278 N 0 0 0
0:00:00.00 291568 N 0 0 0
0:00:00.00 291848 N 0 0 0
0:00:00.00 292075 N 0 0 0
0:00:00.00 292370 N 0 0 0
0:00:00.00 292653 N 0 0 0
0:00:00.00 292925 N 0 0 0
0:00:00.00 293211 N 0 0 0
0:00:00.00 293485 N 0 0 0
0:00:00.00 293764 N 0 0 0
0:00:00.00 294050 N 0 0 0
0:00:00.00 294334 N 0 0 0
0:00:00.00 294615 N 0 0 0
0:00:00.00 294903 N 0 0 0
0:00:00.00 295198 N 0 0 0
0:00:00.00 295483 N 0 0 0
0:00:00.00 295774 N 0 0 0
0:00:00.00 296062 N 0 0 0
0:00:00.00 296348 N 0 0 0
0:00:00.00 296642 N 0 0 0
0:00:00.00 296932 N 0 0 0
0:00:00.00 297227 N 0 0 0
0:00:00.00 297520 N 0 0 0
0:00:00.00 297810 N 0 0 0
0:00:00.00 298111 N 0 0 0
0:00:00.00 298406 N 0 0 0
0:00:00.00 298697 N 0 0 0
0:00:00.00 298998 N 0 0 0
0:00:00.00 299291 N 0 0 0
0:00:00.00 299585 N 0 0 0
0:00:00.00 300150 N 0 0 0
0:00:00.00 300470 N 0 0 0
0:00:00.00 300780 N 0 0 0
0:00:00.00 301093 N 0 0 0
0:00:00.00 301383 N 0 0 0
0:00:00.00 301673 N 0 0 0
0:00:00.00 301963 N 0 0 0
0:00:00.00 302247 N 0 0 0
0:00:00.00 302537 N 0 0 0
0:00:00.00 302827 N 0 0 0
0:00:00.00 303111 N 0 0 0
0:00:00.00 303399 N 0 0 0
0:00:00.00 303680 N 0 0 0
0:00:00.00 303964 N 0 0 0
0:00:00.00 304249 N 0 0 0
0:00:00.00 304528 N 0 0 0
0:00:00.00 304801 N 0 0 0
0:00:00.00 305082 N 0 0 0
0:00:00.00 305357 N 0 0 0
0:00:00.00 305581 N 0 0 0
0:00:00.00 306022 N 0 0 0
0:00:00.00 306328 N 0 0 0
0:00:00.00 306605 N 0 0 0
0:00:00.00 306889 N 0 0 0
0:00:00.00 307103 N 0 0 0
0:00:00.00 307399 N 0 0 0
0:00:00.00 307679 N 0 0 0
0:00:00.00 307957 N 0 0 0
0:00:00.00 308230 N 0 0 0
0:00:00.00 308498 N 0 0 0
0:00:00.00 308779 N 0 0 0
0:00:00.00 309053 N 0 0 0
0:00:00.00 309323 N 0 0 0
0:00:00.00 309539 N 0 0 0
0:00:00.00 309825 N 0 0 0
0:00:00.00 310104 N 0 0 0
0:00:00.00 310387 N 0 0 0
0:00:00.00 310662 N 0 0 0
0:00:00.00 311155 N 0 0 0
0:00:00.00 311459 N 0 0 0
0:00:00.00 311738 N 0 0 0
0:00:00.00 312021 N 0 0 0
0:00:00.00 312296 N 0 0 0
0:00:00.00 312563 N 0 0 0
0:00:00.00 312849 N 0 0 0
0:00:00.00 313121 N 0 0 0
0:00:00.00 313391 N 0 0 0
0:00:00.00 313670 N 0 0 0
0:00:00.00 313952 N 0 0 0
0:00:00.00 314163 N 0 0 0
0:00:00.00 314465 N 0 0 0
0:00:00.00 314766 N 0 0 0
0:00:00.00 315047 N 0 0 0
0:00:00.00 315337 N 0 0 0
0:00:00.00 315621 N 0 0 0
0:00:00.00 315905 N 0 0 0
0:00:00.00 316192 N 0 0 0
0:00:00.00 316474 N 0 0 0
0:00:00.00 316759 N 0 0 0
0:00:00.00 317038 N 0 0 0
0:00:00.00 317326 N 0 0 0
0:00:00.00 317608 N 0 0 0
0:00:00.00 317891 N 0 0 0
0:00:00.00 318179 N 0 0 0
0:00:00.00 318461 N 0 0 0
0:00:00.00 318757 N 0 0 0
0:00:00.00 319045 N 0 0 0
0:00:00.00 319338 N 0 0 0
0:00:00.00 319554 N 0 0 0
0:00:00.00 319923 N 0 0 0
0:00:00.00 320245 N 0 0 0
0:00:00.00 320555 N 0 0 0
0:00:00.00 320868 N 0 0 0
0:00:00.00 321165 N 0 0 0
0:00:00.00 321458 N 0 0 0
0:00:00.00 321761 N 0 0 0
0:00:00.00 322045 N 0 0 0
0:00:00.00 322335 N 0 0 0
0:00:00.00 322627 N 0 0 0
0:00:00.00 322911 N 0 0 0
0:00:00.00 323201 N 0 0 0
0:00:00.00 323498 N 0 0 0
0:00:00.00 323789 N 0 0 0
0:00:00.00 324081 N 0 0 0
0:00:00.00 324374 N 0 0 0
0:00:00.00 324668 N 0 0 0
0:00:00.00 324961 N 0 0 0
0:00:00.00 325251 N 0 0 0
0:00:00.00 325532 N 0 0 0
0:00:00.00 325823 N 0 0 0
0:00:00.00 326115 N 0 0 0
0:00:00.00 326407 N 0 0 0
0:00:00.00 326702 N 0 0 0
0:00:00.00 326992 N 0 0 0
0:00:00.00 327281 N 0 0 0
0:00:00.00 327571 N 0 0 0
0:00:00.00 327868 N 0 0 0
0:00:00.00 328158 N 0 0 0
0:00:00.00 328444 N 0 0 0
0:00:00.00 328736 N 0 0 0
0:00:00.00 329015 N 0 0 0
0:00:00.00 329306 N 0 0 0
0:00:00.00 329594 N 0 0 0
0:00:00.00 329879 N 0 0 0
0:00:00.00 330109 N 0 0 0
0:00:00.00 330548 N 0 0 0
0:00:00.00 330892 N 0 0 0
0:00:00.00 331200 N 0 0 0
0:00:00.00 331483 N 0 0 0
0:00:00.00 331776 N 0 0 0
0:00:00.00 332062 N 0 0 0
0:00:00.00 332347 N 0 0 0
0:00:00.00 332640 N 0 0 0
0:00:00.00 332923 N 0 0 0
0:00:00.00 333209 N 0 0 0
0:00:00.00 333493 N 0 0 0
0:00:00.00 333787 N 0 0 0
0:00:00.00 334073 N 0 0 0
0:00:00.00 334354 N 0 0 0
0:00:00.00 334645 N 0 0 0
0:00:00.00 334926 N 0 0 0
0:00:00.00 335212 N 0 0 0
0:00:00.00 335504 N 0 0 0
0:00:00.00 335788 N 0 0 0
0:00:00.00 336073 N 0 0 0
0:00:00.00 336357 N 0 0 0
0:00:00.00 336649 N 0 0 0
0:00:00.00 336933 N 0 0 0
0:00:00.00 337216 N 0 0 0
0:00:00.00 337496 N 0 0 0
0:00:00.00 337779 N 0 0 0
0:00:00.00 338065 N 0 0 0
0:00:00.00 338350 N 0 0 0
0:00:00.00 338638 N 0 0 0
0:00:00.00 338920 N 0 0 0
0:00:00.00 339196 N 0 0 0
0:00:00.00 339410 N 0 0 0
0:00:00.00 339710 N 0 0 0
0:00:00.00 339998 N 0 0 0
0:00:00.00 340267 N 0 0 0
0:00:00.00 340551 N 0 0 0
0:00:00.00 340825 N 0 0 0
0:00:00.00 341096 N 0 0 0
0:00:00.00 341381 N 0 0 0
0:00:00.00 341662 N 0 0 0
0:00:00.00 341933 N 0 0 0
0:00:00.00 342216 N 0 0 0
0:00:00.00 342502 N 0 0 0
0:00:00.00 342722 N 0 0 0
0:00:00.00 343157 N 0 0 0
0:00:00.00 343458 N 0 0 0
0:00:00.00 343739 N 0 0 0
0:00:00.00 344018 N 0 0 0
0:00:00.00 344291 N 0 0 0
0:00:00.00 344570 N 0 0 0
0:00:00.00 344840 N 0 0 0
0:00:00.00 345071 N 0 0 0
0:00:00.00 345373 N 0 0 0
0:00:00.00 345661 N 0 0 0
0:00:00.00 345865 N 0 0 0
0:00:00.00 346207 N 0 0 0
0:00:00.00 346493 N 0 0 0
0:00:00.00 346768 N 0 0 0
0:00:00.00 347049 N 0 0 0
0:00:00.00 347328 N 0 0 0
0:00:00.00 347605 N 0 0 0
0:00:00.00 347884 N 0 0 0
0:00:00.00 348163 N 0 0 0
0:00:00.00 348458 N 0 0 0
0:00:00.00 348736 N 0 0 0
0:00:00.00 349011 N 0 0 0
0:00:00.00 349297 N 0 0 0
0:00:00.00 349576 N 0 0 0
0:00:00.00 349859 N 0 0 0
0:00:00.00 350150 N 0 0 0
0:00:00.00 350438 N 0 0 0
0:00:00.00 350712 N 0 0 0
0:00:00.00 350941 N 0 0 0
0:00:00.00 351247 N 0 0 0
0:00:00.00 351533 N 0 0 0
0:00:00.00 351823 N 0 0 0
0:00:00.00 352098 N 0 0 0
0:00:00.00 352379 N 0 0 0
0:00:00.00 352654 N 0 0 0
0:00:00.00 352931 N 0 0 0
0:00:00.00 353214 N 0 0 0
0:00:00.00 353500 N 0 0 0
0:00:00.00 353774 N 0 0 0
0:00:00.00 354049 N 0 0 0
0:00:00.00 354292 N 0 0 0
0:00:00.00 354607 N 0 0 0
0:00:00.00 354901 N 0 0 0
0:00:00.00 355189 N 0 0 0
0:00:00.00 355462 N 0 0 0
0:00:00.00 355745 N 0 0 0
0:00:00.00 356029 N 0 0 0
0:00:00.00 356308 N 0 0 0
0:00:00.00 356585 N 0 0 0
0:00:00.00 356864 N 0 0 0
0:00:00.00 357147 N 0 0 0
0:00:00.00 357424 N 0 0 0
0:00:00.00 357709 N 0 0 0
0:00:00.00 357982 N 0 0 0
0:00:00.00 358265 N 0 0 0
0:00:00.00 358546 N 0 0 0
0:00:00.00 358821 N 0 0 0
0:00:00.00 359102 N 0 0 0
0:00:00.00 359280 N 0 0 0
0:00:00.00 359667 N 0 0 0
0:00:00.00 359953 N 0 0 0
0:00:00.00 360241 N 0 0 0
0:00:00.00 360520 N 0 0 0
0:00:00.00 360801 N 0 0 0
0:00:00.00 361082 N 0 0 0
0:00:00.00 361366 N 0 0 0
0:00:00.00 361652 N 0 0 0
0:00:00.00 361872 N 0 0 0
0:00:00.00 362185 N 0 0 0
0:00:00.00 362498 N 0 0 0
0:00:00.00 362801 N 0 0 0
0:00:00.00 363103 N 0 0 0
0:00:00.00 363400 N 0 0 0
0:00:00.00 363701 N 0 0 0
0:00:00.00 363996 N 0 0 0
0:00:00.00 364298 N 0 0 0
0:00:00.00 364594 N 0 0 0
0:00:00.00 364891 N 0 0 0
0:00:00.00 365193 N 0 0 0
0:00:00.00 365488 N 0 0 0
0:00:00.00 365780 N 0 0 0
0:00:00.00 366079 N 0 0 0
0:00:00.00 366624 N 0 0 0
0:00:00.00 366939 N 0 0 0
0:00:00.00 367247 N 0 0 0
0:00:00.00 367540 N 0 0 0
0:00:00.00 367834 N 0 0 0
0:00:00.00 368132 N 0 0 0
0:00:00.00 368420 N 0 0 0
0:00:00.00 368707 N 0 0 0
0:00:00.00 368995 N 0 0 0
0:00:00.00 369288 N 0 0 0
0:00:00.00 369572 N 0 0 0
0:00:00.00 369864 N 0 0 0
0:00:00.00 370152 N 0 0 0
0:00:00.00 370442 N 0 0 0
0:00:00.00 370730 N 0 0 0
0:00:00.00 371020 N 0 0 0
0:00:00.00 371313 N 0 0 0
0:00:00.00 371599 N 0 0 0
0:00:00.00 371882 N 0 0 0
0:00:00.00 372170 N 0 0 0
0:00:00.00 372458 N 0 0 0
0:00:00.00 372733 N 0 0 0
0:00:00.00 373010 N 0 0 0
0:00:00.00 373295 N 0 0 0
0:00:00.00 373572 N 0 0 0
0:00:00.00 373855 N 0 0 0
0:00:00.00 374148 N 0 0 0
0:00:00.00 374429 N 0 0 0
0:00:00.00 374713 N 0 0 0
0:00:00.00 375007 N 0 0 0
0:00:00.00 375298 N 0 0 0
0:00:00.00 375590 N 0 0 0
0:00:00.00 375880 N 0 0 0
0:00:00.00 376166 N 0 0 0
0:00:00.00 376452 N 0 0 0
0:00:00.00 376747 N 0 0 0
0:00:00.00 376961 N 0 0 0
0:00:00.00 377284 N 0 0 0
0:00:00.00 377584 N 0 0 0
0:00:00.00 377876 N 0 0 0
0:00:00.00 378171 N 0 0 0
0:00:00.00 378468 N 0 0 0
0:00:00.00 378752 N 0 0 0
0:00:00.00 379048 N 0 0 0
0:00:00.00 379566 N 0 0 0
0:00:00.00 379888 N 0 0 0
0:00:00.00 380192 N 0 0 0
0:00:00.00 380484 N 0 0 0
0:00:00.00 380776 N 0 0 0
0:00:00.00 381078 N 0 0 0
0:00:00.00 381361 N 0 0 0
0:00:00.00 381647 N 0 0 0
0:00:00.00 381937 N 0 0 0
0:00:00.00 382217 N 0 0 0
0:00:00.00 382502 N 0 0 0
0:00:00.00 382793 N 0 0 0
0:00:00.00 383081 N 0 0 0
0:00:00.00 383375 N 0 0 0
0:00:00.00 383670 N 0 0 0
0:00:00.00 383960 N 0 0 0
0:00:00.00 384264 N 0 0 0
0:00:00.00 384561 N 0 0 0
0:00:00.00 384860 N 0 0 0
0:00:00.00 385151 N 0 0 0
0:00:00.00 385448 N 0 0 0
0:00:00.00 385740 N 0 0 0
0:00:00.00 386035 N 0 0 0
0:00:00.00 386330 N 0 0 0
0:00:00.00 386617 N 0 0 0
0:00:00.00 386921 N 0 0 0
0:00:00.00 387216 N 0 0 0
0:00:00.00 387502 N 0 0 0
0:00:00.00 387801 N 0 0 0
0:00:00.00 388091 N 0 0 0
0:00:00.00 388377 N 0 0 0
0:00:00.00 388674 N 0 0 0
0:00:00.00 388969 N 0 0 0
0:00:00.00 389255 N 0 0 0
0:00:00.00 389538 N 0 0 0
0:00:00.00 389824 N 0 0 0
0:00:00.00 390110 N 0 0 0
0:00:00.00 390397 N 0 0 0
0:00:00.00 390686 N 0 0 0
0:00:00.00 390958 N 0 0 0
0:00:00.00 391241 N 0 0 0
0:00:00.00 391522 N 0 0 0
0:00:00.00 391810 N 0 0 0
0:00:00.00 392090 N 0 0 0
0:00:00.00 392377 N 0 0 0
0:00:00.00 392674 N 0 0 0
0:00:00.00 392960 N 0 0 0
0:00:00.00 393255 N 0 0 0
0:00:00.00 393545 N 0 0 0
0:00:00.00 393845 N 0 0 0
0:00:00.00 394139 N 0 0 0
0:00:00.00 394432 N 0 0 0
0:00:00.00 394740 N 0 0 0
0:00:00.00 395035 N 0 0 0
0:00:00.00 395329 N 0 0 0
0:00:00.00 395635 N 0 0 0
0:00:00.00 395935 N 0 0 0
0:00:00.00 396234 N 0 0 0
0:00:00.00 396526 N 0 0 0
0:00:00.00 396808 N 0 0 0
0:00:00.00 397100 N 0 0 0
0:00:00.00 397400 N 0 0 0
0:00:00.00 397696 N 0 0 0
0:00:00.00 397987 N 0 0 0
0:00:00.00 398277 N 0 0 0
0:00:00.00 398572 N 0 0 0
0:00:00.00 398866 N 0 0 0
0:00:00.00 399159 N 0 0 0
0:00:00.00 399370 N 0 0 0
0:00:00.00 399672 N 0 0 0
0:00:00.00 399978 N 0 0 0
0:00:00.00 400264 N 0 0 0
0:00:00.00 400568 N 0 0 0
0:00:00.00 400871 N 0 0 0
0:00:00.00 401166 N 0 0 0
0:00:00.00 401467 N 0 0 0
0:00:00.00 401780 N 0 0 0
0:00:00.00 402079 N 0 0 0
0:00:00.00 402372 N 0 0 0
0:00:00.00 402673 N 0 0 0
0:00:00.00 402966 N 0 0 0
0:00:00.00 403261 N 0 0 0
0:00:00.00 403565 N 0 0 0
0:00:00.00 403852 N 0 0 0
0:00:00.00 404141 N 0 0 0
0:00:00.00 404453 N 0 0 0
0:00:00.00 404755 N 0 0 0
0:00:00.00 405043 N 0 0 0
0:00:00.00 405346 N 0 0 0
0:00:00.00 405643 N 0 0 0
0:00:00.00 405940 N 0 0 0
0:00:00.00 406237 N 0 0 0
0:00:00.00 406534 N 0 0 0
0:00:00.00 406753 N 0 0 0
0:00:00.00 407072 N 0 0 0
0:00:00.00 407371 N 0 0 0
0:00:00.00 407680 N 0 0 0
0:00:00.00 407981 N 0 0 0
0:00:00.00 408272 N 0 0 0
0:00:00.00 408578 N 0 0 0
0:00:00.00 408874 N 0 0 0
0:00:00.00 409176 N 0 0 0
0:00:00.00 409486 N 0 0 0
0:00:00.00 410027 N 0 0 0
0:00:00.00 410341 N 0 0 0
0:00:00.00 410648 N 0 0 0
0:00:00.00 410958 N 0 0 0
0:00:00.00 411255 N 0 0 0
0:00:00.00 411557 N 0 0 0
0:00:00.00 411865 N 0 0 0
0:00:00.00 412168 N 0 0 0
0:00:00.00 412470 N 0 0 0
0:00:00.00 412772 N 0 0 0
0:00:00.00 413071 N 0 0 0
0:00:00.00 413375 N 0 0 0
0:00:00.00 413683 N 0 0 0
0:00:00.00 413984 N 0 0 0
0:00:00.00 414284 N 0 0 0
0:00:00.00 414590 N 0 0 0
0:00:00.00 414895 N 0 0 0
0:00:00.00 415197 N 0 0 0
0:00:00.00 415508 N 0 0 0
0:00:00.00 415805 N 0 0 0
0:00:00.00 416102 N 0 0 0
0:00:00.00 416414 N 0 0 0
0:00:00.00 416714 N 0 0 0
0:00:00.00 417008 N 0 0 0
0:00:00.00 417307 N 0 0 0
0:00:00.00 417602 N 0 0 0
0:00:00.00 417897 N 0 0 0
0:00:00.00 418196 N 0 0 0
0:00:00.00 418498 N 0 0 0
0:00:00.00 418793 N 0 0 0
0:00:00.00 419085 N 0 0 0
0:00:00.00 419386 N 0 0 0
0:00:00.00 419681 N 0 0 0
0:00:00.00 419967 N 0 0 0
0:00:00.00 420250 N 0 0 0
0:00:00.00 420547 N 0 0 0
0:00:00.00 420838 N 0 0 0
0:00:00.00 421123 N 0 0 0
0:00:00.00 421414 N 0 0 0
0:00:00.00 421700 N 0 0 0
0:00:00.00 421983 N 0 0 0
0:00:00.00 422269 N 0 0 0
0:00:00.00 422509 N 0 0 0
0:00:00.00 422818 N 0 0 0
0:00:00.00 423101 N 0 0 0
0:00:00.00 423391 N 0 0 0
0:00:00.00 423668 N 0 0 0
0:00:00.00 423950 N 0 0 0
0:00:00.00 424184 N 0 0 0
0:00:00.00 424487 N 0 0 0
0:00:00.00 424769 N 0 0 0
0:00:00.00 425043 N 0 0 0
0:00:00.00 425320 N 0 0 0
0:00:00.00 425592 N 0 0 0
0:00:00.00 425866 N 0 0 0
0:00:00.00 426139 N 0 0 0
0:00:00.00 426418 N 0 0 0
0:00:00.00 426701 N 0 0 0
0:00:00.00 426983 N 0 0 0
0:00:00.00 427277 N 0 0 0
0:00:00.00 427563 N 0 0 0
0:00:00.00 427846 N 0 0 0
0:00:00.00 428139 N 0 0 0
0:00:00.00 428425 N 0 0 0
0:00:00.00 428717 N 0 0 0
0:00:00.00 428999 N 0 0 0
0:00:00.00 429289 N 0 0 0
0:00:00.00 429570 N 0 0 0
0:00:00.00 429860 N 0 0 0
0:00:00.00 430148 N 0 0 0
0:00:00.00 430425 N 0 0 0
0:00:00.00 430655 N 0 0 0
0:00:00.00 430988 N 0 0 0
0:00:00.00 431284 N 0 0 0
0:00:00.00 431573 N 0 0 0
0:00:00.00 431860 N 0 0 0
0:00:00.00 432151 N 0 0 0
0:00:00.00 432443 N 0 0 0
0:00:00.00 432740 N 0 0 0
0:00:00.00 433035 N 0 0 0
0:00:00.00 433334 N 0 0 0
0:00:00.00 433631 N 0 0 0
0:00:00.00 433921 N 0 0 0
0:00:00.00 434227 N 0 0 0
0:00:00.00 434525 N 0 0 0
0:00:00.00 434819 N 0 0 0
0:00:00.00 435119 N 0 0 0
0:00:00.00 435415 N 0 0 0
0:00:00.00 435710 N 0 0 0
0:00:00.00 436014 N 0 0 0
0:00:00.00 436309 N 0 0 0
0:00:00.00 436601 N 0 0 0
0:00:00.00 436901 N 0 0 0
0:00:00.00 437207 N 0 0 0
0:00:00.00 437506 N 0 0 0
0:00:00.00 437812 N 0 0 0
0:00:00.00 438111 N 0 0 0
0:00:00.00 438413 N 0 0 0
0:00:00.00 438719 N 0 0 0
0:00:00.00 439024 N 0 0 0
0:00:00.00 439326 N 0 0 0
0:00:00.00 439628 N 0 0 0
0:00:00.00 439927 N 0 0 0
0:00:00.00 440231 N 0 0 0
0:00:00.00 440537 N 0 0 0
0:00:00.00 440827 N 0 0 0
0:00:00.00 441131 N 0 0 0
0:00:00.00 441430 N 0 0 0
0:00:00.00 441722 N 0 0 0
0:00:00.00 442030 N 0 0 0
0:00:00.00 442328 N 0 0 0
0:00:00.00 442615 N 0 0 0
0:00:00.00 442912 N 0 0 0
0:00:00.00 443212 N 0 0 0
0:00:00.00 443504 N 0 0 0
0:00:00.00 443790 N 0 0 0
0:00:00.00 444082 N 0 0 0
0:00:00.00 444368 N 0 0 0
0:00:00.00 444659 N 0 0 0
0:00:00.00 444953 N 0 0 0
0:00:00.00 445235 N 0 0 0
0:00:00.00 445525 N 0 0 0
0:00:00.00 445797 N 0 0 0
0:00:00.00 446092 N 0 0 0
0:00:00.00 446386 N 0 0 0
0:00:00.00 446670 N 0 0 0
0:00:00.00 446956 N 0 0 0
0:00:00.00 447241 N 0 0 0
0:00:00.00 447525 N 0 0 0
0:00:00.00 447730 N 0 0 0
0:00:00.00 448043 N 0 0 0
0:00:00.00 448330 N 0 0 0
0:00:00.00 448614 N 0 0 0
0:00:00.00 448916 N 0 0 0
0:00:00.00 449208 N 0 0 0
0:00:00.00 449498 N 0 0 0
0:00:00.00 449789 N 0 0 0
0:00:00.00 450086 N 0 0 0
0:00:00.00 450378 N 0 0 0
0:00:00.00 450677 N 0 0 0
0:00:00.00 450979 N 0 0 0
0:00:00.00 451274 N 0 0 0
0:00:00.00 451575 N 0 0 0
0:00:00.00 451879 N 0 0 0
0:00:00.00 452180 N 0 0 0
0:00:00.00 452488 N 0 0 0
0:00:00.00 452783 N 0 0 0
0:00:00.00 453091 N 0 0 0
0:00:00.00 453398 N 0 0 0
0:00:00.00 453706 N 0 0 0
0:00:00.00 454018 N 0 0 0
0:00:00.00 454327 N 0 0 0
0:00:00.00 454630 N 0 0 0
0:00:00.00 454945 N 0 0 0
0:00:00.00 455254 N 0 0 0
0:00:00.00 455560 N 0 0 0
0:00:00.00 455872 N 0 0 0
0:00:00.00 456181 N 0 0 0
0:00:00.00 456489 N 0 0 0
0:00:00.00 456808 N 0 0 0
0:00:00.00 457115 N 0 0 0
0:00:00.00 457427 N 0 0 0
0:00:00.00 457742 N 0 0 0
0:00:00.00 458055 N 0 0 0
0:00:00.00 458361 N 0 0 0
0:00:00.00 458660 N 0 0 0
0:00:00.00 458969 N 0 0 0
0:00:00.00 459274 N 0 0 0
0:00:00.00 459576 N 0 0 0
0:00:00.00 459886 N 0 0 0
0:00:00.00 460186 N 0 0 0
0:00:00.00 460481 N 0 0 0
0:00:00.00 460795 N 0 0 0
0:00:00.00 461093 N 0 0 0
0:00:00.00 461390 N 0 0 0
0:00:00.00 461695 N 0 0 0
0:00:00.00 462001 N 0 0 0
0:00:00.00 462299 N 0 0 0
0:00:00.00 462611 N 0 0 0
0:00:00.00 462917 N 0 0 0
0:00:00.00 463210 N 0 0 0
0:00:00.00 463511 N 0 0 0
0:00:00.00 463815 N 0 0 0
0:00:00.00 464105 N 0 0 0
0:00:00.00 464393 N 0 0 0
0:00:00.00 464695 N 0 0 0
0:00:00.00 464981 N 0 0 0
0:00:00.00 465275 N 0 0 0
0:00:00.00 465581 N 0 0 0
0:00:00.00 465871 N 0 0 0
0:00:00.00 466173 N 0 0 0
0:00:00.00 466475 N 0 0 0
0:00:00.00 466774 N 0 0 0
0:00:00.00 467075 N 0 0 0
0:00:00.00 467368 N 0 0 0
0:00:00.00 467671 N 0 0 0
0:00:00.00 467966 N 0 0 0
0:00:00.00 468254 N 0 0 0
0:00:00.00 468558 N 0 0 0
0:00:00.00 468851 N 0 0 0
0:00:00.00 469141 N 0 0 0
0:00:00.00 469440 N 0 0 0
0:00:00.00 469741 N 0 0 0
0:00:00.00 470034 N 0 0 0
0:00:00.00 470326 N 0 0 0
0:00:00.00 470635 N 0 0 0
0:00:00.00 470927 N 0 0 0
0:00:00.00 471229 N 0 0 0
0:00:00.00 471537 N 0 0 0
0:00:00.00 471836 N 0 0 0
0:00:00.00 472133 N 0 0 0
0:00:00.00 472441 N 0 0 0
0:00:00.00 472738 N 0 0 0
0:00:00.00 473040 N 0 0 0
0:00:00.00 473333 N 0 0 0
0:00:00.00 473630 N 0 0 0
0:00:00.00 473936 N 0 0 0
0:00:00.00 474237 N 0 0 0
0:00:00.00 474543 N 0 0 0
0:00:00.00 474851 N 0 0 0
0:00:00.00 475155 N 0 0 0
0:00:00.00 475468 N 0 0 0
0:00:00.00 475776 N 0 0 0
0:00:00.00 476086 N 0 0 0
0:00:00.00 476393 N 0 0 0
0:00:00.00 476705 N 0 0 0
0:00:00.00 477011 N 0 0 0
0:00:00.00 477326 N 0 0 0
0:00:00.00 477634 N 0 0 0
0:00:00.00 477940 N 0 0 0
0:00:00.00 478253 N 0 0 0
0:00:00.00 478568 N 0 0 0
0:00:00.00 478877 N 0 0 0
0:00:00.00 479185 N 0 0 0
0:00:00.00 479500 N 0 0 0
0:00:00.00 479810 N 0 0 0
0:00:00.00 480371 N 0 0 0
0:00:00.00 480690 N 0 0 0
0:00:00.00 480996 N 0 0 0
0:00:00.00 481295 N 0 0 0
0:00:00.00 481586 N 0 0 0
0:00:00.00 481880 N 0 0 0
0:00:00.00 482155 N 0 0 0
0:00:00.00 482445 N 0 0 0
0:00:00.00 482686 N 0 0 0
0:00:00.00 482998 N 0 0 0
0:00:00.00 483305 N 0 0 0
0:00:00.00 483606 N 0 0 0
0:00:00.00 483899 N 0 0 0
0:00:00.00 484204 N 0 0 0
0:00:00.00 484510 N 0 0 0
0:00:00.00 484805 N 0 0 0
0:00:00.00 485098 N 0 0 0
0:00:00.00 485404 N 0 0 0
0:00:00.00 485698 N 0 0 0
0:00:00.00 485993 N 0 0 0
0:00:00.00 486301 N 0 0 0
0:00:00.00 486598 N 0 0 0
0:00:00.00 486891 N 0 0 0
0:00:00.00 487188 N 0 0 0
0:00:00.00 487494 N 0 0 0
0:00:00.00 487795 N 0 0 0
0:00:00.00 488086 N 0 0 0
0:00:00.00 488392 N 0 0 0
0:00:00.00 488630 N 0 0 0
0:00:00.00 488988 N 0 0 0
0:00:00.00 489190 N 0 0 0
0:00:00.00 489578 N 0 0 0
0:00:00.00 489884 N 0 0 0
0:00:00.00 490198 N 0 0 0
0:00:00.00 490511 N 0 0 0
0:00:00.00 490815 N 0 0 0
0:00:00.00 491121 N 0 0 0
0:00:00.00 491432 N 0 0 0
0:00:00.00 491659 N 0 0 0
0:00:00.00 492025 N 0 0 0
0:00:00.00 492361 N 0 0 0
0:00:00.00 492683 N 0 0 0
0:00:00.00 493004 N 0 0 0
0:00:00.00 493324 N 0 0 0
0:00:00.00 493645 N 0 0 0
0:00:00.00 493956 N 0 0 0
0:00:00.00 494266 N 0 0 0
0:00:00.00 494575 N 0 0 0
0:00:00.00 494890 N 0 0 0
0:00:00.00 495203 N 0 0 0
0:00:00.00 495515 N 0 0 0
0:00:00.00 495830 N 0 0 0
0:00:00.00 496147 N 0 0 0
0:00:00.00 496467 N 0 0 0
0:00:00.00 496782 N 0 0 0
0:00:00.00 497009 N 0 0 0
0:00:00.00 497380 N 0 0 0
0:00:00.00 497713 N 0 0 0
0:00:00.00 497900 N 0 0 0
0:00:00.00 498353 N 0 0 0
0:00:00.00 498668 N 0 0 0
0:00:00.00 498982 N 0 0 0
0:00:00.00 499216 N 0 0 0
0:00:00.00 499579 N 0 0 0
0:00:00.00 499907 N 0 0 0
0:00:00.00 500234 N 0 0 0
0:00:00.00 500555 N 0 0 0
0:00:00.00 500879 N 0 0 0
0:00:00.00 501208 N 0 0 0
0:00:00.00 501527 N 0 0 0
0:00:00.00 501845 N 0 0 0
0:00:00.00 502168 N 0 0 0
0:00:00.00 502479 N 0 0 0
0:00:00.00 502789 N 0 0 0
0:00:00.00 503109 N 0 0 0
0:00:00.00 503334 N 0 0 0
0:00:00.00 503703 N 0 0 0
0:00:00.00 504043 N 0 0 0
0:00:00.00 504360 N 0 0 0
0:00:00.00 504680 N 0 0 0
0:00:00.00 505006 N 0 0 0
0:00:00.00 505319 N 0 0 0
0:00:00.00 505636 N 0 0 0
0:00:00.00 505949 N 0 0 0
0:00:00.00 506254 N 0 0 0
0:00:00.00 506569 N 0 0 0
0:00:00.00 506878 N 0 0 0
0:00:00.00 507103 N 0 0 0
0:00:00.00 507460 N 0 0 0
0:00:00.00 507766 N 0 0 0
0:00:00.00 508079 N 0 0 0
0:00:00.00 508388 N 0 0 0
0:00:00.00 508610 N 0 0 0
0:00:00.00 508952 N 0 0 0
0:00:00.00 509260 N 0 0 0
0:00:00.00 509564 N 0 0 0
0:00:00.00 509873 N 0 0 0
0:00:00.00 510097 N 0 0 0
0:00:00.00 510440 N 0 0 0
0:00:00.00 510745 N 0 0 0
0:00:00.00 511058 N 0 0 0
0:00:00.00 511364 N 0 0 0
0:00:00.00 511663 N 0 0 0
0:00:00.00 511969 N 0 0 0
0:00:00.00 512269 N 0 0 0
0:00:00.00 512491 N 0 0 0
0:00:00.00 512845 N 0 0 0
0:00:00.00 513155 N 0 0 0
0:00:00.00 513464 N 0 0 0
0:00:00.00 513691 N 0 0 0
0:00:00.00 514040 N 0 0 0
0:00:00.00 514354 N 0 0 0
0:00:00.00 514663 N 0 0 0
0:00:00.00 514894 N 0 0 0
0:00:00.00 515245 N 0 0 0
0:00:00.00 515560 N 0 0 0
0:00:00.00 515876 N 0 0 0
0:00:00.00 516186 N 0 0 0
0:00:00.00 516492 N 0 0 0
0:00:00.00 516809 N 0 0 0
0:00:00.00 517113 N 0 0 0
0:00:00.00 517412 N 0 0 0
0:00:00.00 517723 N 0 0 0
0:00:00.00 518031 N 0 0 0
0:00:00.00 518335 N 0 0 0
0:00:00.00 518654 N 0 0 0
0:00:00.00 518965 N 0 0 0
0:00:00.00 519271 N 0 0 0
0:00:00.00 519590 N 0 0 0
0:00:00.00 519903 N 0 0 0
0:00:00.00 520214 N 0 0 0
0:00:00.00 520526 N 0 0 0
0:00:00.00 520835 N 0 0 0
0:00:00.00 521147 N 0 0 0
0:00:00.00 521462 N 0 0 0
0:00:00.00 521782 N 0 0 0
0:00:00.00 522094 N 0 0 0
0:00:00.00 522407 N 0 0 0
0:00:00.00 522731 N 0 0 0
0:00:00.00 523044 N 0 0 0
0:00:00.00 523346 N 0 0 0
0:00:00.00 523658 N 0 0 0
0:00:00.00 523971 N 0 0 0
0:00:00.00 524281 N 0 0 0
0:00:00.00 524588 N 0 0 0
0:00:00.00 524896 N 0 0 0
0:00:00.00 525206 N 0 0 0
0:00:00.00 525514 N 0 0 0
0:00:00.00 525821 N 0 0 0
0:00:00.00 526126 N 0 0 0
0:00:00.00 526433 N 0 0 0
0:00:00.00 526743 N 0 0 0
0:00:00.00 527049 N 0 0 0
0:00:00.00 527362 N 0 0 0
0:00:00.00 527675 N 0 0 0
0:00:00.00 527978 N 0 0 0
0:00:00.00 528282 N 0 0 0
0:00:00.00 528590 N 0 0 0
0:00:00.00 528894 N 0 0 0
0:00:00.00 529196 N 0 0 0
0:00:00.00 529492 N 0 0 0
0:00:00.00 529798 N 0 0 0
0:00:00.00 530100 N 0 0 0
0:00:00.00 530397 N 0 0 0
0:00:00.00 530707 N 0 0 0
0:00:00.00 531009 N 0 0 0
0:00:00.00 531306 N 0 0 0
0:00:00.00 531619 N 0 0 0
0:00:00.00 531801 N 0 0 0
0:00:00.00 532211 N 0 0 0
0:00:00.00 532517 N 0 0 0
0:00:00.00 532818 N 0 0 0
0:00:00.00 533115 N 0 0 0
0:00:00.00 533412 N 0 0 0
0:00:00.00 533716 N 0 0 0
0:00:00.00 534015 N 0 0 0
0:00:00.00 534314 N 0 0 0
0:00:00.00 534622 N 0 0 0
0:00:00.00 534929 N 0 0 0
0:00:00.00 535232 N 0 0 0
0:00:00.00 535534 N 0 0 0
0:00:00.00 535842 N 0 0 0
0:00:00.00 536152 N 0 0 0
0:00:00.00 536458 N 0 0 0
0:00:00.00 536773 N 0 0 0
0:00:00.00 537079 N 0 0 0
0:00:00.00 537379 N 0 0 0
0:00:00.00 537691 N 0 0 0
0:00:00.00 537995 N 0 0 0
0:00:00.00 538294 N 0 0 0
0:00:00.00 538605 N 0 0 0
0:00:00.00 538913 N 0 0 0
0:00:00.00 539224 N 0 0 0
0:00:00.00 539541 N 0 0 0
0:00:00.00 539851 N 0 0 0
0:00:00.00 540166 N 0 0 0
0:00:00.00 540484 N 0 0 0
0:00:00.00 540794 N 0 0 0
0:00:00.00 541109 N 0 0 0
0:00:00.00 541417 N 0 0 0
0:00:00.00 541728 N 0 0 0
0:00:00.00 542043 N 0 0 0
0:00:00.00 542349 N 0 0 0
0:00:00.00 542662 N 0 0 0
0:00:00.00 542979 N 0 0 0
0:00:00.00 543283 N 0 0 0
0:00:00.00 543598 N 0 0 0
0:00:00.00 543910 N 0 0 0
0:00:00.00 544214 N 0 0 0
0:00:00.00 544529 N 0 0 0
0:00:00.00 544838 N 0 0 0
0:00:00.00 545143 N 0 0 0
0:00:00.00 545456 N 0 0 0
0:00:00.00 545760 N 0 0 0
0:00:00.00 546059 N 0 0 0
0:00:00.00 546376 N 0 0 0
0:00:00.00 546680 N 0 0 0
0:00:00.00 546984 N 0 0 0
0:00:00.00 547292 N 0 0 0
0:00:00.00 547596 N 0 0 0
0:00:00.00 547900 N 0 0 0
0:00:00.00 548204 N 0 0 0
0:00:00.00 548509 N 0 0 0
0:00:00.00 548813 N 0 0 0
0:00:00.00 549113 N 0 0 0
0:00:00.00 549419 N 0 0 0
0:00:00.00 549729 N 0 0 0
0:00:00.00 549947 N 0 0 0
0:00:00.00 550264 N 0 0 0
0:00:00.00 550579 N 0 0 0
0:00:00.00 550877 N 0 0 0
0:00:00.00 551187 N 0 0 0
0:00:00.00 551493 N 0 0 0
0:00:00.00 551790 N 0 0 0
0:00:00.00 552092 N 0 0 0
0:00:00.00 552404 N 0 0 0
0:00:00.00 552708 N 0 0 0
0:00:00.00 553007 N 0 0 0
0:00:00.00 553309 N 0 0 0
0:00:00.00 553608 N 0 0 0
0:00:00.00 553910 N 0 0 0
0:00:00.00 554211 N 0 0 0
0:00:00.00 554508 N 0 0 0
0:00:00.00 554805 N 0 0 0
0:00:00.00 555104 N 0 0 0
0:00:00.00 555397 N 0 0 0
0:00:00.00 555701 N 0 0 0
0:00:00.00 555993 N 0 0 0
0:00:00.00 556292 N 0 0 0
0:00:00.00 556596 N 0 0 0
0:00:00.00 556794 N 0 0 0
0:00:00.00 557089 N 0 0 0
0:00:00.00 557465 N 0 0 0
0:00:00.00 557777 N 0 0 0
0:00:00.00 558090 N 0 0 0
0:00:00.00 558400 N 0 0 0
0:00:00.00 558702 N 0 0 0
0:00:00.00 559010 N 0 0 0
0:00:00.00 559314 N 0 0 0
0:00:00.00 559609 N 0 0 0
0:00:00.00 559915 N 0 0 0
0:00:00.00 560225 N 0 0 0
0:00:00.00 560520 N 0 0 0
0:00:00.00 560821 N 0 0 0
0:00:00.00 561130 N 0 0 0
0:00:00.00 561434 N 0 0 0
0:00:00.00 561739 N 0 0 0
0:00:00.00 562039 N 0 0 0
0:00:00.00 562336 N 0 0 0
0:00:00.00 562633 N 0 0 0
0:00:00.00 562934 N 0 0 0
0:00:00.00 563231 N 0 0 0
0:00:00.00 563524 N 0 0 0
0:00:00.00 563805 N 0 0 0
0:00:00.00 564021 N 0 0 0
0:00:00.00 564338 N 0 0 0
0:00:00.00 564633 N 0 0 0
0:00:00.00 564925 N 0 0 0
0:00:00.00 565225 N 0 0 0
0:00:00.00 565522 N 0 0 0
0:00:00.00 565826 N 0 0 0
0:00:00.00 566141 N 0 0 0
0:00:00.00 566440 N 0 0 0
0:00:00.00 566746 N 0 0 0
0:00:00.00 567063 N 0 0 0
0:00:00.00 567373 N 0 0 0
0:00:00.00 567673 N 0 0 0
0:00:00.00 567979 N 0 0 0
0:00:00.00 568280 N 0 0 0
0:00:00.00 568580 N 0 0 0
0:00:00.00 568890 N 0 0 0
0:00:00.00 569189 N 0 0 0
0:00:00.00 569495 N 0 0 0
0:00:00.00 569806 N 0 0 0
0:00:00.00 570118 N 0 0 0
0:00:00.00 570436 N 0 0 0
0:00:00.00 570748 N 0 0 0
0:00:00.00 571059 N 0 0 0
0:00:00.00 571237 N 0 0 0
0:00:00.00 571673 N 0 0 0
0:00:00.00 571914 N 0 0 0
0:00:00.00 572294 N 0 0 0
0:00:00.00 572596 N 0 0 0
0:00:00.00 572908 N 0 0 0
0:00:00.00 573215 N 0 0 0
0:00:00.00 573516 N 0 0 0
0:00:00.00 573824 N 0 0 0
0:00:00.00 574126 N 0 0 0
0:00:00.00 574439 N 0 0 0
0:00:00.00 574751 N 0 0 0
0:00:00.00 575062 N 0 0 0
0:00:00.00 575368 N 0 0 0
0:00:00.00 575683 N 0 0 0
0:00:00.00 575998 N 0 0 0
0:00:00.00 576308 N 0 0 0
0:00:00.00 576617 N 0 0 0
0:00:00.00 576922 N 0 0 0
0:00:00.00 577233 N 0 0 0
0:00:00.00 577541 N 0 0 0
0:00:00.00 577854 N 0 0 0
0:00:00.00 578167 N 0 0 0
0:00:00.00 578473 N 0 0 0
0:00:00.00 578786 N 0 0 0
0:00:00.00 579094 N 0 0 0
0:00:00.00 579398 N 0 0 0
0:00:00.00 579701 N 0 0 0
0:00:00.00 580010 N 0 0 0
0:00:00.00 580307 N 0 0 0
0:00:00.00 580612 N 0 0 0
0:00:00.00 580918 N 0 0 0
0:00:00.00 581202 N 0 0 0
0:00:00.00 581501 N 0 0 0
0:00:00.00 581800 N 0 0 0
0:00:00.00 582084 N 0 0 0
0:00:00.00 582313 N 0 0 0
0:00:00.00 582626 N 0 0 0
0:00:00.00 582923 N 0 0 0
0:00:00.00 583211 N 0 0 0
0:00:00.00 583499 N 0 0 0
0:00:00.00 583783 N 0 0 0
0:00:00.00 584019 N 0 0 0
0:00:00.00 584323 N 0 0 0
0:00:00.00 584609 N 0 0 0
0:00:00.00 584730 N 0 0 0
0:00:00.00 584890 N 0 0 0
0:00:00.00 585166 N 0 0 0
0:00:00.00 585425 N 0 0 0
0:00:00.00 585695 N 0 0 0
0:00:00.00 585954 N 0 0 0
0:00:00.00 586215 N 0 0 0
0:00:00.00 586476 N 0 0 0
0:00:00.00 586741 N 0 0 0
0:00:00.00 586993 N 0 0 0
0:00:00.00 587248 N 0 0 0
0:00:00.00 587504 N 0 0 0
0:00:00.00 587767 N 0 0 0
0:00:00.00 588013 N 0 0 0
0:00:00.00 588263 N 0 0 0
0:00:00.00 588510 N 0 0 0
0:00:00.00 588755 N 0 0 0
0:00:00.00 588998 N 0 0 0
0:00:00.00 589241 N 0 0 0
0:00:00.00 589487 N 0 0 0
0:00:00.00 589729 N 0 0 0
0:00:00.00 589970 N 0 0 0
0:00:00.00 590211 N 0 0 0
0:00:00.00 590452 N 0 0 0
0:00:00.00 590701 N 0 0 0
0:00:00.00 590940 N 0 0 0
0:00:00.00 591185 N 0 0 0
0:00:00.00 591419 N 0 0 0
0:00:00.00 591669 N 0 0 0
0:00:00.00 591912 N 0 0 0
0:00:00.00 592157 N 0 0 0
0:00:00.00 592402 N 0 0 0
0:00:00.00 592652 N 0 0 0
0:00:00.00 592898 N 0 0 0
0:00:00.00 593136 N 0 0 0
0:00:00.00 593381 N 0 0 0
0:00:00.00 593629 N 0 0 0
0:00:00.00 593872 N 0 0 0
0:00:00.00 594113 N 0 0 0
0:00:00.00 594353 N 0 0 0
0:00:00.00 594596 N 0 0 0
0:00:00.00 594837 N 0 0 0
0:00:00.00 595078 N 0 0 0
0:00:00.00 595325 N 0 0 0
0:00:00.00 595570 N 0 0 0
0:00:00.00 595813 N 0 0 0
0:00:00.00 596050 N 0 0 0
0:00:00.00 596300 N 0 0 0
0:00:00.00 596545 N 0 0 0
0:00:00.00 596790 N 0 0 0
0:00:00.00 597035 N 0 0 0
0:00:00.00 597276 N 0 0 0
0:00:00.00 597517 N 0 0 0
0:00:00.00 597762 N 0 0 0
0:00:00.00 598005 N 0 0 0
0:00:00.00 598248 N 0 0 0
0:00:00.00 598491 N 0 0 0
0:00:00.00 598739 N 0 0 0
0:00:00.00 598984 N 0 0 0
0:00:00.00 599224 N 0 0 0
0:00:00.00 599414 N 0 0 0
0:00:00.00 599692 N 0 0 0
0:00:00.00 599942 N 0 0 0
0:00:00.00 600187 N 0 0 0
0:00:00.00 600439 N 0 0 0
0:00:00.00 600685 N 0 0 0
0:00:00.00 600926 N 0 0 0
0:00:00.00 601175 N 0 0 0
0:00:00.00 601430 N 0 0 0
0:00:00.00 601675 N 0 0 0
0:00:00.00 601918 N 0 0 0
0:00:00.00 602170 N 0 0 0
0:00:00.00 602426 N 0 0 0
0:00:00.00 602669 N 0 0 0
0:00:00.00 602917 N 0 0 0
0:00:00.00 603164 N 0 0 0
0:00:00.00 603410 N 0 0 0
0:00:00.00 603661 N 0 0 0
0:00:00.00 603914 N 0 0 0
0:00:00.00 604166 N 0 0 0
0:00:00.00 604420 N 0 0 0
0:00:00.00 604670 N 0 0 0
0:00:00.00 604924 N 0 0 0
0:00:00.00 605178 N 0 0 0
0:00:00.00 605434 N 0 0 0
0:00:00.00 605684 N 0 0 0
0:00:00.00 605939 N 0 0 0
0:00:00.00 606186 N 0 0 0
0:00:00.00 606440 N 0 0 0
0:00:00.00 606688 N 0 0 0
0:00:00.00 606937 N 0 0 0
0:00:00.00 607190 N 0 0 0
0:00:00.00 607446 N 0 0 0
0:00:00.00 607696 N 0 0 0
0:00:00.00 607946 N 0 0 0
0:00:00.00 608206 N 0 0 0
0:00:00.00 608463 N 0 0 0
0:00:00.00 608717 N 0 0 0
0:00:00.00 608967 N 0 0 0
0:00:00.00 609228 N 0 0 0
0:00:00.00 609475 N 0 0 0
0:00:00.00 609730 N 0 0 0
0:00:00.00 609982 N 0 0 0
0:00:00.00 610241 N 0 0 0
0:00:00.00 610490 N 0 0 0
0:00:00.00 610747 N 0 0 0
0:00:00.00 610996 N 0 0 0
0:00:00.00 611255 N 0 0 0
0:00:00.00 611509 N 0 0 0
0:00:00.00 611764 N 0 0 0
0:00:00.00 612013 N 0 0 0
0:00:00.00 612209 N 0 0 0
0:00:00.00 612628 N 0 0 0
0:00:00.00 612895 N 0 0 0
0:00:00.00 613159 N 0 0 0
0:00:00.00 613418 N 0 0 0
0:00:00.00 613674 N 0 0 0
0:00:00.00 613924 N 0 0 0
0:00:00.00 614182 N 0 0 0
0:00:00.00 614437 N 0 0 0
0:00:00.00 614684 N 0 0 0
0:00:00.00 614936 N 0 0 0
0:00:00.00 615127 N 0 0 0
0:00:00.00 615400 N 0 0 0
0:00:00.00 615654 N 0 0 0
0:00:00.00 615908 N 0 0 0
0:00:00.00 616167 N 0 0 0
0:00:00.00 616358 N 0 0 0
0:00:00.00 616644 N 0 0 0
0:00:00.00 616901 N 0 0 0
0:00:00.00 617161 N 0 0 0
0:00:00.00 617416 N 0 0 0
0:00:00.00 617674 N 0 0 0
0:00:00.00 617926 N 0 0 0
0:00:00.00 618179 N 0 0 0
0:00:00.00 618431 N 0 0 0
0:00:00.00 618689 N 0 0 0
0:00:00.00 618941 N 0 0 0
0:00:00.00 619200 N 0 0 0
0:00:00.00 619452 N 0 0 0
0:00:00.00 619700 N 0 0 0
0:00:00.00 619951 N 0 0 0
0:00:00.00 620210 N 0 0 0
0:00:00.00 620456 N 0 0 0
0:00:00.00 620707 N 0 0 0
0:00:00.00 620957 N 0 0 0
0:00:00.00 621212 N 0 0 0
0:00:00.00 621463 N 0 0 0
0:00:00.00 621709 N 0 0 0
0:00:00.00 621968 N 0 0 0
0:00:00.00 622220 N 0 0 0
0:00:00.00 622465 N 0 0 0
0:00:00.00 622712 N 0 0 0
0:00:00.00 622958 N 0 0 0
0:00:00.00 623210 N 0 0 0
0:00:00.00 623453 N 0 0 0
0:00:00.00 623704 N 0 0 0
0:00:00.00 623950 N 0 0 0
0:00:00.00 624134 N 0 0 0
0:00:00.00 624420 N 0 0 0
0:00:00.00 624677 N 0 0 0
0:00:00.00 624928 N 0 0 0
0:00:00.00 625187 N 0 0 0
0:00:00.00 625442 N 0 0 0
0:00:00.00 625694 N 0 0 0
0:00:00.00 625950 N 0 0 0
0:00:00.00 626209 N 0 0 0
0:00:00.00 626470 N 0 0 0
0:00:00.00 626715 N 0 0 0
0:00:00.00 626974 N 0 0 0
0:00:00.00 627226 N 0 0 0
0:00:00.00 627417 N 0 0 0
0:00:00.00 627592 N 0 0 0
0:00:00.00 627851 N 0 0 0
0:00:00.00 628110 N 0 0 0
0:00:00.00 628360 N 0 0 0
0:00:00.00 628609 N 0 0 0
0:00:00.00 628870 N 0 0 0
0:00:00.00 629125 N 0 0 0
0:00:00.00 629379 N 0 0 0
0:00:00.00 629622 N 0 0 0
0:00:00.00 629879 N 0 0 0
0:00:00.00 630124 N 0 0 0
0:00:00.00 630376 N 0 0 0
0:00:00.00 630628 N 0 0 0
0:00:00.00 630889 N 0 0 0
0:00:00.00 631136 N 0 0 0
0:00:00.00 631390 N 0 0 0
0:00:00.00 631638 N 0 0 0
0:00:00.00 631897 N 0 0 0
0:00:00.00 632149 N 0 0 0
0:00:00.00 632405 N 0 0 0
0:00:00.00 632655 N 0 0 0
0:00:00.00 632912 N 0 0 0
0:00:00.00 633166 N 0 0 0
0:00:00.00 633422 N 0 0 0
0:00:00.00 633676 N 0 0 0
0:00:00.00 633933 N 0 0 0
0:00:00.00 634189 N 0 0 0
0:00:00.00 634437 N 0 0 0
0:00:00.00 634700 N 0 0 0
0:00:00.00 634959 N 0 0 0
0:00:00.00 635220 N 0 0 0
0:00:00.00 635472 N 0 0 0
0:00:00.00 635735 N 0 0 0
0:00:00.00 635992 N 0 0 0
0:00:00.00 636251 N 0 0 0
0:00:00.00 636512 N 0 0 0
0:00:00.00 636777 N 0 0 0
0:00:00.00 637033 N 0 0 0
0:00:00.00 637290 N 0 0 0
0:00:00.00 637484 N 0 0 0
0:00:00.00 637907 N 0 0 0
0:00:00.00 638177 N 0 0 0
0:00:00.00 638435 N 0 0 0
0:00:00.00 638690 N 0 0 0
0:00:00.00 638944 N 0 0 0
0:00:00.00 639203 N 0 0 0
0:00:00.00 639396 N 0 0 0
0:00:00.00 639679 N 0 0 0
0:00:00.00 639936 N 0 0 0
0:00:00.00 640190 N 0 0 0
0:00:00.00 640440 N 0 0 0
0:00:00.00 640636 N 0 0 0
0:00:00.00 640917 N 0 0 0
0:00:00.00 641176 N 0 0 0
0:00:00.00 641421 N 0 0 0
0:00:00.00 641678 N 0 0 0
0:00:00.00 641932 N 0 0 0
0:00:00.00 642181 N 0 0 0
0:00:00.00 642436 N 0 0 0
0:00:00.00 642695 N 0 0 0
0:00:00.00 642942 N 0 0 0
0:00:00.00 643196 N 0 0 0
0:00:00.00 643455 N 0 0 0
0:00:00.00 643718 N 0 0 0
0:00:00.00 643970 N 0 0 0
0:00:00.00 644227 N 0 0 0
0:00:00.00 644483 N 0 0 0
0:00:00.00 644738 N 0 0 0
0:00:00.00 644992 N 0 0 0
0:00:00.00 645253 N 0 0 0
0:00:00.00 645512 N 0 0 0
0:00:00.00 645770 N 0 0 0
0:00:00.00 646029 N 0 0 0
0:00:00.00 646254 N 0 0 0
0:00:00.00 646540 N 0 0 0
0:00:00.00 646799 N 0 0 0
0:00:00.00 647068 N 0 0 0
0:00:00.00 647320 N 0 0 0
0:00:00.00 647521 N 0 0 0
0:00:00.00 647806 N 0 0 0
0:00:00.00 648072 N 0 0 0
0:00:00.00 648333 N 0 0 0
0:00:00.00 648603 N 0 0 0
0:00:00.00 648796 N 0 0 0
0:00:00.00 649228 N 0 0 0
0:00:00.00 649431 N 0 0 0
0:00:00.00 649746 N 0 0 0
