0:00:00.00 310 N 0 0 0
0:00:00.00 505 N 0 0 0
0:00:00.00 506 N 0 0 0
0:00:00.00 978 N 0 0 0
0:00:00.00 1316 N 0 0 0
0:00:00.00 1651 N 0 0 0
0:00:00.00 1971 N 0 0 0
0:00:00.00 2295 N 0 0 0
0:00:00.00 2490 N 0 0 0
0:00:00.00 2491 N 0 0 0
0:00:00.00 2957 N 0 0 0
0:00:00.00 3297 N 0 0 0
0:00:00.00 3614 N 0 0 0
0:00:00.00 3924 N 0 0 0
0:00:00.00 4258 N 0 0 0
0:00:00.00 4450 N 0 0 0
0:00:00.00 4451 N 0 0 0
0:00:00.00 4907 N 0 0 0
0:00:00.00 5240 N 0 0 0
0:00:00.00 5553 N 0 0 0
0:00:00.00 5883 N 0 0 0
0:00:00.00 6211 N 0 0 0
0:00:00.00 6522 N 0 0 0
0:00:00.00 6865 N 0 0 0
0:00:00.00 7200 N 0 0 0
0:00:00.00 7513 N 0 0 0
0:00:00.00 7711 N 0 0 0
0:00:00.00 7712 N 0 0 0
0:00:00.00 8179 N 0 0 0
0:00:00.00 8379 N 0 0 0
0:00:00.00 8380 N 0 0 0
0:00:00.00 8861 N 0 0 0
0:00:00.00 9054 N 0 0 0
0:00:00.00 9055 N 0 0 0
0:00:00.00 9531 N 0 0 0
0:00:00.00 9738 N 0 0 0
0:00:00.00 9739 N 0 0 0
0:00:00.00 10194 N 0 0 0
0:00:00.00 10411 N 0 0 0
0:00:00.00 10412 N 0 0 0
0:00:00.00 10868 N 0 0 0
0:00:00.00 11068 N 0 0 0
0:00:00.00 11069 N 0 0 0
0:00:00.00 11546 N 0 0 0
0:00:00.00 11863 N 0 0 0
0:00:00.00 12187 N 0 0 0
0:00:00.00 12502 N 0 0 0
0:00:00.00 12805 N 0 0 0
0:00:00.00 13001 N 0 0 0
0:00:00.00 13002 N 0 0 0
0:00:00.00 13463 N 0 0 0
0:00:00.00 13659 N 0 0 0
0:00:00.00 13660 N 0 0 0
0:00:00.00 14121 N 0 0 0
0:00:00.00 14327 N 0 0 0
0:00:00.00 14328 N 0 0 0
0:00:00.00 14789 N 0 0 0
0:00:00.00 14983 N 0 0 0
0:00:00.00 14984 N 0 0 0
0:00:00.00 15452 N 0 0 0
0:00:00.00 15769 N 0 0 0
0:00:00.00 16081 N 0 0 0
0:00:00.00 16405 N 0 0 0
0:00:00.00 16721 N 0 0 0
0:00:00.00 16911 N 0 0 0
0:00:00.00 16912 N 0 0 0
0:00:00.00 17392 N 0 0 0
0:00:00.00 17723 N 0 0 0
0:00:00.00 17914 N 0 0 0
0:00:00.00 17915 N 0 0 0
0:00:00.00 18389 N 0 0 0
0:00:00.00 18727 N 0 0 0
0:00:00.00 18923 N 0 0 0
0:00:00.00 18924 N 0 0 0
0:00:00.00 19404 N 0 0 0
0:00:00.00 19619 N 0 0 0
0:00:00.00 19620 N 0 0 0
0:00:00.00 20105 N 0 0 0
0:00:00.00 20438 N 0 0 0
0:00:00.00 20630 N 0 0 0
0:00:00.00 20631 N 0 0 0
0:00:00.00 21102 N 0 0 0
0:00:00.00 21299 N 0 0 0
0:00:00.00 21300 N 0 0 0
0:00:00.00 21764 N 0 0 0
0:00:00.00 21972 N 0 0 0
0:00:00.00 21973 N 0 0 0
0:00:00.00 22412 N 0 0 0
0:00:00.00 22744 N 0 0 0
0:00:00.00 23063 N 0 0 0
0:00:00.00 23382 N 0 0 0
0:00:00.00 23723 N 0 0 0
0:00:00.00 24054 N 0 0 0
0:00:00.00 24406 N 0 0 0
0:00:00.00 24748 N 0 0 0
0:00:00.00 25071 N 0 0 0
0:00:00.00 25266 N 0 0 0
0:00:00.00 25267 N 0 0 0
0:00:00.00 25756 N 0 0 0
0:00:00.00 26073 N 0 0 0
0:00:00.00 26403 N 0 0 0
0:00:00.00 26730 N 0 0 0
0:00:00.00 27048 N 0 0 0
0:00:00.00 27367 N 0 0 0
0:00:00.00 27696 N 0 0 0
0:00:00.00 27887 N 0 0 0
0:00:00.00 28372 N 0 0 0
0:00:00.00 28719 N 0 0 0
0:00:00.00 29056 N 0 0 0
0:00:00.00 29377 N 0 0 0
0:00:00.00 29705 N 0 0 0
0:00:00.00 29912 N 0 0 0
0:00:00.00 30387 N 0 0 0
0:00:00.00 30578 N 0 0 0
0:00:00.00 30579 N 0 0 0
0:00:00.00 31067 N 0 0 0
0:00:00.00 31264 N 0 0 0
0:00:00.00 31265 N 0 0 0
0:00:00.00 31728 N 0 0 0
0:00:00.00 32064 N 0 0 0
0:00:00.00 32376 N 0 0 0
0:00:00.00 32698 N 0 0 0
0:00:00.00 33025 N 0 0 0
0:00:00.00 33345 N 0 0 0
0:00:00.00 33668 N 0 0 0
0:00:00.00 34001 N 0 0 0
0:00:00.00 34330 N 0 0 0
0:00:00.00 34657 N 0 0 0
0:00:00.00 34996 N 0 0 0
0:00:00.00 35339 N 0 0 0
0:00:00.00 35667 N 0 0 0
0:00:00.00 36016 N 0 0 0
0:00:00.00 36355 N 0 0 0
0:00:00.00 36685 N 0 0 0
0:00:00.00 37029 N 0 0 0
0:00:00.00 37357 N 0 0 0
0:00:00.00 37682 N 0 0 0
0:00:00.00 38028 N 0 0 0
0:00:00.00 38353 N 0 0 0
0:00:00.00 38676 N 0 0 0
0:00:00.00 39015 N 0 0 0
0:00:00.00 39341 N 0 0 0
0:00:00.00 39659 N 0 0 0
0:00:00.00 39985 N 0 0 0
0:00:00.00 40301 N 0 0 0
0:00:00.00 40627 N 0 0 0
0:00:00.00 40952 N 0 0 0
0:00:00.00 41279 N 0 0 0
0:00:00.00 41609 N 0 0 0
0:00:00.00 41937 N 0 0 0
0:00:00.00 42128 N 0 0 0
0:00:00.00 42130 N 0 0 0
0:00:00.00 42596 N 0 0 0
0:00:00.00 42927 N 0 0 0
0:00:00.00 43250 N 0 0 0
0:00:00.00 43563 N 0 0 0
0:00:00.00 43882 N 0 0 0
0:00:00.00 44207 N 0 0 0
0:00:00.00 44518 N 0 0 0
0:00:00.00 44835 N 0 0 0
0:00:00.00 45031 N 0 0 0
0:00:00.00 45032 N 0 0 0
0:00:00.00 45493 N 0 0 0
0:00:00.00 45833 N 0 0 0
0:00:00.00 46161 N 0 0 0
0:00:00.00 46482 N 0 0 0
0:00:00.00 46815 N 0 0 0
0:00:00.00 47133 N 0 0 0
0:00:00.00 47328 N 0 0 0
0:00:00.00 47329 N 0 0 0
0:00:00.00 47796 N 0 0 0
0:00:00.00 47993 N 0 0 0
0:00:00.00 47994 N 0 0 0
0:00:00.00 48464 N 0 0 0
0:00:00.00 48704 N 0 0 0
0:00:00.00 49149 N 0 0 0
0:00:00.00 49491 N 0 0 0
0:00:00.00 49808 N 0 0 0
0:00:00.00 50005 N 0 0 0
0:00:00.00 50006 N 0 0 0
0:00:00.00 50469 N 0 0 0
0:00:00.00 50796 N 0 0 0
0:00:00.00 50987 N 0 0 0
0:00:00.00 50988 N 0 0 0
0:00:00.00 51461 N 0 0 0
0:00:00.00 51788 N 0 0 0
0:00:00.00 52116 N 0 0 0
0:00:00.00 52435 N 0 0 0
0:00:00.00 52748 N 0 0 0
0:00:00.00 52943 N 0 0 0
0:00:00.00 52944 N 0 0 0
0:00:00.00 53408 N 0 0 0
0:00:00.00 53752 N 0 0 0
0:00:00.00 54080 N 0 0 0
0:00:00.00 54396 N 0 0 0
0:00:00.00 54727 N 0 0 0
0:00:00.00 55048 N 0 0 0
0:00:00.00 55367 N 0 0 0
0:00:00.00 55699 N 0 0 0
0:00:00.00 56020 N 0 0 0
0:00:00.00 56338 N 0 0 0
0:00:00.00 56672 N 0 0 0
0:00:00.00 56987 N 0 0 0
0:00:00.00 57176 N 0 0 0
0:00:00.00 57177 N 0 0 0
0:00:00.00 57653 N 0 0 0
0:00:00.00 57972 N 0 0 0
0:00:00.00 58158 N 0 0 0
0:00:00.00 58160 N 0 0 0
0:00:00.00 58625 N 0 0 0
0:00:00.00 58944 N 0 0 0
0:00:00.00 59140 N 0 0 0
0:00:00.00 59141 N 0 0 0
0:00:00.00 59592 N 0 0 0
0:00:00.00 59792 N 0 0 0
0:00:00.00 59794 N 0 0 0
0:00:00.00 60258 N 0 0 0
0:00:00.00 60570 N 0 0 0
0:00:00.00 60755 N 0 0 0
0:00:00.00 60757 N 0 0 0
0:00:00.00 61208 N 0 0 0
0:00:00.00 61518 N 0 0 0
0:00:00.00 61845 N 0 0 0
0:00:00.00 62174 N 0 0 0
0:00:00.00 62493 N 0 0 0
0:00:00.00 62691 N 0 0 0
0:00:00.00 62692 N 0 0 0
0:00:00.00 63195 N 0 0 0
0:00:00.00 63520 N 0 0 0
0:00:00.00 63718 N 0 0 0
0:00:00.00 63719 N 0 0 0
0:00:00.00 64213 N 0 0 0
0:00:00.00 64569 N 0 0 0
0:00:00.00 64763 N 0 0 0
0:00:00.00 64765 N 0 0 0
0:00:00.00 65250 N 0 0 0
0:00:00.00 65587 N 0 0 0
0:00:00.00 65778 N 0 0 0
0:00:00.00 65779 N 0 0 0
0:00:00.00 66253 N 0 0 0
0:00:00.00 66587 N 0 0 0
0:00:00.00 66785 N 0 0 0
0:00:00.00 66786 N 0 0 0
0:00:00.00 67263 N 0 0 0
0:00:00.00 67461 N 0 0 0
0:00:00.00 67462 N 0 0 0
0:00:00.00 67936 N 0 0 0
0:00:00.00 68266 N 0 0 0
0:00:00.00 68457 N 0 0 0
0:00:00.00 68458 N 0 0 0
0:00:00.00 68916 N 0 0 0
0:00:00.00 69121 N 0 0 0
0:00:00.00 69122 N 0 0 0
0:00:00.00 69584 N 0 0 0
0:00:00.00 69789 N 0 0 0
0:00:00.00 69790 N 0 0 0
0:00:00.00 70251 N 0 0 0
0:00:00.00 70482 N 0 0 0
0:00:00.00 70484 N 0 0 0
0:00:00.00 70932 N 0 0 0
0:00:00.00 71125 N 0 0 0
0:00:00.00 71126 N 0 0 0
0:00:00.00 71599 N 0 0 0
0:00:00.00 71802 N 0 0 0
0:00:00.00 71803 N 0 0 0
0:00:00.00 72268 N 0 0 0
0:00:00.00 72606 N 0 0 0
0:00:00.00 72929 N 0 0 0
0:00:00.00 73251 N 0 0 0
0:00:00.00 73595 N 0 0 0
0:00:00.00 73923 N 0 0 0
0:00:00.00 74112 N 0 0 0
0:00:00.00 74113 N 0 0 0
0:00:00.00 74596 N 0 0 0
0:00:00.00 74801 N 0 0 0
0:00:00.00 74802 N 0 0 0
0:00:00.00 75281 N 0 0 0
0:00:00.00 75614 N 0 0 0
0:00:00.00 75933 N 0 0 0
0:00:00.00 76133 N 0 0 0
0:00:00.00 76135 N 0 0 0
0:00:00.00 76613 N 0 0 0
0:00:00.00 76809 N 0 0 0
0:00:00.00 76810 N 0 0 0
0:00:00.00 77288 N 0 0 0
0:00:00.00 77486 N 0 0 0
0:00:00.00 77487 N 0 0 0
0:00:00.00 77957 N 0 0 0
0:00:00.00 78293 N 0 0 0
0:00:00.00 78607 N 0 0 0
0:00:00.00 78942 N 0 0 0
0:00:00.00 79276 N 0 0 0
0:00:00.00 79591 N 0 0 0
0:00:00.00 79924 N 0 0 0
0:00:00.00 80263 N 0 0 0
0:00:00.00 80602 N 0 0 0
0:00:00.00 80941 N 0 0 0
0:00:00.00 81286 N 0 0 0
0:00:00.00 81635 N 0 0 0
0:00:00.00 81824 N 0 0 0
0:00:00.00 81826 N 0 0 0
0:00:00.00 82299 N 0 0 0
0:00:00.00 82641 N 0 0 0
0:00:00.00 82961 N 0 0 0
0:00:00.00 83155 N 0 0 0
0:00:00.00 83157 N 0 0 0
0:00:00.00 83631 N 0 0 0
0:00:00.00 83827 N 0 0 0
0:00:00.00 83828 N 0 0 0
0:00:00.00 84306 N 0 0 0
0:00:00.00 84635 N 0 0 0
0:00:00.00 84940 N 0 0 0
0:00:00.00 85138 N 0 0 0
0:00:00.00 85140 N 0 0 0
0:00:00.00 85603 N 0 0 0
0:00:00.00 85801 N 0 0 0
0:00:00.00 85802 N 0 0 0
0:00:00.00 86272 N 0 0 0
0:00:00.00 86588 N 0 0 0
0:00:00.00 86786 N 0 0 0
0:00:00.00 86787 N 0 0 0
0:00:00.00 87254 N 0 0 0
0:00:00.00 87573 N 0 0 0
0:00:00.00 87772 N 0 0 0
0:00:00.00 87773 N 0 0 0
0:00:00.00 88238 N 0 0 0
0:00:00.00 88574 N 0 0 0
0:00:00.00 88770 N 0 0 0
0:00:00.00 88771 N 0 0 0
0:00:00.00 89241 N 0 0 0
0:00:00.00 89507 N 0 0 0
0:00:00.00 89949 N 0 0 0
0:00:00.00 90266 N 0 0 0
0:00:00.00 90460 N 0 0 0
0:00:00.00 90462 N 0 0 0
0:00:00.00 90937 N 0 0 0
0:00:00.00 91285 N 0 0 0
0:00:00.00 91606 N 0 0 0
0:00:00.00 91919 N 0 0 0
0:00:00.00 92261 N 0 0 0
0:00:00.00 92452 N 0 0 0
0:00:00.00 92453 N 0 0 0
0:00:00.00 92919 N 0 0 0
0:00:00.00 93263 N 0 0 0
0:00:00.00 93593 N 0 0 0
0:00:00.00 93919 N 0 0 0
0:00:00.00 94241 N 0 0 0
0:00:00.00 94432 N 0 0 0
0:00:00.00 94433 N 0 0 0
0:00:00.00 94909 N 0 0 0
0:00:00.00 95246 N 0 0 0
0:00:00.00 95567 N 0 0 0
0:00:00.00 95882 N 0 0 0
0:00:00.00 96206 N 0 0 0
0:00:00.00 96402 N 0 0 0
0:00:00.00 96404 N 0 0 0
0:00:00.00 96879 N 0 0 0
0:00:00.00 97215 N 0 0 0
0:00:00.00 97552 N 0 0 0
0:00:00.00 97873 N 0 0 0
0:00:00.00 98065 N 0 0 0
0:00:00.00 98067 N 0 0 0
0:00:00.00 98533 N 0 0 0
0:00:00.00 98726 N 0 0 0
0:00:00.00 98728 N 0 0 0
0:00:00.00 99202 N 0 0 0
0:00:00.00 99532 N 0 0 0
0:00:00.00 99847 N 0 0 0
0:00:00.00 100038 N 0 0 0
0:00:00.00 100040 N 0 0 0
0:00:00.00 100512 N 0 0 0
0:00:00.00 100833 N 0 0 0
0:00:00.00 101152 N 0 0 0
0:00:00.00 101345 N 0 0 0
0:00:00.00 101346 N 0 0 0
0:00:00.00 101813 N 0 0 0
0:00:00.00 102012 N 0 0 0
0:00:00.00 102013 N 0 0 0
0:00:00.00 102472 N 0 0 0
0:00:00.00 102684 N 0 0 0
0:00:00.00 102685 N 0 0 0
0:00:00.00 103151 N 0 0 0
0:00:00.00 103469 N 0 0 0
0:00:00.00 103662 N 0 0 0
0:00:00.00 103663 N 0 0 0
0:00:00.00 104113 N 0 0 0
0:00:00.00 104427 N 0 0 0
0:00:00.00 104624 N 0 0 0
0:00:00.00 104625 N 0 0 0
0:00:00.00 105068 N 0 0 0
0:00:00.00 105384 N 0 0 0
0:00:00.00 105596 N 0 0 0
0:00:00.00 105597 N 0 0 0
0:00:00.00 106033 N 0 0 0
0:00:00.00 106223 N 0 0 0
0:00:00.00 106224 N 0 0 0
0:00:00.00 106700 N 0 0 0
0:00:00.00 106896 N 0 0 0
0:00:00.00 106897 N 0 0 0
0:00:00.00 107364 N 0 0 0
0:00:00.00 107575 N 0 0 0
0:00:00.00 107576 N 0 0 0
0:00:00.00 108028 N 0 0 0
0:00:00.00 108363 N 0 0 0
0:00:00.00 108555 N 0 0 0
0:00:00.00 108557 N 0 0 0
0:00:00.00 109016 N 0 0 0
0:00:00.00 109341 N 0 0 0
0:00:00.00 109533 N 0 0 0
0:00:00.00 109534 N 0 0 0
0:00:00.00 109997 N 0 0 0
0:00:00.00 110318 N 0 0 0
0:00:00.00 110508 N 0 0 0
0:00:00.00 110509 N 0 0 0
0:00:00.00 110975 N 0 0 0
0:00:00.00 111301 N 0 0 0
0:00:00.00 111490 N 0 0 0
0:00:00.00 111491 N 0 0 0
0:00:00.00 111955 N 0 0 0
0:00:00.00 112280 N 0 0 0
0:00:00.00 112474 N 0 0 0
0:00:00.00 112475 N 0 0 0
0:00:00.00 112938 N 0 0 0
0:00:00.00 113130 N 0 0 0
0:00:00.00 113131 N 0 0 0
0:00:00.00 113600 N 0 0 0
0:00:00.00 113909 N 0 0 0
0:00:00.00 114210 N 0 0 0
0:00:00.00 114525 N 0 0 0
0:00:00.00 114830 N 0 0 0
0:00:00.00 115149 N 0 0 0
0:00:00.00 115478 N 0 0 0
0:00:00.00 115789 N 0 0 0
0:00:00.00 115979 N 0 0 0
0:00:00.00 115980 N 0 0 0
0:00:00.00 116458 N 0 0 0
0:00:00.00 116656 N 0 0 0
0:00:00.00 116657 N 0 0 0
0:00:00.00 117117 N 0 0 0
0:00:00.00 117442 N 0 0 0
0:00:00.00 117752 N 0 0 0
0:00:00.00 117948 N 0 0 0
0:00:00.00 117950 N 0 0 0
0:00:00.00 118412 N 0 0 0
0:00:00.00 118730 N 0 0 0
0:00:00.00 118933 N 0 0 0
0:00:00.00 118934 N 0 0 0
0:00:00.00 119392 N 0 0 0
0:00:00.00 119707 N 0 0 0
0:00:00.00 119902 N 0 0 0
0:00:00.00 119903 N 0 0 0
0:00:00.00 120355 N 0 0 0
0:00:00.00 120674 N 0 0 0
0:00:00.00 120870 N 0 0 0
0:00:00.00 120871 N 0 0 0
0:00:00.00 121310 N 0 0 0
0:00:00.00 121638 N 0 0 0
0:00:00.00 121828 N 0 0 0
0:00:00.00 121830 N 0 0 0
0:00:00.00 122268 N 0 0 0
0:00:00.00 122585 N 0 0 0
0:00:00.00 122776 N 0 0 0
0:00:00.00 122777 N 0 0 0
0:00:00.00 123231 N 0 0 0
0:00:00.00 123558 N 0 0 0
0:00:00.00 123876 N 0 0 0
0:00:00.00 124191 N 0 0 0
0:00:00.00 124385 N 0 0 0
0:00:00.00 124386 N 0 0 0
0:00:00.00 124838 N 0 0 0
0:00:00.00 125036 N 0 0 0
0:00:00.00 125037 N 0 0 0
0:00:00.00 125485 N 0 0 0
0:00:00.00 125805 N 0 0 0
0:00:00.00 126113 N 0 0 0
0:00:00.00 126423 N 0 0 0
0:00:00.00 126740 N 0 0 0
0:00:00.00 127048 N 0 0 0
0:00:00.00 127364 N 0 0 0
0:00:00.00 127684 N 0 0 0
0:00:00.00 127992 N 0 0 0
0:00:00.00 128310 N 0 0 0
0:00:00.00 128645 N 0 0 0
0:00:00.00 128958 N 0 0 0
0:00:00.00 129276 N 0 0 0
0:00:00.00 129608 N 0 0 0
0:00:00.00 129922 N 0 0 0
0:00:00.00 130108 N 0 0 0
0:00:00.00 130110 N 0 0 0
0:00:00.00 130571 N 0 0 0
0:00:00.00 130765 N 0 0 0
0:00:00.00 130767 N 0 0 0
0:00:00.00 131232 N 0 0 0
0:00:00.00 131559 N 0 0 0
0:00:00.00 131866 N 0 0 0
0:00:00.00 132071 N 0 0 0
0:00:00.00 132072 N 0 0 0
0:00:00.00 132530 N 0 0 0
0:00:00.00 132724 N 0 0 0
0:00:00.00 132725 N 0 0 0
0:00:00.00 133185 N 0 0 0
0:00:00.00 133500 N 0 0 0
0:00:00.00 133691 N 0 0 0
0:00:00.00 133693 N 0 0 0
0:00:00.00 134148 N 0 0 0
0:00:00.00 134463 N 0 0 0
0:00:00.00 134650 N 0 0 0
0:00:00.00 134651 N 0 0 0
0:00:00.00 135109 N 0 0 0
0:00:00.00 135424 N 0 0 0
0:00:00.00 135613 N 0 0 0
0:00:00.00 135614 N 0 0 0
0:00:00.00 136069 N 0 0 0
0:00:00.00 136388 N 0 0 0
0:00:00.00 136585 N 0 0 0
0:00:00.00 136586 N 0 0 0
0:00:00.00 137046 N 0 0 0
0:00:00.00 137363 N 0 0 0
0:00:00.00 137562 N 0 0 0
0:00:00.00 137563 N 0 0 0
0:00:00.00 138027 N 0 0 0
0:00:00.00 138335 N 0 0 0
0:00:00.00 138523 N 0 0 0
0:00:00.00 138525 N 0 0 0
0:00:00.00 138975 N 0 0 0
0:00:00.00 139295 N 0 0 0
0:00:00.00 139610 N 0 0 0
0:00:00.00 139931 N 0 0 0
0:00:00.00 140264 N 0 0 0
0:00:00.00 140588 N 0 0 0
0:00:00.00 140915 N 0 0 0
0:00:00.00 141241 N 0 0 0
0:00:00.00 141563 N 0 0 0
0:00:00.00 141899 N 0 0 0
0:00:00.00 142096 N 0 0 0
0:00:00.00 142098 N 0 0 0
0:00:00.00 142565 N 0 0 0
0:00:00.00 142911 N 0 0 0
0:00:00.00 143231 N 0 0 0
0:00:00.00 143536 N 0 0 0
0:00:00.00 143865 N 0 0 0
0:00:00.00 144176 N 0 0 0
0:00:00.00 144496 N 0 0 0
0:00:00.00 144824 N 0 0 0
0:00:00.00 145136 N 0 0 0
0:00:00.00 145459 N 0 0 0
0:00:00.00 145792 N 0 0 0
0:00:00.00 146109 N 0 0 0
0:00:00.00 146424 N 0 0 0
0:00:00.00 146754 N 0 0 0
0:00:00.00 147076 N 0 0 0
0:00:00.00 147403 N 0 0 0
0:00:00.00 147725 N 0 0 0
0:00:00.00 148042 N 0 0 0
0:00:00.00 148366 N 0 0 0
0:00:00.00 148688 N 0 0 0
0:00:00.00 148998 N 0 0 0
0:00:00.00 149318 N 0 0 0
0:00:00.00 149645 N 0 0 0
0:00:00.00 149967 N 0 0 0
0:00:00.00 150280 N 0 0 0
0:00:00.00 150605 N 0 0 0
0:00:00.00 150933 N 0 0 0
0:00:00.00 151235 N 0 0 0
0:00:00.00 151548 N 0 0 0
0:00:00.00 151741 N 0 0 0
0:00:00.00 152195 N 0 0 0
0:00:00.00 152533 N 0 0 0
0:00:00.00 152858 N 0 0 0
0:00:00.00 153167 N 0 0 0
0:00:00.00 153491 N 0 0 0
0:00:00.00 153693 N 0 0 0
0:00:00.00 154155 N 0 0 0
0:00:00.00 154491 N 0 0 0
0:00:00.00 154803 N 0 0 0
0:00:00.00 155125 N 0 0 0
0:00:00.00 155457 N 0 0 0
0:00:00.00 155769 N 0 0 0
0:00:00.00 156100 N 0 0 0
0:00:00.00 156440 N 0 0 0
0:00:00.00 156761 N 0 0 0
0:00:00.00 156948 N 0 0 0
0:00:00.00 157425 N 0 0 0
0:00:00.00 157752 N 0 0 0
0:00:00.00 157951 N 0 0 0
0:00:00.00 157952 N 0 0 0
0:00:00.00 158426 N 0 0 0
0:00:00.00 158749 N 0 0 0
0:00:00.00 158951 N 0 0 0
0:00:00.00 158952 N 0 0 0
0:00:00.00 159428 N 0 0 0
0:00:00.00 159745 N 0 0 0
0:00:00.00 159938 N 0 0 0
0:00:00.00 159939 N 0 0 0
0:00:00.00 160394 N 0 0 0
0:00:00.00 160716 N 0 0 0
0:00:00.00 160906 N 0 0 0
0:00:00.00 160907 N 0 0 0
0:00:00.00 161356 N 0 0 0
0:00:00.00 161558 N 0 0 0
0:00:00.00 161560 N 0 0 0
0:00:00.00 162017 N 0 0 0
0:00:00.00 162334 N 0 0 0
0:00:00.00 162639 N 0 0 0
0:00:00.00 162830 N 0 0 0
0:00:00.00 162831 N 0 0 0
0:00:00.00 163306 N 0 0 0
0:00:00.00 163625 N 0 0 0
0:00:00.00 163950 N 0 0 0
0:00:00.00 164292 N 0 0 0
0:00:00.00 164611 N 0 0 0
0:00:00.00 164931 N 0 0 0
0:00:00.00 165265 N 0 0 0
0:00:00.00 165585 N 0 0 0
0:00:00.00 165777 N 0 0 0
0:00:00.00 165778 N 0 0 0
0:00:00.00 166258 N 0 0 0
0:00:00.00 166452 N 0 0 0
0:00:00.00 166453 N 0 0 0
0:00:00.00 166929 N 0 0 0
0:00:00.00 167268 N 0 0 0
0:00:00.00 167578 N 0 0 0
0:00:00.00 167776 N 0 0 0
0:00:00.00 167777 N 0 0 0
0:00:00.00 168244 N 0 0 0
0:00:00.00 168444 N 0 0 0
0:00:00.00 168445 N 0 0 0
0:00:00.00 168915 N 0 0 0
0:00:00.00 169113 N 0 0 0
0:00:00.00 169114 N 0 0 0
0:00:00.00 169583 N 0 0 0
0:00:00.00 169917 N 0 0 0
0:00:00.00 170223 N 0 0 0
0:00:00.00 170540 N 0 0 0
0:00:00.00 170862 N 0 0 0
0:00:00.00 171054 N 0 0 0
0:00:00.00 171055 N 0 0 0
0:00:00.00 171527 N 0 0 0
0:00:00.00 171865 N 0 0 0
0:00:00.00 172201 N 0 0 0
0:00:00.00 172518 N 0 0 0
0:00:00.00 172839 N 0 0 0
0:00:00.00 173037 N 0 0 0
0:00:00.00 173038 N 0 0 0
0:00:00.00 173504 N 0 0 0
0:00:00.00 173853 N 0 0 0
0:00:00.00 174182 N 0 0 0
0:00:00.00 174497 N 0 0 0
0:00:00.00 174835 N 0 0 0
0:00:00.00 175152 N 0 0 0
0:00:00.00 175468 N 0 0 0
0:00:00.00 175806 N 0 0 0
0:00:00.00 176121 N 0 0 0
0:00:00.00 176443 N 0 0 0
0:00:00.00 176782 N 0 0 0
0:00:00.00 177108 N 0 0 0
0:00:00.00 177431 N 0 0 0
0:00:00.00 177765 N 0 0 0
0:00:00.00 178088 N 0 0 0
0:00:00.00 178404 N 0 0 0
0:00:00.00 178728 N 0 0 0
0:00:00.00 179053 N 0 0 0
0:00:00.00 179377 N 0 0 0
0:00:00.00 179697 N 0 0 0
0:00:00.00 180015 N 0 0 0
0:00:00.00 180336 N 0 0 0
0:00:00.00 180660 N 0 0 0
0:00:00.00 180976 N 0 0 0
0:00:00.00 181287 N 0 0 0
0:00:00.00 181612 N 0 0 0
0:00:00.00 181937 N 0 0 0
0:00:00.00 182252 N 0 0 0
0:00:00.00 182577 N 0 0 0
0:00:00.00 182900 N 0 0 0
0:00:00.00 183224 N 0 0 0
0:00:00.00 183551 N 0 0 0
0:00:00.00 183874 N 0 0 0
0:00:00.00 184192 N 0 0 0
0:00:00.00 184527 N 0 0 0
0:00:00.00 184848 N 0 0 0
0:00:00.00 185172 N 0 0 0
0:00:00.00 185505 N 0 0 0
0:00:00.00 185823 N 0 0 0
0:00:00.00 186146 N 0 0 0
0:00:00.00 186470 N 0 0 0
0:00:00.00 186785 N 0 0 0
0:00:00.00 187104 N 0 0 0
0:00:00.00 187438 N 0 0 0
0:00:00.00 187765 N 0 0 0
0:00:00.00 188078 N 0 0 0
0:00:00.00 188419 N 0 0 0
0:00:00.00 188753 N 0 0 0
0:00:00.00 189065 N 0 0 0
0:00:00.00 189394 N 0 0 0
0:00:00.00 189716 N 0 0 0
0:00:00.00 190035 N 0 0 0
0:00:00.00 190362 N 0 0 0
0:00:00.00 190681 N 0 0 0
0:00:00.00 191005 N 0 0 0
0:00:00.00 191334 N 0 0 0
0:00:00.00 191651 N 0 0 0
0:00:00.00 191968 N 0 0 0
0:00:00.00 192293 N 0 0 0
0:00:00.00 192617 N 0 0 0
0:00:00.00 192942 N 0 0 0
0:00:00.00 193266 N 0 0 0
0:00:00.00 193591 N 0 0 0
0:00:00.00 193907 N 0 0 0
0:00:00.00 194220 N 0 0 0
0:00:00.00 194531 N 0 0 0
0:00:00.00 194840 N 0 0 0
0:00:00.00 195154 N 0 0 0
0:00:00.00 195476 N 0 0 0
0:00:00.00 195783 N 0 0 0
0:00:00.00 196110 N 0 0 0
0:00:00.00 196310 N 0 0 0
0:00:00.00 196312 N 0 0 0
0:00:00.00 196775 N 0 0 0
0:00:00.00 197115 N 0 0 0
0:00:00.00 197441 N 0 0 0
0:00:00.00 197757 N 0 0 0
0:00:00.00 198093 N 0 0 0
0:00:00.00 198281 N 0 0 0
0:00:00.00 198282 N 0 0 0
0:00:00.00 198754 N 0 0 0
0:00:00.00 199103 N 0 0 0
0:00:00.00 199435 N 0 0 0
0:00:00.00 199758 N 0 0 0
0:00:00.00 200085 N 0 0 0
0:00:00.00 200275 N 0 0 0
0:00:00.00 200277 N 0 0 0
0:00:00.00 200760 N 0 0 0
0:00:00.00 201102 N 0 0 0
0:00:00.00 201432 N 0 0 0
0:00:00.00 201756 N 0 0 0
0:00:00.00 202083 N 0 0 0
0:00:00.00 202272 N 0 0 0
0:00:00.00 202273 N 0 0 0
0:00:00.00 202745 N 0 0 0
0:00:00.00 203087 N 0 0 0
0:00:00.00 203415 N 0 0 0
0:00:00.00 203723 N 0 0 0
0:00:00.00 204051 N 0 0 0
0:00:00.00 204368 N 0 0 0
0:00:00.00 204561 N 0 0 0
0:00:00.00 204562 N 0 0 0
0:00:00.00 205039 N 0 0 0
0:00:00.00 205361 N 0 0 0
0:00:00.00 205553 N 0 0 0
0:00:00.00 205554 N 0 0 0
0:00:00.00 206046 N 0 0 0
0:00:00.00 206374 N 0 0 0
0:00:00.00 206564 N 0 0 0
0:00:00.00 206565 N 0 0 0
0:00:00.00 207050 N 0 0 0
0:00:00.00 207384 N 0 0 0
0:00:00.00 207574 N 0 0 0
0:00:00.00 207575 N 0 0 0
0:00:00.00 208043 N 0 0 0
0:00:00.00 208379 N 0 0 0
0:00:00.00 208575 N 0 0 0
0:00:00.00 208576 N 0 0 0
0:00:00.00 209045 N 0 0 0
0:00:00.00 209379 N 0 0 0
0:00:00.00 209573 N 0 0 0
0:00:00.00 209574 N 0 0 0
0:00:00.00 210044 N 0 0 0
0:00:00.00 210244 N 0 0 0
0:00:00.00 210246 N 0 0 0
0:00:00.00 210720 N 0 0 0
0:00:00.00 211040 N 0 0 0
0:00:00.00 211239 N 0 0 0
0:00:00.00 211240 N 0 0 0
0:00:00.00 211696 N 0 0 0
0:00:00.00 212028 N 0 0 0
0:00:00.00 212227 N 0 0 0
0:00:00.00 212228 N 0 0 0
0:00:00.00 212687 N 0 0 0
0:00:00.00 213005 N 0 0 0
0:00:00.00 213193 N 0 0 0
0:00:00.00 213194 N 0 0 0
0:00:00.00 213651 N 0 0 0
0:00:00.00 213848 N 0 0 0
0:00:00.00 213849 N 0 0 0
0:00:00.00 214313 N 0 0 0
0:00:00.00 214622 N 0 0 0
0:00:00.00 214823 N 0 0 0
0:00:00.00 214824 N 0 0 0
0:00:00.00 215271 N 0 0 0
0:00:00.00 215580 N 0 0 0
0:00:00.00 215775 N 0 0 0
0:00:00.00 215776 N 0 0 0
0:00:00.00 216254 N 0 0 0
0:00:00.00 216592 N 0 0 0
0:00:00.00 216782 N 0 0 0
0:00:00.00 216783 N 0 0 0
0:00:00.00 217261 N 0 0 0
0:00:00.00 217594 N 0 0 0
0:00:00.00 217924 N 0 0 0
0:00:00.00 218245 N 0 0 0
0:00:00.00 218566 N 0 0 0
0:00:00.00 218890 N 0 0 0
0:00:00.00 219220 N 0 0 0
0:00:00.00 219537 N 0 0 0
0:00:00.00 219737 N 0 0 0
0:00:00.00 219738 N 0 0 0
0:00:00.00 220211 N 0 0 0
0:00:00.00 220535 N 0 0 0
0:00:00.00 220728 N 0 0 0
0:00:00.00 220729 N 0 0 0
0:00:00.00 221195 N 0 0 0
0:00:00.00 221390 N 0 0 0
0:00:00.00 221391 N 0 0 0
0:00:00.00 221865 N 0 0 0
0:00:00.00 222185 N 0 0 0
0:00:00.00 222491 N 0 0 0
0:00:00.00 222811 N 0 0 0
0:00:00.00 223131 N 0 0 0
0:00:00.00 223444 N 0 0 0
0:00:00.00 223771 N 0 0 0
0:00:00.00 223961 N 0 0 0
0:00:00.00 223962 N 0 0 0
0:00:00.00 224430 N 0 0 0
0:00:00.00 224780 N 0 0 0
0:00:00.00 225095 N 0 0 0
0:00:00.00 225405 N 0 0 0
0:00:00.00 225742 N 0 0 0
0:00:00.00 225933 N 0 0 0
0:00:00.00 225934 N 0 0 0
0:00:00.00 226404 N 0 0 0
0:00:00.00 226755 N 0 0 0
0:00:00.00 227083 N 0 0 0
0:00:00.00 227409 N 0 0 0
0:00:00.00 227740 N 0 0 0
0:00:00.00 227929 N 0 0 0
0:00:00.00 227931 N 0 0 0
0:00:00.00 228419 N 0 0 0
0:00:00.00 228764 N 0 0 0
0:00:00.00 229085 N 0 0 0
0:00:00.00 229396 N 0 0 0
0:00:00.00 229723 N 0 0 0
0:00:00.00 230054 N 0 0 0
0:00:00.00 230366 N 0 0 0
0:00:00.00 230697 N 0 0 0
0:00:00.00 231028 N 0 0 0
0:00:00.00 231341 N 0 0 0
0:00:00.00 231667 N 0 0 0
0:00:00.00 231992 N 0 0 0
0:00:00.00 232311 N 0 0 0
0:00:00.00 232647 N 0 0 0
0:00:00.00 232966 N 0 0 0
0:00:00.00 233283 N 0 0 0
0:00:00.00 233624 N 0 0 0
0:00:00.00 233937 N 0 0 0
0:00:00.00 234122 N 0 0 0
0:00:00.00 234123 N 0 0 0
0:00:00.00 234597 N 0 0 0
0:00:00.00 234920 N 0 0 0
0:00:00.00 235113 N 0 0 0
0:00:00.00 235114 N 0 0 0
0:00:00.00 235584 N 0 0 0
0:00:00.00 235908 N 0 0 0
0:00:00.00 236234 N 0 0 0
0:00:00.00 236557 N 0 0 0
0:00:00.00 236865 N 0 0 0
0:00:00.00 237182 N 0 0 0
0:00:00.00 237511 N 0 0 0
0:00:00.00 237838 N 0 0 0
0:00:00.00 238151 N 0 0 0
0:00:00.00 238484 N 0 0 0
0:00:00.00 238812 N 0 0 0
0:00:00.00 239138 N 0 0 0
0:00:00.00 239467 N 0 0 0
0:00:00.00 239792 N 0 0 0
0:00:00.00 240117 N 0 0 0
0:00:00.00 240457 N 0 0 0
0:00:00.00 240778 N 0 0 0
0:00:00.00 240973 N 0 0 0
0:00:00.00 241459 N 0 0 0
0:00:00.00 241788 N 0 0 0
0:00:00.00 241983 N 0 0 0
0:00:00.00 241984 N 0 0 0
0:00:00.00 242451 N 0 0 0
0:00:00.00 242777 N 0 0 0
0:00:00.00 242971 N 0 0 0
0:00:00.00 242972 N 0 0 0
0:00:00.00 243447 N 0 0 0
0:00:00.00 243764 N 0 0 0
0:00:00.00 244096 N 0 0 0
0:00:00.00 244414 N 0 0 0
0:00:00.00 244721 N 0 0 0
0:00:00.00 244918 N 0 0 0
0:00:00.00 244919 N 0 0 0
0:00:00.00 245391 N 0 0 0
0:00:00.00 245718 N 0 0 0
0:00:00.00 245915 N 0 0 0
0:00:00.00 245916 N 0 0 0
0:00:00.00 246385 N 0 0 0
0:00:00.00 246708 N 0 0 0
0:00:00.00 247030 N 0 0 0
0:00:00.00 247348 N 0 0 0
0:00:00.00 247666 N 0 0 0
0:00:00.00 247855 N 0 0 0
0:00:00.00 247856 N 0 0 0
0:00:00.00 248321 N 0 0 0
0:00:00.00 248650 N 0 0 0
0:00:00.00 248845 N 0 0 0
0:00:00.00 248846 N 0 0 0
0:00:00.00 249309 N 0 0 0
0:00:00.00 249648 N 0 0 0
0:00:00.00 249976 N 0 0 0
0:00:00.00 250284 N 0 0 0
0:00:00.00 250600 N 0 0 0
0:00:00.00 250924 N 0 0 0
0:00:00.00 251241 N 0 0 0
0:00:00.00 251557 N 0 0 0
0:00:00.00 251881 N 0 0 0
0:00:00.00 252204 N 0 0 0
0:00:00.00 252528 N 0 0 0
0:00:00.00 252843 N 0 0 0
0:00:00.00 253165 N 0 0 0
0:00:00.00 253479 N 0 0 0
0:00:00.00 253809 N 0 0 0
0:00:00.00 254136 N 0 0 0
0:00:00.00 254444 N 0 0 0
0:00:00.00 254776 N 0 0 0
0:00:00.00 254968 N 0 0 0
0:00:00.00 255433 N 0 0 0
0:00:00.00 255774 N 0 0 0
0:00:00.00 256091 N 0 0 0
0:00:00.00 256416 N 0 0 0
0:00:00.00 256747 N 0 0 0
0:00:00.00 256937 N 0 0 0
0:00:00.00 256938 N 0 0 0
0:00:00.00 257412 N 0 0 0
0:00:00.00 257754 N 0 0 0
0:00:00.00 258070 N 0 0 0
0:00:00.00 258385 N 0 0 0
0:00:00.00 258698 N 0 0 0
0:00:00.00 258890 N 0 0 0
0:00:00.00 258891 N 0 0 0
0:00:00.00 259359 N 0 0 0
0:00:00.00 259689 N 0 0 0
0:00:00.00 260011 N 0 0 0
0:00:00.00 260329 N 0 0 0
0:00:00.00 260658 N 0 0 0
0:00:00.00 260845 N 0 0 0
0:00:00.00 260846 N 0 0 0
0:00:00.00 261322 N 0 0 0
0:00:00.00 261670 N 0 0 0
0:00:00.00 262001 N 0 0 0
0:00:00.00 262327 N 0 0 0
0:00:00.00 262665 N 0 0 0
0:00:00.00 262988 N 0 0 0
0:00:00.00 263179 N 0 0 0
0:00:00.00 263180 N 0 0 0
0:00:00.00 263658 N 0 0 0
0:00:00.00 263984 N 0 0 0
0:00:00.00 264174 N 0 0 0
0:00:00.00 264176 N 0 0 0
0:00:00.00 264659 N 0 0 0
0:00:00.00 264985 N 0 0 0
0:00:00.00 265174 N 0 0 0
0:00:00.00 265176 N 0 0 0
0:00:00.00 265655 N 0 0 0
0:00:00.00 265854 N 0 0 0
0:00:00.00 265856 N 0 0 0
0:00:00.00 266344 N 0 0 0
0:00:00.00 266669 N 0 0 0
0:00:00.00 267001 N 0 0 0
0:00:00.00 267340 N 0 0 0
0:00:00.00 267655 N 0 0 0
0:00:00.00 267846 N 0 0 0
0:00:00.00 267847 N 0 0 0
0:00:00.00 268324 N 0 0 0
0:00:00.00 268522 N 0 0 0
0:00:00.00 268523 N 0 0 0
0:00:00.00 268993 N 0 0 0
0:00:00.00 269324 N 0 0 0
0:00:00.00 269639 N 0 0 0
0:00:00.00 269834 N 0 0 0
0:00:00.00 269835 N 0 0 0
0:00:00.00 270302 N 0 0 0
0:00:00.00 270500 N 0 0 0
0:00:00.00 270501 N 0 0 0
0:00:00.00 270977 N 0 0 0
0:00:00.00 271316 N 0 0 0
0:00:00.00 271627 N 0 0 0
0:00:00.00 271952 N 0 0 0
0:00:00.00 272282 N 0 0 0
0:00:00.00 272604 N 0 0 0
0:00:00.00 272794 N 0 0 0
0:00:00.00 272796 N 0 0 0
0:00:00.00 273267 N 0 0 0
0:00:00.00 273598 N 0 0 0
0:00:00.00 273792 N 0 0 0
0:00:00.00 273793 N 0 0 0
0:00:00.00 274262 N 0 0 0
0:00:00.00 274585 N 0 0 0
0:00:00.00 274776 N 0 0 0
0:00:00.00 274777 N 0 0 0
0:00:00.00 275250 N 0 0 0
0:00:00.00 275579 N 0 0 0
0:00:00.00 275768 N 0 0 0
0:00:00.00 275769 N 0 0 0
0:00:00.00 276241 N 0 0 0
0:00:00.00 276444 N 0 0 0
0:00:00.00 276445 N 0 0 0
0:00:00.00 276917 N 0 0 0
0:00:00.00 277112 N 0 0 0
0:00:00.00 277113 N 0 0 0
0:00:00.00 277575 N 0 0 0
0:00:00.00 277909 N 0 0 0
0:00:00.00 278218 N 0 0 0
0:00:00.00 278410 N 0 0 0
0:00:00.00 278411 N 0 0 0
0:00:00.00 278883 N 0 0 0
0:00:00.00 279213 N 0 0 0
0:00:00.00 279401 N 0 0 0
0:00:00.00 279402 N 0 0 0
0:00:00.00 279878 N 0 0 0
0:00:00.00 280203 N 0 0 0
0:00:00.00 280399 N 0 0 0
0:00:00.00 280400 N 0 0 0
0:00:00.00 280876 N 0 0 0
0:00:00.00 281200 N 0 0 0
0:00:00.00 281398 N 0 0 0
0:00:00.00 281399 N 0 0 0
0:00:00.00 281863 N 0 0 0
0:00:00.00 282187 N 0 0 0
0:00:00.00 282380 N 0 0 0
0:00:00.00 282381 N 0 0 0
0:00:00.00 282839 N 0 0 0
0:00:00.00 283037 N 0 0 0
0:00:00.00 283038 N 0 0 0
0:00:00.00 283499 N 0 0 0
0:00:00.00 283698 N 0 0 0
0:00:00.00 283699 N 0 0 0
0:00:00.00 284165 N 0 0 0
0:00:00.00 284406 N 0 0 0
0:00:00.00 284407 N 0 0 0
0:00:00.00 284848 N 0 0 0
0:00:00.00 285192 N 0 0 0
0:00:00.00 285516 N 0 0 0
0:00:00.00 285839 N 0 0 0
0:00:00.00 286166 N 0 0 0
0:00:00.00 286352 N 0 0 0
0:00:00.00 286353 N 0 0 0
0:00:00.00 286835 N 0 0 0
0:00:00.00 287180 N 0 0 0
0:00:00.00 287503 N 0 0 0
0:00:00.00 287824 N 0 0 0
0:00:00.00 288158 N 0 0 0
0:00:00.00 288488 N 0 0 0
0:00:00.00 288802 N 0 0 0
0:00:00.00 289129 N 0 0 0
0:00:00.00 289458 N 0 0 0
0:00:00.00 289785 N 0 0 0
0:00:00.00 290108 N 0 0 0
0:00:00.00 290428 N 0 0 0
0:00:00.00 290745 N 0 0 0
0:00:00.00 291078 N 0 0 0
0:00:00.00 291387 N 0 0 0
0:00:00.00 291701 N 0 0 0
0:00:00.00 292035 N 0 0 0
0:00:00.00 292350 N 0 0 0
0:00:00.00 292662 N 0 0 0
0:00:00.00 292992 N 0 0 0
0:00:00.00 293303 N 0 0 0
0:00:00.00 293626 N 0 0 0
0:00:00.00 293956 N 0 0 0
0:00:00.00 294144 N 0 0 0
0:00:00.00 294611 N 0 0 0
0:00:00.00 294954 N 0 0 0
0:00:00.00 295273 N 0 0 0
0:00:00.00 295598 N 0 0 0
0:00:00.00 295922 N 0 0 0
0:00:00.00 296239 N 0 0 0
0:00:00.00 296435 N 0 0 0
0:00:00.00 296437 N 0 0 0
0:00:00.00 296920 N 0 0 0
0:00:00.00 297114 N 0 0 0
0:00:00.00 297115 N 0 0 0
0:00:00.00 297594 N 0 0 0
0:00:00.00 297935 N 0 0 0
0:00:00.00 298252 N 0 0 0
0:00:00.00 298439 N 0 0 0
0:00:00.00 298440 N 0 0 0
0:00:00.00 298924 N 0 0 0
0:00:00.00 299125 N 0 0 0
0:00:00.00 299126 N 0 0 0
0:00:00.00 299597 N 0 0 0
0:00:00.00 299933 N 0 0 0
0:00:00.00 300256 N 0 0 0
0:00:00.00 300448 N 0 0 0
0:00:00.00 300449 N 0 0 0
0:00:00.00 300924 N 0 0 0
0:00:00.00 301263 N 0 0 0
0:00:00.00 301455 N 0 0 0
0:00:00.00 301456 N 0 0 0
0:00:00.00 301939 N 0 0 0
0:00:00.00 302132 N 0 0 0
0:00:00.00 302133 N 0 0 0
0:00:00.00 302611 N 0 0 0
0:00:00.00 302939 N 0 0 0
0:00:00.00 303255 N 0 0 0
0:00:00.00 303573 N 0 0 0
0:00:00.00 303887 N 0 0 0
0:00:00.00 304199 N 0 0 0
0:00:00.00 304533 N 0 0 0
0:00:00.00 304858 N 0 0 0
0:00:00.00 305179 N 0 0 0
0:00:00.00 305526 N 0 0 0
0:00:00.00 305860 N 0 0 0
0:00:00.00 306181 N 0 0 0
0:00:00.00 306519 N 0 0 0
0:00:00.00 306845 N 0 0 0
0:00:00.00 307175 N 0 0 0
0:00:00.00 307503 N 0 0 0
0:00:00.00 307819 N 0 0 0
0:00:00.00 308016 N 0 0 0
0:00:00.00 308017 N 0 0 0
0:00:00.00 308500 N 0 0 0
0:00:00.00 308823 N 0 0 0
0:00:00.00 309152 N 0 0 0
0:00:00.00 309484 N 0 0 0
0:00:00.00 309808 N 0 0 0
0:00:00.00 310125 N 0 0 0
0:00:00.00 310444 N 0 0 0
0:00:00.00 310769 N 0 0 0
0:00:00.00 311080 N 0 0 0
0:00:00.00 311391 N 0 0 0
0:00:00.00 311707 N 0 0 0
0:00:00.00 312020 N 0 0 0
0:00:00.00 312350 N 0 0 0
0:00:00.00 312665 N 0 0 0
0:00:00.00 312854 N 0 0 0
0:00:00.00 312855 N 0 0 0
0:00:00.00 313329 N 0 0 0
0:00:00.00 313656 N 0 0 0
0:00:00.00 313849 N 0 0 0
0:00:00.00 313850 N 0 0 0
0:00:00.00 314320 N 0 0 0
0:00:00.00 314640 N 0 0 0
0:00:00.00 314972 N 0 0 0
0:00:00.00 315300 N 0 0 0
0:00:00.00 315610 N 0 0 0
0:00:00.00 315937 N 0 0 0
0:00:00.00 316267 N 0 0 0
0:00:00.00 316574 N 0 0 0
0:00:00.00 316903 N 0 0 0
0:00:00.00 317232 N 0 0 0
0:00:00.00 317560 N 0 0 0
0:00:00.00 317882 N 0 0 0
0:00:00.00 318212 N 0 0 0
0:00:00.00 318404 N 0 0 0
0:00:00.00 318405 N 0 0 0
0:00:00.00 318884 N 0 0 0
0:00:00.00 319222 N 0 0 0
0:00:00.00 319559 N 0 0 0
0:00:00.00 319877 N 0 0 0
0:00:00.00 320209 N 0 0 0
0:00:00.00 320403 N 0 0 0
0:00:00.00 320405 N 0 0 0
0:00:00.00 320872 N 0 0 0
0:00:00.00 321221 N 0 0 0
0:00:00.00 321546 N 0 0 0
0:00:00.00 321864 N 0 0 0
0:00:00.00 322200 N 0 0 0
0:00:00.00 322521 N 0 0 0
0:00:00.00 322844 N 0 0 0
0:00:00.00 323182 N 0 0 0
0:00:00.00 323497 N 0 0 0
0:00:00.00 323686 N 0 0 0
0:00:00.00 323687 N 0 0 0
0:00:00.00 324177 N 0 0 0
0:00:00.00 324374 N 0 0 0
0:00:00.00 324375 N 0 0 0
0:00:00.00 324848 N 0 0 0
0:00:00.00 325179 N 0 0 0
0:00:00.00 325497 N 0 0 0
0:00:00.00 325695 N 0 0 0
0:00:00.00 325696 N 0 0 0
0:00:00.00 326163 N 0 0 0
0:00:00.00 326492 N 0 0 0
0:00:00.00 326817 N 0 0 0
0:00:00.00 327019 N 0 0 0
0:00:00.00 327020 N 0 0 0
0:00:00.00 327478 N 0 0 0
0:00:00.00 327811 N 0 0 0
0:00:00.00 328138 N 0 0 0
0:00:00.00 328459 N 0 0 0
0:00:00.00 328658 N 0 0 0
0:00:00.00 328659 N 0 0 0
0:00:00.00 329131 N 0 0 0
0:00:00.00 329457 N 0 0 0
0:00:00.00 329787 N 0 0 0
0:00:00.00 330114 N 0 0 0
0:00:00.00 330444 N 0 0 0
0:00:00.00 330762 N 0 0 0
0:00:00.00 331095 N 0 0 0
0:00:00.00 331423 N 0 0 0
0:00:00.00 331736 N 0 0 0
0:00:00.00 331943 N 0 0 0
0:00:00.00 331944 N 0 0 0
0:00:00.00 332413 N 0 0 0
0:00:00.00 332731 N 0 0 0
0:00:00.00 333046 N 0 0 0
0:00:00.00 333363 N 0 0 0
0:00:00.00 333683 N 0 0 0
0:00:00.00 333991 N 0 0 0
0:00:00.00 334312 N 0 0 0
0:00:00.00 334504 N 0 0 0
0:00:00.00 334505 N 0 0 0
0:00:00.00 334977 N 0 0 0
0:00:00.00 335317 N 0 0 0
0:00:00.00 335653 N 0 0 0
0:00:00.00 335968 N 0 0 0
0:00:00.00 336305 N 0 0 0
0:00:00.00 336640 N 0 0 0
0:00:00.00 336958 N 0 0 0
0:00:00.00 337295 N 0 0 0
0:00:00.00 337622 N 0 0 0
0:00:00.00 337940 N 0 0 0
0:00:00.00 338281 N 0 0 0
0:00:00.00 338613 N 0 0 0
0:00:00.00 338942 N 0 0 0
0:00:00.00 339287 N 0 0 0
0:00:00.00 339613 N 0 0 0
0:00:00.00 339949 N 0 0 0
0:00:00.00 340281 N 0 0 0
0:00:00.00 340594 N 0 0 0
0:00:00.00 340790 N 0 0 0
0:00:00.00 341263 N 0 0 0
0:00:00.00 341594 N 0 0 0
0:00:00.00 341797 N 0 0 0
0:00:00.00 342260 N 0 0 0
0:00:00.00 342595 N 0 0 0
0:00:00.00 342788 N 0 0 0
0:00:00.00 343246 N 0 0 0
0:00:00.00 343576 N 0 0 0
0:00:00.00 343767 N 0 0 0
0:00:00.00 343769 N 0 0 0
0:00:00.00 344237 N 0 0 0
0:00:00.00 344572 N 0 0 0
0:00:00.00 344764 N 0 0 0
0:00:00.00 344765 N 0 0 0
0:00:00.00 345237 N 0 0 0
0:00:00.00 345562 N 0 0 0
0:00:00.00 345755 N 0 0 0
0:00:00.00 345756 N 0 0 0
0:00:00.00 346211 N 0 0 0
0:00:00.00 346527 N 0 0 0
0:00:00.00 346718 N 0 0 0
0:00:00.00 346719 N 0 0 0
0:00:00.00 347187 N 0 0 0
0:00:00.00 347500 N 0 0 0
0:00:00.00 347690 N 0 0 0
0:00:00.00 347691 N 0 0 0
0:00:00.00 348154 N 0 0 0
0:00:00.00 348356 N 0 0 0
0:00:00.00 348357 N 0 0 0
0:00:00.00 348821 N 0 0 0
0:00:00.00 349015 N 0 0 0
0:00:00.00 349016 N 0 0 0
0:00:00.00 349473 N 0 0 0
0:00:00.00 349806 N 0 0 0
0:00:00.00 350116 N 0 0 0
0:00:00.00 350425 N 0 0 0
0:00:00.00 350744 N 0 0 0
0:00:00.00 350941 N 0 0 0
0:00:00.00 350942 N 0 0 0
0:00:00.00 351397 N 0 0 0
0:00:00.00 351730 N 0 0 0
0:00:00.00 352050 N 0 0 0
0:00:00.00 352367 N 0 0 0
0:00:00.00 352560 N 0 0 0
0:00:00.00 352561 N 0 0 0
0:00:00.00 353031 N 0 0 0
0:00:00.00 353237 N 0 0 0
0:00:00.00 353238 N 0 0 0
0:00:00.00 353705 N 0 0 0
0:00:00.00 354042 N 0 0 0
0:00:00.00 354355 N 0 0 0
0:00:00.00 354547 N 0 0 0
0:00:00.00 354548 N 0 0 0
0:00:00.00 355016 N 0 0 0
0:00:00.00 355211 N 0 0 0
0:00:00.00 355212 N 0 0 0
0:00:00.00 355673 N 0 0 0
0:00:00.00 356003 N 0 0 0
0:00:00.00 356315 N 0 0 0
0:00:00.00 356639 N 0 0 0
0:00:00.00 356963 N 0 0 0
0:00:00.00 357278 N 0 0 0
0:00:00.00 357614 N 0 0 0
0:00:00.00 357931 N 0 0 0
0:00:00.00 358121 N 0 0 0
0:00:00.00 358122 N 0 0 0
0:00:00.00 358611 N 0 0 0
0:00:00.00 358820 N 0 0 0
0:00:00.00 358821 N 0 0 0
0:00:00.00 359289 N 0 0 0
0:00:00.00 359626 N 0 0 0
0:00:00.00 359941 N 0 0 0
0:00:00.00 360267 N 0 0 0
0:00:00.00 360588 N 0 0 0
0:00:00.00 360907 N 0 0 0
0:00:00.00 361230 N 0 0 0
0:00:00.00 361561 N 0 0 0
0:00:00.00 361875 N 0 0 0
0:00:00.00 362192 N 0 0 0
0:00:00.00 362518 N 0 0 0
0:00:00.00 362836 N 0 0 0
0:00:00.00 363155 N 0 0 0
0:00:00.00 363476 N 0 0 0
0:00:00.00 363798 N 0 0 0
0:00:00.00 364122 N 0 0 0
0:00:00.00 364446 N 0 0 0
0:00:00.00 364767 N 0 0 0
0:00:00.00 365082 N 0 0 0
0:00:00.00 365410 N 0 0 0
0:00:00.00 365737 N 0 0 0
0:00:00.00 366052 N 0 0 0
0:00:00.00 366385 N 0 0 0
0:00:00.00 366578 N 0 0 0
0:00:00.00 366579 N 0 0 0
0:00:00.00 367047 N 0 0 0
0:00:00.00 367383 N 0 0 0
0:00:00.00 367701 N 0 0 0
0:00:00.00 368010 N 0 0 0
0:00:00.00 368202 N 0 0 0
0:00:00.00 368204 N 0 0 0
0:00:00.00 368664 N 0 0 0
0:00:00.00 368864 N 0 0 0
0:00:00.00 368865 N 0 0 0
0:00:00.00 369333 N 0 0 0
0:00:00.00 369673 N 0 0 0
0:00:00.00 369990 N 0 0 0
0:00:00.00 370307 N 0 0 0
0:00:00.00 370642 N 0 0 0
0:00:00.00 370973 N 0 0 0
0:00:00.00 371296 N 0 0 0
0:00:00.00 371621 N 0 0 0
0:00:00.00 371951 N 0 0 0
0:00:00.00 372272 N 0 0 0
0:00:00.00 372594 N 0 0 0
0:00:00.00 372915 N 0 0 0
0:00:00.00 373231 N 0 0 0
0:00:00.00 373571 N 0 0 0
0:00:00.00 373896 N 0 0 0
0:00:00.00 374213 N 0 0 0
0:00:00.00 374561 N 0 0 0
0:00:00.00 374899 N 0 0 0
0:00:00.00 375217 N 0 0 0
0:00:00.00 375559 N 0 0 0
0:00:00.00 375890 N 0 0 0
0:00:00.00 376079 N 0 0 0
0:00:00.00 376080 N 0 0 0
0:00:00.00 376564 N 0 0 0
0:00:00.00 376755 N 0 0 0
0:00:00.00 376756 N 0 0 0
0:00:00.00 377237 N 0 0 0
0:00:00.00 377586 N 0 0 0
0:00:00.00 377895 N 0 0 0
0:00:00.00 378210 N 0 0 0
0:00:00.00 378528 N 0 0 0
0:00:00.00 378846 N 0 0 0
0:00:00.00 379159 N 0 0 0
0:00:00.00 379479 N 0 0 0
0:00:00.00 379804 N 0 0 0
0:00:00.00 380120 N 0 0 0
0:00:00.00 380442 N 0 0 0
0:00:00.00 380761 N 0 0 0
0:00:00.00 381080 N 0 0 0
0:00:00.00 381412 N 0 0 0
0:00:00.00 381737 N 0 0 0
0:00:00.00 382062 N 0 0 0
0:00:00.00 382404 N 0 0 0
0:00:00.00 382730 N 0 0 0
0:00:00.00 382922 N 0 0 0
0:00:00.00 382923 N 0 0 0
0:00:00.00 383411 N 0 0 0
0:00:00.00 383610 N 0 0 0
0:00:00.00 383612 N 0 0 0
0:00:00.00 384108 N 0 0 0
0:00:00.00 384312 N 0 0 0
0:00:00.00 384313 N 0 0 0
0:00:00.00 384807 N 0 0 0
0:00:00.00 385166 N 0 0 0
0:00:00.00 385505 N 0 0 0
0:00:00.00 385842 N 0 0 0
0:00:00.00 386180 N 0 0 0
0:00:00.00 386514 N 0 0 0
0:00:00.00 386860 N 0 0 0
0:00:00.00 387201 N 0 0 0
0:00:00.00 387543 N 0 0 0
0:00:00.00 387746 N 0 0 0
0:00:00.00 387747 N 0 0 0
0:00:00.00 388239 N 0 0 0
0:00:00.00 388592 N 0 0 0
0:00:00.00 388780 N 0 0 0
0:00:00.00 388781 N 0 0 0
0:00:00.00 389275 N 0 0 0
0:00:00.00 389479 N 0 0 0
0:00:00.00 389480 N 0 0 0
0:00:00.00 389964 N 0 0 0
0:00:00.00 390159 N 0 0 0
0:00:00.00 390160 N 0 0 0
0:00:00.00 390649 N 0 0 0
0:00:00.00 390990 N 0 0 0
0:00:00.00 391320 N 0 0 0
0:00:00.00 391508 N 0 0 0
0:00:00.00 391510 N 0 0 0
0:00:00.00 392001 N 0 0 0
0:00:00.00 392345 N 0 0 0
0:00:00.00 392675 N 0 0 0
0:00:00.00 393018 N 0 0 0
0:00:00.00 393355 N 0 0 0
0:00:00.00 393687 N 0 0 0
0:00:00.00 393881 N 0 0 0
0:00:00.00 393882 N 0 0 0
0:00:00.00 394366 N 0 0 0
0:00:00.00 394563 N 0 0 0
0:00:00.00 394564 N 0 0 0
0:00:00.00 395057 N 0 0 0
0:00:00.00 395253 N 0 0 0
0:00:00.00 395254 N 0 0 0
0:00:00.00 395735 N 0 0 0
0:00:00.00 396095 N 0 0 0
0:00:00.00 396425 N 0 0 0
0:00:00.00 396745 N 0 0 0
0:00:00.00 397069 N 0 0 0
0:00:00.00 397410 N 0 0 0
0:00:00.00 397734 N 0 0 0
0:00:00.00 398054 N 0 0 0
0:00:00.00 398250 N 0 0 0
0:00:00.00 398251 N 0 0 0
0:00:00.00 398733 N 0 0 0
0:00:00.00 398920 N 0 0 0
0:00:00.00 398921 N 0 0 0
0:00:00.00 399394 N 0 0 0
0:00:00.00 399594 N 0 0 0
0:00:00.00 399595 N 0 0 0
0:00:00.00 400072 N 0 0 0
0:00:00.00 400407 N 0 0 0
0:00:00.00 400600 N 0 0 0
0:00:00.00 400602 N 0 0 0
0:00:00.00 401072 N 0 0 0
0:00:00.00 401385 N 0 0 0
0:00:00.00 401676 N 0 0 0
0:00:00.00 401967 N 0 0 0
0:00:00.00 402163 N 0 0 0
0:00:00.00 402514 N 0 0 0
0:00:00.00 402713 N 0 0 0
0:00:00.00 403037 N 0 0 0
0:00:00.00 403231 N 0 0 0
0:00:00.00 403232 N 0 0 0
0:00:00.00 403539 N 0 0 0
0:00:00.00 403803 N 0 0 0
0:00:00.00 404048 N 0 0 0
0:00:00.00 404237 N 0 0 0
0:00:00.00 404249 N 0 0 0
0:00:00.00 404679 N 0 0 0
0:00:00.00 404979 N 0 0 0
0:00:00.00 405284 N 0 0 0
0:00:00.00 405596 N 0 0 0
0:00:00.00 405899 N 0 0 0
0:00:00.00 406085 N 0 0 0
0:00:00.00 406097 N 0 0 0
0:00:00.00 406562 N 0 0 0
0:00:00.00 406873 N 0 0 0
0:00:00.00 407182 N 0 0 0
0:00:00.00 407505 N 0 0 0
0:00:00.00 407694 N 0 0 0
0:00:00.00 407695 N 0 0 0
0:00:00.00 408172 N 0 0 0
0:00:00.00 408363 N 0 0 0
0:00:00.00 408364 N 0 0 0
0:00:00.00 408829 N 0 0 0
0:00:00.00 409040 N 0 0 0
0:00:00.00 409041 N 0 0 0
0:00:00.00 409504 N 0 0 0
0:00:00.00 409694 N 0 0 0
0:00:00.00 409695 N 0 0 0
0:00:00.00 410161 N 0 0 0
0:00:00.00 410352 N 0 0 0
0:00:00.00 410354 N 0 0 0
0:00:00.00 410811 N 0 0 0
0:00:00.00 411119 N 0 0 0
0:00:00.00 411408 N 0 0 0
0:00:00.00 411717 N 0 0 0
0:00:00.00 412021 N 0 0 0
0:00:00.00 412216 N 0 0 0
0:00:00.00 412218 N 0 0 0
0:00:00.00 412666 N 0 0 0
0:00:00.00 412858 N 0 0 0
0:00:00.00 412859 N 0 0 0
0:00:00.00 413314 N 0 0 0
0:00:00.00 413516 N 0 0 0
0:00:00.00 413518 N 0 0 0
0:00:00.00 413953 N 0 0 0
0:00:00.00 414263 N 0 0 0
0:00:00.00 414558 N 0 0 0
0:00:00.00 414852 N 0 0 0
0:00:00.00 415043 N 0 0 0
0:00:00.00 415055 N 0 0 0
0:00:00.00 415458 N 0 0 0
0:00:00.00 415646 N 0 0 0
0:00:00.00 415647 N 0 0 0
0:00:00.00 416068 N 0 0 0
0:00:00.00 416283 N 0 0 0
0:00:00.00 416284 N 0 0 0
0:00:00.00 416668 N 0 0 0
0:00:00.00 416863 N 0 0 0
0:00:00.00 416864 N 0 0 0
0:00:00.00 417278 N 0 0 0
0:00:00.00 417488 N 0 0 0
0:00:00.00 417490 N 0 0 0
0:00:00.00 417863 N 0 0 0
0:00:00.00 418134 N 0 0 0
0:00:00.00 418405 N 0 0 0
0:00:00.00 418686 N 0 0 0
0:00:00.00 418977 N 0 0 0
0:00:00.00 419165 N 0 0 0
0:00:00.00 419166 N 0 0 0
0:00:00.00 419610 N 0 0 0
0:00:00.00 419936 N 0 0 0
0:00:00.00 420246 N 0 0 0
0:00:00.00 420565 N 0 0 0
0:00:00.00 420876 N 0 0 0
0:00:00.00 421070 N 0 0 0
0:00:00.00 421524 N 0 0 0
0:00:00.00 421844 N 0 0 0
0:00:00.00 422034 N 0 0 0
0:00:00.00 422035 N 0 0 0
0:00:00.00 422482 N 0 0 0
0:00:00.00 422796 N 0 0 0
0:00:00.00 422980 N 0 0 0
0:00:00.00 422982 N 0 0 0
0:00:00.00 423419 N 0 0 0
0:00:00.00 423729 N 0 0 0
0:00:00.00 423920 N 0 0 0
0:00:00.00 423921 N 0 0 0
0:00:00.00 424346 N 0 0 0
0:00:00.00 424649 N 0 0 0
0:00:00.00 424844 N 0 0 0
0:00:00.00 424846 N 0 0 0
0:00:00.00 425273 N 0 0 0
0:00:00.00 425471 N 0 0 0
0:00:00.00 425473 N 0 0 0
0:00:00.00 425896 N 0 0 0
0:00:00.00 426099 N 0 0 0
0:00:00.00 426100 N 0 0 0
0:00:00.00 426528 N 0 0 0
0:00:00.00 426723 N 0 0 0
0:00:00.00 426724 N 0 0 0
0:00:00.00 427142 N 0 0 0
0:00:00.00 427333 N 0 0 0
0:00:00.00 427334 N 0 0 0
0:00:00.00 427754 N 0 0 0
0:00:00.00 428051 N 0 0 0
0:00:00.00 428340 N 0 0 0
0:00:00.00 428627 N 0 0 0
0:00:00.00 428820 N 0 0 0
0:00:00.00 428821 N 0 0 0
0:00:00.00 429249 N 0 0 0
0:00:00.00 429446 N 0 0 0
0:00:00.00 429447 N 0 0 0
0:00:00.00 429864 N 0 0 0
0:00:00.00 430166 N 0 0 0
0:00:00.00 430461 N 0 0 0
0:00:00.00 430762 N 0 0 0
0:00:00.00 430951 N 0 0 0
0:00:00.00 430952 N 0 0 0
0:00:00.00 431381 N 0 0 0
0:00:00.00 431677 N 0 0 0
0:00:00.00 431977 N 0 0 0
0:00:00.00 432272 N 0 0 0
0:00:00.00 432460 N 0 0 0
0:00:00.00 432461 N 0 0 0
0:00:00.00 432878 N 0 0 0
0:00:00.00 433067 N 0 0 0
0:00:00.00 433068 N 0 0 0
0:00:00.00 433475 N 0 0 0
0:00:00.00 433763 N 0 0 0
0:00:00.00 433952 N 0 0 0
0:00:00.00 433954 N 0 0 0
0:00:00.00 434334 N 0 0 0
0:00:00.00 434621 N 0 0 0
0:00:00.00 434890 N 0 0 0
0:00:00.00 435081 N 0 0 0
0:00:00.00 435082 N 0 0 0
0:00:00.00 435459 N 0 0 0
0:00:00.00 435736 N 0 0 0
0:00:00.00 436011 N 0 0 0
0:00:00.00 436207 N 0 0 0
0:00:00.00 436216 N 0 0 0
0:00:00.00 436554 N 0 0 0
0:00:00.00 436822 N 0 0 0
0:00:00.00 437020 N 0 0 0
0:00:00.00 437021 N 0 0 0
0:00:00.00 437376 N 0 0 0
0:00:00.00 437598 N 0 0 0
0:00:00.00 437599 N 0 0 0
0:00:00.00 437854 N 0 0 0
0:00:00.00 438133 N 0 0 0
0:00:00.00 438401 N 0 0 0
0:00:00.00 438588 N 0 0 0
0:00:00.00 438590 N 0 0 0
0:00:00.00 438991 N 0 0 0
0:00:00.00 439287 N 0 0 0
0:00:00.00 439474 N 0 0 0
0:00:00.00 439475 N 0 0 0
0:00:00.00 439934 N 0 0 0
0:00:00.00 440256 N 0 0 0
0:00:00.00 440445 N 0 0 0
0:00:00.00 440446 N 0 0 0
0:00:00.00 440953 N 0 0 0
0:00:00.00 441307 N 0 0 0
0:00:00.00 441487 N 0 0 0
0:00:00.00 441488 N 0 0 0
0:00:00.00 442008 N 0 0 0
0:00:00.00 442356 N 0 0 0
0:00:00.00 442701 N 0 0 0
0:00:00.00 443034 N 0 0 0
0:00:00.00 443368 N 0 0 0
0:00:00.00 443565 N 0 0 0
0:00:00.00 443566 N 0 0 0
0:00:00.00 444063 N 0 0 0
0:00:00.00 444258 N 0 0 0
0:00:00.00 444260 N 0 0 0
0:00:00.00 444744 N 0 0 0
0:00:00.00 444939 N 0 0 0
0:00:00.00 444940 N 0 0 0
0:00:00.00 445425 N 0 0 0
0:00:00.00 445619 N 0 0 0
0:00:00.00 445620 N 0 0 0
0:00:00.00 446087 N 0 0 0
0:00:00.00 446410 N 0 0 0
0:00:00.00 446735 N 0 0 0
0:00:00.00 447053 N 0 0 0
0:00:00.00 447365 N 0 0 0
0:00:00.00 447563 N 0 0 0
0:00:00.00 447565 N 0 0 0
0:00:00.00 448034 N 0 0 0
0:00:00.00 448367 N 0 0 0
0:00:00.00 448554 N 0 0 0
0:00:00.00 448555 N 0 0 0
0:00:00.00 449029 N 0 0 0
0:00:00.00 449223 N 0 0 0
0:00:00.00 449224 N 0 0 0
0:00:00.00 449692 N 0 0 0
0:00:00.00 450008 N 0 0 0
0:00:00.00 450195 N 0 0 0
0:00:00.00 450196 N 0 0 0
0:00:00.00 450668 N 0 0 0
0:00:00.00 450988 N 0 0 0
0:00:00.00 451305 N 0 0 0
0:00:00.00 451503 N 0 0 0
0:00:00.00 451504 N 0 0 0
0:00:00.00 451970 N 0 0 0
0:00:00.00 452155 N 0 0 0
0:00:00.00 452156 N 0 0 0
0:00:00.00 452622 N 0 0 0
0:00:00.00 452816 N 0 0 0
0:00:00.00 452817 N 0 0 0
0:00:00.00 453302 N 0 0 0
0:00:00.00 453629 N 0 0 0
0:00:00.00 453964 N 0 0 0
0:00:00.00 454161 N 0 0 0
0:00:00.00 454163 N 0 0 0
0:00:00.00 454643 N 0 0 0
0:00:00.00 454976 N 0 0 0
0:00:00.00 455307 N 0 0 0
0:00:00.00 455500 N 0 0 0
0:00:00.00 455501 N 0 0 0
0:00:00.00 455988 N 0 0 0
0:00:00.00 456182 N 0 0 0
0:00:00.00 456183 N 0 0 0
0:00:00.00 456660 N 0 0 0
0:00:00.00 456995 N 0 0 0
0:00:00.00 457187 N 0 0 0
0:00:00.00 457189 N 0 0 0
0:00:00.00 457666 N 0 0 0
0:00:00.00 457859 N 0 0 0
0:00:00.00 457860 N 0 0 0
0:00:00.00 458343 N 0 0 0
0:00:00.00 458683 N 0 0 0
0:00:00.00 458869 N 0 0 0
0:00:00.00 458870 N 0 0 0
0:00:00.00 459355 N 0 0 0
0:00:00.00 459696 N 0 0 0
0:00:00.00 459887 N 0 0 0
0:00:00.00 459888 N 0 0 0
0:00:00.00 460354 N 0 0 0
0:00:00.00 460688 N 0 0 0
0:00:00.00 460880 N 0 0 0
0:00:00.00 460881 N 0 0 0
0:00:00.00 461347 N 0 0 0
0:00:00.00 461684 N 0 0 0
0:00:00.00 461875 N 0 0 0
0:00:00.00 461876 N 0 0 0
0:00:00.00 462342 N 0 0 0
0:00:00.00 462542 N 0 0 0
0:00:00.00 462543 N 0 0 0
0:00:00.00 462982 N 0 0 0
0:00:00.00 463171 N 0 0 0
0:00:00.00 463172 N 0 0 0
0:00:00.00 463626 N 0 0 0
0:00:00.00 463938 N 0 0 0
0:00:00.00 464248 N 0 0 0
0:00:00.00 464574 N 0 0 0
0:00:00.00 464914 N 0 0 0
0:00:00.00 465106 N 0 0 0
0:00:00.00 465107 N 0 0 0
0:00:00.00 465625 N 0 0 0
0:00:00.00 465825 N 0 0 0
0:00:00.00 465826 N 0 0 0
0:00:00.00 466354 N 0 0 0
0:00:00.00 466575 N 0 0 0
0:00:00.00 466576 N 0 0 0
0:00:00.00 467066 N 0 0 0
0:00:00.00 467263 N 0 0 0
0:00:00.00 467264 N 0 0 0
0:00:00.00 467780 N 0 0 0
0:00:00.00 467965 N 0 0 0
0:00:00.00 467966 N 0 0 0
0:00:00.00 468444 N 0 0 0
0:00:00.00 468639 N 0 0 0
0:00:00.00 468640 N 0 0 0
0:00:00.00 469113 N 0 0 0
0:00:00.00 469310 N 0 0 0
0:00:00.00 469311 N 0 0 0
0:00:00.00 469782 N 0 0 0
0:00:00.00 470108 N 0 0 0
0:00:00.00 470440 N 0 0 0
0:00:00.00 470627 N 0 0 0
0:00:00.00 470629 N 0 0 0
0:00:00.00 471105 N 0 0 0
0:00:00.00 471298 N 0 0 0
0:00:00.00 471300 N 0 0 0
0:00:00.00 471807 N 0 0 0
0:00:00.00 472139 N 0 0 0
0:00:00.00 472473 N 0 0 0
0:00:00.00 472804 N 0 0 0
0:00:00.00 473137 N 0 0 0
0:00:00.00 473326 N 0 0 0
0:00:00.00 473327 N 0 0 0
0:00:00.00 473816 N 0 0 0
0:00:00.00 474160 N 0 0 0
0:00:00.00 474356 N 0 0 0
0:00:00.00 474358 N 0 0 0
0:00:00.00 474847 N 0 0 0
0:00:00.00 475188 N 0 0 0
0:00:00.00 475534 N 0 0 0
0:00:00.00 475724 N 0 0 0
0:00:00.00 475726 N 0 0 0
0:00:00.00 476198 N 0 0 0
0:00:00.00 476390 N 0 0 0
0:00:00.00 476391 N 0 0 0
0:00:00.00 476877 N 0 0 0
0:00:00.00 477077 N 0 0 0
0:00:00.00 477078 N 0 0 0
0:00:00.00 477559 N 0 0 0
0:00:00.00 477903 N 0 0 0
0:00:00.00 478240 N 0 0 0
0:00:00.00 478434 N 0 0 0
0:00:00.00 478435 N 0 0 0
0:00:00.00 478914 N 0 0 0
0:00:00.00 479108 N 0 0 0
0:00:00.00 479109 N 0 0 0
0:00:00.00 479599 N 0 0 0
0:00:00.00 479799 N 0 0 0
0:00:00.00 479800 N 0 0 0
0:00:00.00 480274 N 0 0 0
0:00:00.00 480470 N 0 0 0
0:00:00.00 480471 N 0 0 0
0:00:00.00 480958 N 0 0 0
0:00:00.00 481153 N 0 0 0
0:00:00.00 481154 N 0 0 0
0:00:00.00 481627 N 0 0 0
0:00:00.00 481820 N 0 0 0
0:00:00.00 481821 N 0 0 0
0:00:00.00 482292 N 0 0 0
0:00:00.00 482494 N 0 0 0
0:00:00.00 482495 N 0 0 0
0:00:00.00 482949 N 0 0 0
0:00:00.00 483145 N 0 0 0
0:00:00.00 483146 N 0 0 0
0:00:00.00 483589 N 0 0 0
0:00:00.00 483888 N 0 0 0
0:00:00.00 484185 N 0 0 0
0:00:00.00 484465 N 0 0 0
0:00:00.00 484753 N 0 0 0
0:00:00.00 485055 N 0 0 0
0:00:00.00 485349 N 0 0 0
0:00:00.00 485644 N 0 0 0
0:00:00.00 485966 N 0 0 0
0:00:00.00 486288 N 0 0 0
0:00:00.00 486602 N 0 0 0
0:00:00.00 486938 N 0 0 0
0:00:00.00 487280 N 0 0 0
0:00:00.00 487614 N 0 0 0
0:00:00.00 487959 N 0 0 0
0:00:00.00 488311 N 0 0 0
0:00:00.00 488662 N 0 0 0
0:00:00.00 489007 N 0 0 0
0:00:00.00 489198 N 0 0 0
0:00:00.00 489200 N 0 0 0
0:00:00.00 489710 N 0 0 0
0:00:00.00 489908 N 0 0 0
0:00:00.00 489910 N 0 0 0
0:00:00.00 490399 N 0 0 0
0:00:00.00 490589 N 0 0 0
0:00:00.00 490591 N 0 0 0
0:00:00.00 491056 N 0 0 0
0:00:00.00 491268 N 0 0 0
0:00:00.00 491269 N 0 0 0
0:00:00.00 491723 N 0 0 0
0:00:00.00 492038 N 0 0 0
0:00:00.00 492227 N 0 0 0
0:00:00.00 492229 N 0 0 0
0:00:00.00 492664 N 0 0 0
0:00:00.00 492980 N 0 0 0
0:00:00.00 493171 N 0 0 0
0:00:00.00 493172 N 0 0 0
0:00:00.00 493600 N 0 0 0
0:00:00.00 493798 N 0 0 0
0:00:00.00 493799 N 0 0 0
0:00:00.00 494244 N 0 0 0
0:00:00.00 494540 N 0 0 0
0:00:00.00 494849 N 0 0 0
0:00:00.00 495163 N 0 0 0
0:00:00.00 495485 N 0 0 0
0:00:00.00 495816 N 0 0 0
0:00:00.00 496011 N 0 0 0
0:00:00.00 496012 N 0 0 0
0:00:00.00 496482 N 0 0 0
0:00:00.00 496677 N 0 0 0
0:00:00.00 496678 N 0 0 0
0:00:00.00 497155 N 0 0 0
0:00:00.00 497351 N 0 0 0
0:00:00.00 497352 N 0 0 0
0:00:00.00 497824 N 0 0 0
0:00:00.00 498018 N 0 0 0
0:00:00.00 498019 N 0 0 0
0:00:00.00 498498 N 0 0 0
0:00:00.00 498693 N 0 0 0
0:00:00.00 498694 N 0 0 0
0:00:00.00 499162 N 0 0 0
0:00:00.00 499489 N 0 0 0
0:00:00.00 499679 N 0 0 0
0:00:00.00 499680 N 0 0 0
0:00:00.00 500119 N 0 0 0
0:00:00.00 500319 N 0 0 0
0:00:00.00 500320 N 0 0 0
0:00:00.00 500749 N 0 0 0
0:00:00.00 501053 N 0 0 0
0:00:00.00 501349 N 0 0 0
0:00:00.00 501537 N 0 0 0
0:00:00.00 501538 N 0 0 0
0:00:00.00 501968 N 0 0 0
0:00:00.00 502164 N 0 0 0
0:00:00.00 502165 N 0 0 0
0:00:00.00 502584 N 0 0 0
0:00:00.00 502895 N 0 0 0
0:00:00.00 503084 N 0 0 0
0:00:00.00 503085 N 0 0 0
0:00:00.00 503539 N 0 0 0
0:00:00.00 503861 N 0 0 0
0:00:00.00 504051 N 0 0 0
0:00:00.00 504052 N 0 0 0
0:00:00.00 504523 N 0 0 0
0:00:00.00 504718 N 0 0 0
0:00:00.00 504719 N 0 0 0
0:00:00.00 505189 N 0 0 0
0:00:00.00 505385 N 0 0 0
0:00:00.00 505386 N 0 0 0
0:00:00.00 505895 N 0 0 0
0:00:00.00 506092 N 0 0 0
0:00:00.00 506093 N 0 0 0
0:00:00.00 506595 N 0 0 0
0:00:00.00 506950 N 0 0 0
0:00:00.00 507148 N 0 0 0
0:00:00.00 507149 N 0 0 0
0:00:00.00 507638 N 0 0 0
0:00:00.00 507993 N 0 0 0
0:00:00.00 508183 N 0 0 0
0:00:00.00 508185 N 0 0 0
0:00:00.00 508677 N 0 0 0
0:00:00.00 508882 N 0 0 0
0:00:00.00 508883 N 0 0 0
0:00:00.00 509371 N 0 0 0
0:00:00.00 509714 N 0 0 0
0:00:00.00 509906 N 0 0 0
0:00:00.00 509907 N 0 0 0
0:00:00.00 510391 N 0 0 0
0:00:00.00 510732 N 0 0 0
0:00:00.00 511062 N 0 0 0
0:00:00.00 511253 N 0 0 0
0:00:00.00 511255 N 0 0 0
0:00:00.00 511737 N 0 0 0
0:00:00.00 511935 N 0 0 0
0:00:00.00 511936 N 0 0 0
0:00:00.00 512423 N 0 0 0
0:00:00.00 512761 N 0 0 0
0:00:00.00 513088 N 0 0 0
0:00:00.00 513288 N 0 0 0
0:00:00.00 513289 N 0 0 0
0:00:00.00 513766 N 0 0 0
0:00:00.00 513967 N 0 0 0
0:00:00.00 513968 N 0 0 0
0:00:00.00 514462 N 0 0 0
0:00:00.00 514793 N 0 0 0
0:00:00.00 514989 N 0 0 0
0:00:00.00 514991 N 0 0 0
0:00:00.00 515477 N 0 0 0
0:00:00.00 515819 N 0 0 0
0:00:00.00 516152 N 0 0 0
0:00:00.00 516477 N 0 0 0
0:00:00.00 516670 N 0 0 0
0:00:00.00 516672 N 0 0 0
0:00:00.00 517167 N 0 0 0
0:00:00.00 517507 N 0 0 0
0:00:00.00 517859 N 0 0 0
0:00:00.00 518193 N 0 0 0
0:00:00.00 518521 N 0 0 0
0:00:00.00 518725 N 0 0 0
0:00:00.00 518726 N 0 0 0
0:00:00.00 519204 N 0 0 0
0:00:00.00 519409 N 0 0 0
0:00:00.00 519411 N 0 0 0
0:00:00.00 519894 N 0 0 0
0:00:00.00 520226 N 0 0 0
0:00:00.00 520426 N 0 0 0
0:00:00.00 520427 N 0 0 0
0:00:00.00 520893 N 0 0 0
0:00:00.00 521215 N 0 0 0
0:00:00.00 521532 N 0 0 0
0:00:00.00 521727 N 0 0 0
0:00:00.00 521728 N 0 0 0
0:00:00.00 522188 N 0 0 0
0:00:00.00 522382 N 0 0 0
0:00:00.00 522383 N 0 0 0
0:00:00.00 522816 N 0 0 0
0:00:00.00 523135 N 0 0 0
0:00:00.00 523329 N 0 0 0
0:00:00.00 523330 N 0 0 0
0:00:00.00 523758 N 0 0 0
0:00:00.00 523959 N 0 0 0
0:00:00.00 523961 N 0 0 0
0:00:00.00 524406 N 0 0 0
0:00:00.00 524727 N 0 0 0
0:00:00.00 525048 N 0 0 0
0:00:00.00 525239 N 0 0 0
0:00:00.00 525240 N 0 0 0
0:00:00.00 525735 N 0 0 0
0:00:00.00 525933 N 0 0 0
0:00:00.00 525934 N 0 0 0
0:00:00.00 526411 N 0 0 0
0:00:00.00 526617 N 0 0 0
0:00:00.00 526619 N 0 0 0
0:00:00.00 527082 N 0 0 0
0:00:00.00 527417 N 0 0 0
0:00:00.00 527608 N 0 0 0
0:00:00.00 527609 N 0 0 0
0:00:00.00 528058 N 0 0 0
0:00:00.00 528384 N 0 0 0
0:00:00.00 528573 N 0 0 0
0:00:00.00 528574 N 0 0 0
0:00:00.00 529016 N 0 0 0
0:00:00.00 529339 N 0 0 0
0:00:00.00 529528 N 0 0 0
0:00:00.00 529529 N 0 0 0
0:00:00.00 529996 N 0 0 0
0:00:00.00 530322 N 0 0 0
0:00:00.00 530514 N 0 0 0
0:00:00.00 530515 N 0 0 0
0:00:00.00 530979 N 0 0 0
0:00:00.00 531299 N 0 0 0
0:00:00.00 531494 N 0 0 0
0:00:00.00 531495 N 0 0 0
0:00:00.00 531939 N 0 0 0
0:00:00.00 532132 N 0 0 0
0:00:00.00 532133 N 0 0 0
0:00:00.00 532591 N 0 0 0
0:00:00.00 532791 N 0 0 0
0:00:00.00 532792 N 0 0 0
0:00:00.00 533237 N 0 0 0
0:00:00.00 533549 N 0 0 0
0:00:00.00 533864 N 0 0 0
0:00:00.00 534186 N 0 0 0
0:00:00.00 534517 N 0 0 0
0:00:00.00 534708 N 0 0 0
0:00:00.00 534710 N 0 0 0
0:00:00.00 535198 N 0 0 0
0:00:00.00 535403 N 0 0 0
0:00:00.00 535404 N 0 0 0
0:00:00.00 535897 N 0 0 0
0:00:00.00 536090 N 0 0 0
0:00:00.00 536091 N 0 0 0
0:00:00.00 536573 N 0 0 0
0:00:00.00 536782 N 0 0 0
0:00:00.00 536783 N 0 0 0
0:00:00.00 537246 N 0 0 0
0:00:00.00 537466 N 0 0 0
0:00:00.00 537468 N 0 0 0
0:00:00.00 537912 N 0 0 0
0:00:00.00 538110 N 0 0 0
0:00:00.00 538111 N 0 0 0
0:00:00.00 538566 N 0 0 0
0:00:00.00 538769 N 0 0 0
0:00:00.00 538770 N 0 0 0
0:00:00.00 539225 N 0 0 0
0:00:00.00 539537 N 0 0 0
0:00:00.00 539850 N 0 0 0
0:00:00.00 540157 N 0 0 0
0:00:00.00 540477 N 0 0 0
0:00:00.00 540801 N 0 0 0
0:00:00.00 541128 N 0 0 0
0:00:00.00 541472 N 0 0 0
0:00:00.00 541815 N 0 0 0
0:00:00.00 542152 N 0 0 0
0:00:00.00 542504 N 0 0 0
0:00:00.00 542852 N 0 0 0
0:00:00.00 543203 N 0 0 0
0:00:00.00 543560 N 0 0 0
0:00:00.00 543898 N 0 0 0
0:00:00.00 544253 N 0 0 0
0:00:00.00 544601 N 0 0 0
0:00:00.00 544934 N 0 0 0
0:00:00.00 545275 N 0 0 0
0:00:00.00 545621 N 0 0 0
0:00:00.00 545972 N 0 0 0
0:00:00.00 546161 N 0 0 0
0:00:00.00 546162 N 0 0 0
0:00:00.00 546668 N 0 0 0
0:00:00.00 546870 N 0 0 0
0:00:00.00 546872 N 0 0 0
0:00:00.00 547358 N 0 0 0
0:00:00.00 547566 N 0 0 0
0:00:00.00 547568 N 0 0 0
0:00:00.00 548045 N 0 0 0
0:00:00.00 548253 N 0 0 0
0:00:00.00 548254 N 0 0 0
0:00:00.00 548724 N 0 0 0
0:00:00.00 548928 N 0 0 0
0:00:00.00 548929 N 0 0 0
0:00:00.00 549384 N 0 0 0
0:00:00.00 549712 N 0 0 0
0:00:00.00 549904 N 0 0 0
0:00:00.00 549905 N 0 0 0
0:00:00.00 550358 N 0 0 0
0:00:00.00 550678 N 0 0 0
0:00:00.00 550994 N 0 0 0
0:00:00.00 551193 N 0 0 0
0:00:00.00 551195 N 0 0 0
0:00:00.00 551632 N 0 0 0
0:00:00.00 551832 N 0 0 0
0:00:00.00 551833 N 0 0 0
0:00:00.00 552255 N 0 0 0
0:00:00.00 552448 N 0 0 0
0:00:00.00 552449 N 0 0 0
0:00:00.00 552829 N 0 0 0
0:00:00.00 553105 N 0 0 0
0:00:00.00 553292 N 0 0 0
0:00:00.00 553294 N 0 0 0
0:00:00.00 553637 N 0 0 0
0:00:00.00 553908 N 0 0 0
0:00:00.00 554168 N 0 0 0
0:00:00.00 554423 N 0 0 0
0:00:00.00 554684 N 0 0 0
0:00:00.00 554947 N 0 0 0
0:00:00.00 555152 N 0 0 0
0:00:00.00 555484 N 0 0 0
0:00:00.00 555762 N 0 0 0
0:00:00.00 555954 N 0 0 0
0:00:00.00 555955 N 0 0 0
0:00:00.00 556321 N 0 0 0
0:00:00.00 556522 N 0 0 0
0:00:00.00 556524 N 0 0 0
0:00:00.00 556893 N 0 0 0
0:00:00.00 557166 N 0 0 0
0:00:00.00 557436 N 0 0 0
0:00:00.00 557637 N 0 0 0
0:00:00.00 557639 N 0 0 0
0:00:00.00 558018 N 0 0 0
0:00:00.00 558233 N 0 0 0
0:00:00.00 558234 N 0 0 0
0:00:00.00 558609 N 0 0 0
0:00:00.00 558898 N 0 0 0
0:00:00.00 559205 N 0 0 0
0:00:00.00 559402 N 0 0 0
0:00:00.00 559403 N 0 0 0
0:00:00.00 559827 N 0 0 0
0:00:00.00 560143 N 0 0 0
0:00:00.00 560466 N 0 0 0
0:00:00.00 560662 N 0 0 0
0:00:00.00 560663 N 0 0 0
0:00:00.00 561142 N 0 0 0
0:00:00.00 561494 N 0 0 0
0:00:00.00 561836 N 0 0 0
0:00:00.00 562172 N 0 0 0
0:00:00.00 562364 N 0 0 0
0:00:00.00 562365 N 0 0 0
0:00:00.00 562886 N 0 0 0
0:00:00.00 563229 N 0 0 0
0:00:00.00 563564 N 0 0 0
0:00:00.00 563756 N 0 0 0
0:00:00.00 563757 N 0 0 0
0:00:00.00 564252 N 0 0 0
0:00:00.00 564587 N 0 0 0
0:00:00.00 564926 N 0 0 0
0:00:00.00 565251 N 0 0 0
0:00:00.00 565587 N 0 0 0
0:00:00.00 565924 N 0 0 0
0:00:00.00 566230 N 0 0 0
0:00:00.00 566537 N 0 0 0
0:00:00.00 566729 N 0 0 0
0:00:00.00 567132 N 0 0 0
0:00:00.00 567330 N 0 0 0
0:00:00.00 567331 N 0 0 0
0:00:00.00 567776 N 0 0 0
0:00:00.00 568085 N 0 0 0
0:00:00.00 568388 N 0 0 0
0:00:00.00 568598 N 0 0 0
0:00:00.00 569032 N 0 0 0
0:00:00.00 569228 N 0 0 0
0:00:00.00 569229 N 0 0 0
0:00:00.00 569686 N 0 0 0
0:00:00.00 569998 N 0 0 0
0:00:00.00 570315 N 0 0 0
0:00:00.00 570510 N 0 0 0
0:00:00.00 570959 N 0 0 0
0:00:00.00 571154 N 0 0 0
0:00:00.00 571155 N 0 0 0
0:00:00.00 571570 N 0 0 0
0:00:00.00 571856 N 0 0 0
0:00:00.00 572144 N 0 0 0
0:00:00.00 572335 N 0 0 0
0:00:00.00 572337 N 0 0 0
0:00:00.00 572745 N 0 0 0
0:00:00.00 573031 N 0 0 0
0:00:00.00 573319 N 0 0 0
0:00:00.00 573601 N 0 0 0
0:00:00.00 573793 N 0 0 0
0:00:00.00 573794 N 0 0 0
0:00:00.00 574184 N 0 0 0
0:00:00.00 574387 N 0 0 0
0:00:00.00 574389 N 0 0 0
0:00:00.00 574784 N 0 0 0
0:00:00.00 575081 N 0 0 0
0:00:00.00 575371 N 0 0 0
0:00:00.00 575566 N 0 0 0
0:00:00.00 575567 N 0 0 0
0:00:00.00 575967 N 0 0 0
0:00:00.00 576262 N 0 0 0
0:00:00.00 576561 N 0 0 0
0:00:00.00 576872 N 0 0 0
0:00:00.00 577177 N 0 0 0
0:00:00.00 577366 N 0 0 0
0:00:00.00 577368 N 0 0 0
0:00:00.00 577856 N 0 0 0
0:00:00.00 578047 N 0 0 0
0:00:00.00 578048 N 0 0 0
0:00:00.00 578547 N 0 0 0
0:00:00.00 578873 N 0 0 0
0:00:00.00 579064 N 0 0 0
0:00:00.00 579066 N 0 0 0
0:00:00.00 579542 N 0 0 0
0:00:00.00 579877 N 0 0 0
0:00:00.00 580063 N 0 0 0
0:00:00.00 580065 N 0 0 0
0:00:00.00 580570 N 0 0 0
0:00:00.00 580937 N 0 0 0
0:00:00.00 581132 N 0 0 0
0:00:00.00 581134 N 0 0 0
0:00:00.00 581647 N 0 0 0
0:00:00.00 581849 N 0 0 0
0:00:00.00 581850 N 0 0 0
0:00:00.00 582355 N 0 0 0
0:00:00.00 582717 N 0 0 0
0:00:00.00 582913 N 0 0 0
0:00:00.00 582914 N 0 0 0
0:00:00.00 583428 N 0 0 0
0:00:00.00 583618 N 0 0 0
0:00:00.00 583620 N 0 0 0
0:00:00.00 584147 N 0 0 0
0:00:00.00 584490 N 0 0 0
0:00:00.00 584823 N 0 0 0
0:00:00.00 585163 N 0 0 0
0:00:00.00 585495 N 0 0 0
0:00:00.00 585824 N 0 0 0
0:00:00.00 586017 N 0 0 0
0:00:00.00 586018 N 0 0 0
0:00:00.00 586523 N 0 0 0
0:00:00.00 586719 N 0 0 0
0:00:00.00 586720 N 0 0 0
0:00:00.00 587191 N 0 0 0
0:00:00.00 587540 N 0 0 0
0:00:00.00 587862 N 0 0 0
0:00:00.00 588172 N 0 0 0
0:00:00.00 588366 N 0 0 0
0:00:00.00 588367 N 0 0 0
0:00:00.00 588818 N 0 0 0
0:00:00.00 589012 N 0 0 0
0:00:00.00 589013 N 0 0 0
0:00:00.00 589470 N 0 0 0
0:00:00.00 589790 N 0 0 0
0:00:00.00 590091 N 0 0 0
0:00:00.00 590388 N 0 0 0
0:00:00.00 590711 N 0 0 0
0:00:00.00 590906 N 0 0 0
0:00:00.00 590908 N 0 0 0
0:00:00.00 591380 N 0 0 0
0:00:00.00 591722 N 0 0 0
0:00:00.00 592050 N 0 0 0
0:00:00.00 592370 N 0 0 0
0:00:00.00 592691 N 0 0 0
0:00:00.00 593018 N 0 0 0
0:00:00.00 593338 N 0 0 0
0:00:00.00 593682 N 0 0 0
0:00:00.00 594022 N 0 0 0
0:00:00.00 594353 N 0 0 0
0:00:00.00 594697 N 0 0 0
0:00:00.00 595057 N 0 0 0
0:00:00.00 595405 N 0 0 0
0:00:00.00 595733 N 0 0 0
0:00:00.00 595938 N 0 0 0
0:00:00.00 596431 N 0 0 0
0:00:00.00 596764 N 0 0 0
0:00:00.00 596954 N 0 0 0
0:00:00.00 596955 N 0 0 0
0:00:00.00 597438 N 0 0 0
0:00:00.00 597763 N 0 0 0
0:00:00.00 598082 N 0 0 0
0:00:00.00 598410 N 0 0 0
0:00:00.00 598742 N 0 0 0
0:00:00.00 599087 N 0 0 0
0:00:00.00 599287 N 0 0 0
0:00:00.00 599288 N 0 0 0
0:00:00.00 599793 N 0 0 0
0:00:00.00 600143 N 0 0 0
0:00:00.00 600500 N 0 0 0
0:00:00.00 600842 N 0 0 0
0:00:00.00 601194 N 0 0 0
0:00:00.00 601386 N 0 0 0
0:00:00.00 601387 N 0 0 0
0:00:00.00 601912 N 0 0 0
0:00:00.00 602116 N 0 0 0
0:00:00.00 602117 N 0 0 0
0:00:00.00 602641 N 0 0 0
0:00:00.00 602982 N 0 0 0
0:00:00.00 603165 N 0 0 0
0:00:00.00 603166 N 0 0 0
0:00:00.00 603678 N 0 0 0
0:00:00.00 604018 N 0 0 0
0:00:00.00 604361 N 0 0 0
0:00:00.00 604685 N 0 0 0
0:00:00.00 605008 N 0 0 0
0:00:00.00 605217 N 0 0 0
0:00:00.00 605218 N 0 0 0
0:00:00.00 605697 N 0 0 0
0:00:00.00 606024 N 0 0 0
0:00:00.00 606214 N 0 0 0
0:00:00.00 606215 N 0 0 0
0:00:00.00 606691 N 0 0 0
0:00:00.00 607021 N 0 0 0
0:00:00.00 607346 N 0 0 0
0:00:00.00 607664 N 0 0 0
0:00:00.00 607976 N 0 0 0
0:00:00.00 608292 N 0 0 0
0:00:00.00 608617 N 0 0 0
0:00:00.00 608938 N 0 0 0
0:00:00.00 609256 N 0 0 0
0:00:00.00 609605 N 0 0 0
0:00:00.00 609933 N 0 0 0
0:00:00.00 610249 N 0 0 0
0:00:00.00 610447 N 0 0 0
0:00:00.00 610448 N 0 0 0
0:00:00.00 610925 N 0 0 0
0:00:00.00 611116 N 0 0 0
0:00:00.00 611117 N 0 0 0
0:00:00.00 611592 N 0 0 0
0:00:00.00 611933 N 0 0 0
0:00:00.00 612262 N 0 0 0
0:00:00.00 612574 N 0 0 0
0:00:00.00 612761 N 0 0 0
0:00:00.00 612763 N 0 0 0
0:00:00.00 613234 N 0 0 0
0:00:00.00 613434 N 0 0 0
0:00:00.00 613435 N 0 0 0
0:00:00.00 613891 N 0 0 0
0:00:00.00 614100 N 0 0 0
0:00:00.00 614101 N 0 0 0
0:00:00.00 614562 N 0 0 0
0:00:00.00 614897 N 0 0 0
0:00:00.00 615224 N 0 0 0
0:00:00.00 615428 N 0 0 0
0:00:00.00 615430 N 0 0 0
0:00:00.00 615925 N 0 0 0
0:00:00.00 616274 N 0 0 0
0:00:00.00 616470 N 0 0 0
0:00:00.00 616472 N 0 0 0
0:00:00.00 616978 N 0 0 0
0:00:00.00 617323 N 0 0 0
0:00:00.00 617519 N 0 0 0
0:00:00.00 617520 N 0 0 0
0:00:00.00 618019 N 0 0 0
0:00:00.00 618369 N 0 0 0
0:00:00.00 618708 N 0 0 0
0:00:00.00 619053 N 0 0 0
0:00:00.00 619389 N 0 0 0
0:00:00.00 619724 N 0 0 0
0:00:00.00 620088 N 0 0 0
0:00:00.00 620432 N 0 0 0
0:00:00.00 620777 N 0 0 0
0:00:00.00 621138 N 0 0 0
0:00:00.00 621489 N 0 0 0
0:00:00.00 621828 N 0 0 0
0:00:00.00 622171 N 0 0 0
0:00:00.00 622522 N 0 0 0
0:00:00.00 622866 N 0 0 0
0:00:00.00 623196 N 0 0 0
0:00:00.00 623547 N 0 0 0
0:00:00.00 623893 N 0 0 0
0:00:00.00 624217 N 0 0 0
0:00:00.00 624548 N 0 0 0
0:00:00.00 624886 N 0 0 0
0:00:00.00 625227 N 0 0 0
0:00:00.00 625567 N 0 0 0
0:00:00.00 625908 N 0 0 0
0:00:00.00 626251 N 0 0 0
0:00:00.00 626577 N 0 0 0
0:00:00.00 626920 N 0 0 0
0:00:00.00 627262 N 0 0 0
0:00:00.00 627587 N 0 0 0
0:00:00.00 627928 N 0 0 0
0:00:00.00 628269 N 0 0 0
0:00:00.00 628601 N 0 0 0
0:00:00.00 628938 N 0 0 0
0:00:00.00 629279 N 0 0 0
0:00:00.00 629606 N 0 0 0
0:00:00.00 629937 N 0 0 0
0:00:00.00 630276 N 0 0 0
0:00:00.00 630619 N 0 0 0
0:00:00.00 630948 N 0 0 0
0:00:00.00 631280 N 0 0 0
0:00:00.00 631612 N 0 0 0
0:00:00.00 631939 N 0 0 0
0:00:00.00 632273 N 0 0 0
0:00:00.00 632607 N 0 0 0
0:00:00.00 632933 N 0 0 0
0:00:00.00 633127 N 0 0 0
0:00:00.00 633607 N 0 0 0
0:00:00.00 633805 N 0 0 0
0:00:00.00 633806 N 0 0 0
0:00:00.00 634290 N 0 0 0
0:00:00.00 634636 N 0 0 0
0:00:00.00 634956 N 0 0 0
0:00:00.00 635270 N 0 0 0
0:00:00.00 635590 N 0 0 0
0:00:00.00 635905 N 0 0 0
0:00:00.00 636213 N 0 0 0
0:00:00.00 636522 N 0 0 0
0:00:00.00 636843 N 0 0 0
0:00:00.00 637160 N 0 0 0
0:00:00.00 637467 N 0 0 0
0:00:00.00 637795 N 0 0 0
0:00:00.00 638115 N 0 0 0
0:00:00.00 638431 N 0 0 0
0:00:00.00 638628 N 0 0 0
0:00:00.00 639101 N 0 0 0
0:00:00.00 639433 N 0 0 0
0:00:00.00 639760 N 0 0 0
0:00:00.00 640095 N 0 0 0
0:00:00.00 640428 N 0 0 0
0:00:00.00 640756 N 0 0 0
0:00:00.00 640954 N 0 0 0
0:00:00.00 640966 N 0 0 0
0:00:00.00 641450 N 0 0 0
0:00:00.00 641792 N 0 0 0
0:00:00.00 642129 N 0 0 0
0:00:00.00 642480 N 0 0 0
0:00:00.00 642819 N 0 0 0
0:00:00.00 643159 N 0 0 0
0:00:00.00 643503 N 0 0 0
0:00:00.00 643856 N 0 0 0
0:00:00.00 644195 N 0 0 0
0:00:00.00 644526 N 0 0 0
0:00:00.00 644880 N 0 0 0
0:00:00.00 645228 N 0 0 0
0:00:00.00 645558 N 0 0 0
0:00:00.00 645752 N 0 0 0
0:00:00.00 645753 N 0 0 0
0:00:00.00 646227 N 0 0 0
0:00:00.00 646558 N 0 0 0
0:00:00.00 646881 N 0 0 0
0:00:00.00 647197 N 0 0 0
0:00:00.00 647521 N 0 0 0
0:00:00.00 647837 N 0 0 0
0:00:00.00 648154 N 0 0 0
0:00:00.00 648480 N 0 0 0
0:00:00.00 648793 N 0 0 0
0:00:00.00 649130 N 0 0 0
0:00:00.00 649468 N 0 0 0
0:00:00.00 649789 N 0 0 0
0:00:00.00 649988 N 0 0 0
