0:00:00.00 9 N 0 0 0
0:00:00.00 85 N 0 0 0
0:00:00.00 167 N 0 0 0
0:00:00.00 517 N 0 0 0
0:00:00.00 877 N 0 0 0
0:00:00.00 1222 N 0 0 0
0:00:00.00 1575 N 0 0 0
0:00:00.00 1930 N 0 0 0
0:00:00.00 2288 N 0 0 0
0:00:00.00 2648 N 0 0 0
0:00:00.00 3017 N 0 0 0
0:00:00.00 3384 N 0 0 0
0:00:00.00 3744 N 0 0 0
0:00:00.00 4117 N 0 0 0
0:00:00.00 4468 N 0 0 0
0:00:00.00 4826 N 0 0 0
0:00:00.00 5191 N 0 0 0
0:00:00.00 5548 N 0 0 0
0:00:00.00 5906 N 0 0 0
0:00:00.00 6268 N 0 0 0
0:00:00.00 6629 N 0 0 0
0:00:00.00 6991 N 0 0 0
0:00:00.00 7346 N 0 0 0
0:00:00.00 7702 N 0 0 0
0:00:00.00 8051 N 0 0 0
0:00:00.00 8402 N 0 0 0
0:00:00.00 8752 N 0 0 0
0:00:00.00 9106 N 0 0 0
0:00:00.00 9455 N 0 0 0
0:00:00.00 9803 N 0 0 0
0:00:00.00 10163 N 0 0 0
0:00:00.00 10516 N 0 0 0
0:00:00.00 10863 N 0 0 0
0:00:00.00 11227 N 0 0 0
0:00:00.00 11581 N 0 0 0
0:00:00.00 11938 N 0 0 0
0:00:00.00 12299 N 0 0 0
0:00:00.00 12659 N 0 0 0
0:00:00.00 13025 N 0 0 0
0:00:00.00 13399 N 0 0 0
0:00:00.00 13770 N 0 0 0
0:00:00.00 14146 N 0 0 0
0:00:00.00 14521 N 0 0 0
0:00:00.00 14893 N 0 0 0
0:00:00.00 15271 N 0 0 0
0:00:00.00 15642 N 0 0 0
0:00:00.00 16013 N 0 0 0
0:00:00.00 16389 N 0 0 0
0:00:00.00 16749 N 0 0 0
0:00:00.00 17118 N 0 0 0
0:00:00.00 17485 N 0 0 0
0:00:00.00 17843 N 0 0 0
0:00:00.00 18194 N 0 0 0
0:00:00.00 18544 N 0 0 0
0:00:00.00 18891 N 0 0 0
0:00:00.00 19247 N 0 0 0
0:00:00.00 19604 N 0 0 0
0:00:00.00 19957 N 0 0 0
0:00:00.00 20326 N 0 0 0
0:00:00.00 20687 N 0 0 0
0:00:00.00 21053 N 0 0 0
0:00:00.00 21425 N 0 0 0
0:00:00.00 21784 N 0 0 0
0:00:00.00 22154 N 0 0 0
0:00:00.00 22523 N 0 0 0
0:00:00.00 22880 N 0 0 0
0:00:00.00 23245 N 0 0 0
0:00:00.00 23607 N 0 0 0
0:00:00.00 23965 N 0 0 0
0:00:00.00 24318 N 0 0 0
0:00:00.00 24664 N 0 0 0
0:00:00.00 25009 N 0 0 0
0:00:00.00 25366 N 0 0 0
0:00:00.00 25720 N 0 0 0
0:00:00.00 26073 N 0 0 0
0:00:00.00 26440 N 0 0 0
0:00:00.00 26795 N 0 0 0
0:00:00.00 27151 N 0 0 0
0:00:00.00 27515 N 0 0 0
0:00:00.00 27878 N 0 0 0
0:00:00.00 28246 N 0 0 0
0:00:00.00 28613 N 0 0 0
0:00:00.00 28975 N 0 0 0
0:00:00.00 29345 N 0 0 0
0:00:00.00 29718 N 0 0 0
0:00:00.00 30092 N 0 0 0
0:00:00.00 30461 N 0 0 0
0:00:00.00 30834 N 0 0 0
0:00:00.00 31203 N 0 0 0
0:00:00.00 31583 N 0 0 0
0:00:00.00 31952 N 0 0 0
0:00:00.00 32319 N 0 0 0
0:00:00.00 32692 N 0 0 0
0:00:00.00 33064 N 0 0 0
0:00:00.00 33426 N 0 0 0
0:00:00.00 33786 N 0 0 0
0:00:00.00 34153 N 0 0 0
0:00:00.00 34524 N 0 0 0
0:00:00.00 34891 N 0 0 0
0:00:00.00 35255 N 0 0 0
0:00:00.00 35629 N 0 0 0
0:00:00.00 35996 N 0 0 0
0:00:00.00 36362 N 0 0 0
0:00:00.00 36729 N 0 0 0
0:00:00.00 37096 N 0 0 0
0:00:00.00 37467 N 0 0 0
0:00:00.00 37843 N 0 0 0
0:00:00.00 38214 N 0 0 0
0:00:00.00 38588 N 0 0 0
0:00:00.00 38959 N 0 0 0
0:00:00.00 39317 N 0 0 0
0:00:00.00 39677 N 0 0 0
0:00:00.00 40032 N 0 0 0
0:00:00.00 40388 N 0 0 0
0:00:00.00 40747 N 0 0 0
0:00:00.00 41098 N 0 0 0
0:00:00.00 41445 N 0 0 0
0:00:00.00 41809 N 0 0 0
0:00:00.00 42163 N 0 0 0
0:00:00.00 42512 N 0 0 0
0:00:00.00 42869 N 0 0 0
0:00:00.00 43218 N 0 0 0
0:00:00.00 43573 N 0 0 0
0:00:00.00 43929 N 0 0 0
0:00:00.00 44284 N 0 0 0
0:00:00.00 44645 N 0 0 0
0:00:00.00 45009 N 0 0 0
0:00:00.00 45373 N 0 0 0
0:00:00.00 45720 N 0 0 0
0:00:00.00 46076 N 0 0 0
0:00:00.00 46429 N 0 0 0
0:00:00.00 46784 N 0 0 0
0:00:00.00 47131 N 0 0 0
0:00:00.00 47477 N 0 0 0
0:00:00.00 47824 N 0 0 0
0:00:00.00 48164 N 0 0 0
0:00:00.00 48499 N 0 0 0
0:00:00.00 48838 N 0 0 0
0:00:00.00 49178 N 0 0 0
0:00:00.00 49522 N 0 0 0
0:00:00.00 49874 N 0 0 0
0:00:00.00 50222 N 0 0 0
0:00:00.00 50571 N 0 0 0
0:00:00.00 50924 N 0 0 0
0:00:00.00 51260 N 0 0 0
0:00:00.00 51602 N 0 0 0
0:00:00.00 51944 N 0 0 0
0:00:00.00 52281 N 0 0 0
0:00:00.00 52607 N 0 0 0
0:00:00.00 52945 N 0 0 0
0:00:00.00 53282 N 0 0 0
0:00:00.00 53629 N 0 0 0
0:00:00.00 53986 N 0 0 0
0:00:00.00 54346 N 0 0 0
0:00:00.00 54702 N 0 0 0
0:00:00.00 55069 N 0 0 0
0:00:00.00 55429 N 0 0 0
0:00:00.00 55784 N 0 0 0
0:00:00.00 56146 N 0 0 0
0:00:00.00 56495 N 0 0 0
0:00:00.00 56846 N 0 0 0
0:00:00.00 57199 N 0 0 0
0:00:00.00 57548 N 0 0 0
0:00:00.00 57890 N 0 0 0
0:00:00.00 58234 N 0 0 0
0:00:00.00 58583 N 0 0 0
0:00:00.00 58930 N 0 0 0
0:00:00.00 59285 N 0 0 0
0:00:00.00 59630 N 0 0 0
0:00:00.00 59978 N 0 0 0
0:00:00.00 60329 N 0 0 0
0:00:00.00 60671 N 0 0 0
0:00:00.00 61013 N 0 0 0
0:00:00.00 61353 N 0 0 0
0:00:00.00 61695 N 0 0 0
0:00:00.00 62046 N 0 0 0
0:00:00.00 62386 N 0 0 0
0:00:00.00 62725 N 0 0 0
0:00:00.00 63065 N 0 0 0
0:00:00.00 63396 N 0 0 0
0:00:00.00 63736 N 0 0 0
0:00:00.00 64062 N 0 0 0
0:00:00.00 64391 N 0 0 0
0:00:00.00 64723 N 0 0 0
0:00:00.00 65054 N 0 0 0
0:00:00.00 65394 N 0 0 0
0:00:00.00 65734 N 0 0 0
0:00:00.00 66080 N 0 0 0
0:00:00.00 66425 N 0 0 0
0:00:00.00 66771 N 0 0 0
0:00:00.00 67117 N 0 0 0
0:00:00.00 67457 N 0 0 0
0:00:00.00 67801 N 0 0 0
0:00:00.00 68146 N 0 0 0
0:00:00.00 68483 N 0 0 0
0:00:00.00 68819 N 0 0 0
0:00:00.00 69172 N 0 0 0
0:00:00.00 69523 N 0 0 0
0:00:00.00 69862 N 0 0 0
0:00:00.00 70207 N 0 0 0
0:00:00.00 70555 N 0 0 0
0:00:00.00 70915 N 0 0 0
0:00:00.00 71282 N 0 0 0
0:00:00.00 71627 N 0 0 0
0:00:00.00 71984 N 0 0 0
0:00:00.00 72355 N 0 0 0
0:00:00.00 72718 N 0 0 0
0:00:00.00 73082 N 0 0 0
0:00:00.00 73456 N 0 0 0
0:00:00.00 73829 N 0 0 0
0:00:00.00 74205 N 0 0 0
0:00:00.00 74572 N 0 0 0
0:00:00.00 74932 N 0 0 0
0:00:00.00 75305 N 0 0 0
0:00:00.00 75672 N 0 0 0
0:00:00.00 76028 N 0 0 0
0:00:00.00 76394 N 0 0 0
0:00:00.00 76756 N 0 0 0
0:00:00.00 77114 N 0 0 0
0:00:00.00 77476 N 0 0 0
0:00:00.00 77825 N 0 0 0
0:00:00.00 78178 N 0 0 0
0:00:00.00 78529 N 0 0 0
0:00:00.00 78880 N 0 0 0
0:00:00.00 79223 N 0 0 0
0:00:00.00 79573 N 0 0 0
0:00:00.00 79918 N 0 0 0
0:00:00.00 80267 N 0 0 0
0:00:00.00 80617 N 0 0 0
0:00:00.00 80968 N 0 0 0
0:00:00.00 81315 N 0 0 0
0:00:00.00 81659 N 0 0 0
0:00:00.00 82004 N 0 0 0
0:00:00.00 82346 N 0 0 0
0:00:00.00 82692 N 0 0 0
0:00:00.00 83043 N 0 0 0
0:00:00.00 83396 N 0 0 0
0:00:00.00 83745 N 0 0 0
0:00:00.00 84089 N 0 0 0
0:00:00.00 84443 N 0 0 0
0:00:00.00 84789 N 0 0 0
0:00:00.00 85142 N 0 0 0
0:00:00.00 85493 N 0 0 0
0:00:00.00 85837 N 0 0 0
0:00:00.00 86177 N 0 0 0
0:00:00.00 86519 N 0 0 0
0:00:00.00 86857 N 0 0 0
0:00:00.00 87197 N 0 0 0
0:00:00.00 87541 N 0 0 0
0:00:00.00 87880 N 0 0 0
0:00:00.00 88222 N 0 0 0
0:00:00.00 88567 N 0 0 0
0:00:00.00 88915 N 0 0 0
0:00:00.00 89271 N 0 0 0
0:00:00.00 89629 N 0 0 0
0:00:00.00 89984 N 0 0 0
0:00:00.00 90346 N 0 0 0
0:00:00.00 90711 N 0 0 0
0:00:00.00 91071 N 0 0 0
0:00:00.00 91418 N 0 0 0
0:00:00.00 91773 N 0 0 0
0:00:00.00 92126 N 0 0 0
0:00:00.00 92470 N 0 0 0
0:00:00.00 92817 N 0 0 0
0:00:00.00 93163 N 0 0 0
0:00:00.00 93514 N 0 0 0
0:00:00.00 93874 N 0 0 0
0:00:00.00 94223 N 0 0 0
0:00:00.00 94572 N 0 0 0
0:00:00.00 94927 N 0 0 0
0:00:00.00 95283 N 0 0 0
0:00:00.00 95650 N 0 0 0
0:00:00.00 96012 N 0 0 0
0:00:00.00 96365 N 0 0 0
0:00:00.00 96734 N 0 0 0
0:00:00.00 97105 N 0 0 0
0:00:00.00 97466 N 0 0 0
0:00:00.00 97841 N 0 0 0
0:00:00.00 98204 N 0 0 0
0:00:00.00 98572 N 0 0 0
0:00:00.00 98942 N 0 0 0
0:00:00.00 99304 N 0 0 0
0:00:00.00 99670 N 0 0 0
0:00:00.00 100035 N 0 0 0
0:00:00.00 100400 N 0 0 0
0:00:00.00 100760 N 0 0 0
0:00:00.00 101124 N 0 0 0
0:00:00.00 101491 N 0 0 0
0:00:00.00 101864 N 0 0 0
0:00:00.00 102235 N 0 0 0
0:00:00.00 102607 N 0 0 0
0:00:00.00 102985 N 0 0 0
0:00:00.00 103363 N 0 0 0
0:00:00.00 103736 N 0 0 0
0:00:00.00 104107 N 0 0 0
0:00:00.00 104477 N 0 0 0
0:00:00.00 104846 N 0 0 0
0:00:00.00 105205 N 0 0 0
0:00:00.00 105570 N 0 0 0
0:00:00.00 105937 N 0 0 0
0:00:00.00 106299 N 0 0 0
0:00:00.00 106652 N 0 0 0
0:00:00.00 107012 N 0 0 0
0:00:00.00 107370 N 0 0 0
0:00:00.00 107728 N 0 0 0
0:00:00.00 108088 N 0 0 0
0:00:00.00 108445 N 0 0 0
0:00:00.00 108797 N 0 0 0
0:00:00.00 109069 N 0 0 0
0:00:00.00 109157 N 0 0 0
0:00:00.00 109516 N 0 0 0
0:00:00.00 109868 N 0 0 0
0:00:00.00 110230 N 0 0 0
0:00:00.00 110592 N 0 0 0
0:00:00.00 110961 N 0 0 0
0:00:00.00 111326 N 0 0 0
0:00:00.00 111686 N 0 0 0
0:00:00.00 112061 N 0 0 0
0:00:00.00 112426 N 0 0 0
0:00:00.00 112790 N 0 0 0
0:00:00.00 113157 N 0 0 0
0:00:00.00 113526 N 0 0 0
0:00:00.00 113899 N 0 0 0
0:00:00.00 114268 N 0 0 0
0:00:00.00 114628 N 0 0 0
0:00:00.00 114998 N 0 0 0
0:00:00.00 115362 N 0 0 0
0:00:00.00 115717 N 0 0 0
0:00:00.00 116080 N 0 0 0
0:00:00.00 116429 N 0 0 0
0:00:00.00 116779 N 0 0 0
0:00:00.00 117139 N 0 0 0
0:00:00.00 117482 N 0 0 0
0:00:00.00 117830 N 0 0 0
0:00:00.00 118181 N 0 0 0
0:00:00.00 118526 N 0 0 0
0:00:00.00 118877 N 0 0 0
0:00:00.00 119237 N 0 0 0
0:00:00.00 119606 N 0 0 0
0:00:00.00 119983 N 0 0 0
0:00:00.00 120348 N 0 0 0
0:00:00.00 120715 N 0 0 0
0:00:00.00 121091 N 0 0 0
0:00:00.00 121468 N 0 0 0
0:00:00.00 121833 N 0 0 0
0:00:00.00 122200 N 0 0 0
0:00:00.00 122566 N 0 0 0
0:00:00.00 122927 N 0 0 0
0:00:00.00 123291 N 0 0 0
0:00:00.00 123651 N 0 0 0
0:00:00.00 124013 N 0 0 0
0:00:00.00 124387 N 0 0 0
0:00:00.00 124749 N 0 0 0
0:00:00.00 125098 N 0 0 0
0:00:00.00 125455 N 0 0 0
0:00:00.00 125806 N 0 0 0
0:00:00.00 126166 N 0 0 0
0:00:00.00 126526 N 0 0 0
0:00:00.00 126882 N 0 0 0
0:00:00.00 127256 N 0 0 0
0:00:00.00 127627 N 0 0 0
0:00:00.00 127996 N 0 0 0
0:00:00.00 128371 N 0 0 0
0:00:00.00 128731 N 0 0 0
0:00:00.00 129101 N 0 0 0
0:00:00.00 129483 N 0 0 0
0:00:00.00 129861 N 0 0 0
0:00:00.00 130225 N 0 0 0
0:00:00.00 130603 N 0 0 0
0:00:00.00 130975 N 0 0 0
0:00:00.00 131341 N 0 0 0
0:00:00.00 131701 N 0 0 0
0:00:00.00 132062 N 0 0 0
0:00:00.00 132433 N 0 0 0
0:00:00.00 132788 N 0 0 0
0:00:00.00 133142 N 0 0 0
0:00:00.00 133511 N 0 0 0
0:00:00.00 133871 N 0 0 0
0:00:00.00 134231 N 0 0 0
0:00:00.00 134595 N 0 0 0
0:00:00.00 134955 N 0 0 0
0:00:00.00 135317 N 0 0 0
0:00:00.00 135682 N 0 0 0
0:00:00.00 136046 N 0 0 0
0:00:00.00 136406 N 0 0 0
0:00:00.00 136766 N 0 0 0
0:00:00.00 137124 N 0 0 0
0:00:00.00 137479 N 0 0 0
0:00:00.00 137833 N 0 0 0
0:00:00.00 138179 N 0 0 0
0:00:00.00 138544 N 0 0 0
0:00:00.00 138902 N 0 0 0
0:00:00.00 139253 N 0 0 0
0:00:00.00 139615 N 0 0 0
0:00:00.00 139966 N 0 0 0
0:00:00.00 140310 N 0 0 0
0:00:00.00 140659 N 0 0 0
0:00:00.00 141007 N 0 0 0
0:00:00.00 141354 N 0 0 0
0:00:00.00 141701 N 0 0 0
0:00:00.00 142033 N 0 0 0
0:00:00.00 142358 N 0 0 0
0:00:00.00 142699 N 0 0 0
0:00:00.00 143026 N 0 0 0
0:00:00.00 143343 N 0 0 0
0:00:00.00 143667 N 0 0 0
0:00:00.00 143975 N 0 0 0
0:00:00.00 144284 N 0 0 0
0:00:00.00 144598 N 0 0 0
0:00:00.00 144904 N 0 0 0
0:00:00.00 145215 N 0 0 0
0:00:00.00 145534 N 0 0 0
0:00:00.00 145856 N 0 0 0
0:00:00.00 146183 N 0 0 0
0:00:00.00 146507 N 0 0 0
0:00:00.00 146831 N 0 0 0
0:00:00.00 147152 N 0 0 0
0:00:00.00 147472 N 0 0 0
0:00:00.00 147796 N 0 0 0
0:00:00.00 148109 N 0 0 0
0:00:00.00 148419 N 0 0 0
0:00:00.00 148743 N 0 0 0
0:00:00.00 149053 N 0 0 0
0:00:00.00 149362 N 0 0 0
0:00:00.00 149675 N 0 0 0
0:00:00.00 149994 N 0 0 0
0:00:00.00 150316 N 0 0 0
0:00:00.00 150642 N 0 0 0
0:00:00.00 150971 N 0 0 0
0:00:00.00 151308 N 0 0 0
0:00:00.00 151654 N 0 0 0
0:00:00.00 151992 N 0 0 0
0:00:00.00 152323 N 0 0 0
0:00:00.00 152665 N 0 0 0
0:00:00.00 152998 N 0 0 0
0:00:00.00 153342 N 0 0 0
0:00:00.00 153689 N 0 0 0
0:00:00.00 154035 N 0 0 0
0:00:00.00 154382 N 0 0 0
0:00:00.00 154726 N 0 0 0
0:00:00.00 155075 N 0 0 0
0:00:00.00 155417 N 0 0 0
0:00:00.00 155759 N 0 0 0
0:00:00.00 156096 N 0 0 0
0:00:00.00 156431 N 0 0 0
0:00:00.00 156773 N 0 0 0
0:00:00.00 157109 N 0 0 0
0:00:00.00 157446 N 0 0 0
0:00:00.00 157799 N 0 0 0
0:00:00.00 158143 N 0 0 0
0:00:00.00 158488 N 0 0 0
0:00:00.00 158837 N 0 0 0
0:00:00.00 159194 N 0 0 0
0:00:00.00 159552 N 0 0 0
0:00:00.00 159921 N 0 0 0
0:00:00.00 160274 N 0 0 0
0:00:00.00 160619 N 0 0 0
0:00:00.00 160974 N 0 0 0
0:00:00.00 161321 N 0 0 0
0:00:00.00 161662 N 0 0 0
0:00:00.00 162013 N 0 0 0
0:00:00.00 162360 N 0 0 0
0:00:00.00 162715 N 0 0 0
0:00:00.00 163069 N 0 0 0
0:00:00.00 163413 N 0 0 0
0:00:00.00 163750 N 0 0 0
0:00:00.00 164099 N 0 0 0
0:00:00.00 164443 N 0 0 0
0:00:00.00 164776 N 0 0 0
0:00:00.00 165118 N 0 0 0
0:00:00.00 165456 N 0 0 0
0:00:00.00 165794 N 0 0 0
0:00:00.00 166145 N 0 0 0
0:00:00.00 166489 N 0 0 0
0:00:00.00 166842 N 0 0 0
0:00:00.00 167204 N 0 0 0
0:00:00.00 167564 N 0 0 0
0:00:00.00 167911 N 0 0 0
0:00:00.00 168266 N 0 0 0
0:00:00.00 168620 N 0 0 0
0:00:00.00 168971 N 0 0 0
0:00:00.00 169324 N 0 0 0
0:00:00.00 169670 N 0 0 0
0:00:00.00 170026 N 0 0 0
0:00:00.00 170386 N 0 0 0
0:00:00.00 170741 N 0 0 0
0:00:00.00 171092 N 0 0 0
0:00:00.00 171443 N 0 0 0
0:00:00.00 171799 N 0 0 0
0:00:00.00 172157 N 0 0 0
0:00:00.00 172499 N 0 0 0
0:00:00.00 172843 N 0 0 0
0:00:00.00 173194 N 0 0 0
0:00:00.00 173531 N 0 0 0
0:00:00.00 173858 N 0 0 0
0:00:00.00 174193 N 0 0 0
0:00:00.00 174521 N 0 0 0
0:00:00.00 174859 N 0 0 0
0:00:00.00 175212 N 0 0 0
0:00:00.00 175558 N 0 0 0
0:00:00.00 175905 N 0 0 0
0:00:00.00 176265 N 0 0 0
0:00:00.00 176616 N 0 0 0
0:00:00.00 176958 N 0 0 0
0:00:00.00 177311 N 0 0 0
0:00:00.00 177653 N 0 0 0
0:00:00.00 177988 N 0 0 0
0:00:00.00 178326 N 0 0 0
0:00:00.00 178664 N 0 0 0
0:00:00.00 179012 N 0 0 0
0:00:00.00 179374 N 0 0 0
0:00:00.00 179734 N 0 0 0
0:00:00.00 180097 N 0 0 0
0:00:00.00 180463 N 0 0 0
0:00:00.00 180828 N 0 0 0
0:00:00.00 181188 N 0 0 0
0:00:00.00 181557 N 0 0 0
0:00:00.00 181919 N 0 0 0
0:00:00.00 182282 N 0 0 0
0:00:00.00 182642 N 0 0 0
0:00:00.00 182995 N 0 0 0
0:00:00.00 183346 N 0 0 0
0:00:00.00 183692 N 0 0 0
0:00:00.00 184039 N 0 0 0
0:00:00.00 184390 N 0 0 0
0:00:00.00 184734 N 0 0 0
0:00:00.00 185076 N 0 0 0
0:00:00.00 185423 N 0 0 0
0:00:00.00 185771 N 0 0 0
0:00:00.00 186116 N 0 0 0
0:00:00.00 186466 N 0 0 0
0:00:00.00 186818 N 0 0 0
0:00:00.00 187169 N 0 0 0
0:00:00.00 187533 N 0 0 0
0:00:00.00 187891 N 0 0 0
0:00:00.00 188246 N 0 0 0
0:00:00.00 188617 N 0 0 0
0:00:00.00 188978 N 0 0 0
0:00:00.00 189320 N 0 0 0
0:00:00.00 189670 N 0 0 0
0:00:00.00 190021 N 0 0 0
0:00:00.00 190381 N 0 0 0
0:00:00.00 190737 N 0 0 0
0:00:00.00 191088 N 0 0 0
0:00:00.00 191446 N 0 0 0
0:00:00.00 191804 N 0 0 0
0:00:00.00 192159 N 0 0 0
0:00:00.00 192508 N 0 0 0
0:00:00.00 192865 N 0 0 0
0:00:00.00 193225 N 0 0 0
0:00:00.00 193594 N 0 0 0
0:00:00.00 193948 N 0 0 0
0:00:00.00 194303 N 0 0 0
0:00:00.00 194668 N 0 0 0
0:00:00.00 195025 N 0 0 0
0:00:00.00 195374 N 0 0 0
0:00:00.00 195728 N 0 0 0
0:00:00.00 196081 N 0 0 0
0:00:00.00 196445 N 0 0 0
0:00:00.00 196807 N 0 0 0
0:00:00.00 197170 N 0 0 0
0:00:00.00 197539 N 0 0 0
0:00:00.00 197912 N 0 0 0
0:00:00.00 198275 N 0 0 0
0:00:00.00 198641 N 0 0 0
0:00:00.00 199004 N 0 0 0
0:00:00.00 199368 N 0 0 0
0:00:00.00 199737 N 0 0 0
0:00:00.00 200097 N 0 0 0
0:00:00.00 200461 N 0 0 0
0:00:00.00 200830 N 0 0 0
0:00:00.00 201197 N 0 0 0
0:00:00.00 201555 N 0 0 0
0:00:00.00 201922 N 0 0 0
0:00:00.00 202273 N 0 0 0
0:00:00.00 202626 N 0 0 0
0:00:00.00 202984 N 0 0 0
0:00:00.00 203342 N 0 0 0
0:00:00.00 203710 N 0 0 0
0:00:00.00 204079 N 0 0 0
0:00:00.00 204440 N 0 0 0
0:00:00.00 204813 N 0 0 0
0:00:00.00 205182 N 0 0 0
0:00:00.00 205546 N 0 0 0
0:00:00.00 205911 N 0 0 0
0:00:00.00 206271 N 0 0 0
0:00:00.00 206636 N 0 0 0
0:00:00.00 207005 N 0 0 0
0:00:00.00 207373 N 0 0 0
0:00:00.00 207729 N 0 0 0
0:00:00.00 208089 N 0 0 0
0:00:00.00 208451 N 0 0 0
0:00:00.00 208822 N 0 0 0
0:00:00.00 209185 N 0 0 0
0:00:00.00 209551 N 0 0 0
0:00:00.00 209929 N 0 0 0
0:00:00.00 210303 N 0 0 0
0:00:00.00 210679 N 0 0 0
0:00:00.00 211063 N 0 0 0
0:00:00.00 211439 N 0 0 0
0:00:00.00 211826 N 0 0 0
0:00:00.00 212209 N 0 0 0
0:00:00.00 212587 N 0 0 0
0:00:00.00 212976 N 0 0 0
0:00:00.00 213352 N 0 0 0
0:00:00.00 213725 N 0 0 0
0:00:00.00 214099 N 0 0 0
0:00:00.00 214479 N 0 0 0
0:00:00.00 214864 N 0 0 0
0:00:00.00 215239 N 0 0 0
0:00:00.00 215608 N 0 0 0
0:00:00.00 215986 N 0 0 0
0:00:00.00 216344 N 0 0 0
0:00:00.00 216704 N 0 0 0
0:00:00.00 217069 N 0 0 0
0:00:00.00 217427 N 0 0 0
0:00:00.00 217787 N 0 0 0
0:00:00.00 218162 N 0 0 0
0:00:00.00 218533 N 0 0 0
0:00:00.00 218905 N 0 0 0
0:00:00.00 219289 N 0 0 0
0:00:00.00 219665 N 0 0 0
0:00:00.00 220036 N 0 0 0
0:00:00.00 220414 N 0 0 0
0:00:00.00 220793 N 0 0 0
0:00:00.00 221177 N 0 0 0
0:00:00.00 221546 N 0 0 0
0:00:00.00 221922 N 0 0 0
0:00:00.00 222305 N 0 0 0
0:00:00.00 222683 N 0 0 0
0:00:00.00 223060 N 0 0 0
0:00:00.00 223436 N 0 0 0
0:00:00.00 223817 N 0 0 0
0:00:00.00 224201 N 0 0 0
0:00:00.00 224568 N 0 0 0
0:00:00.00 224933 N 0 0 0
0:00:00.00 225310 N 0 0 0
0:00:00.00 225673 N 0 0 0
0:00:00.00 226033 N 0 0 0
0:00:00.00 226402 N 0 0 0
0:00:00.00 226762 N 0 0 0
0:00:00.00 227133 N 0 0 0
0:00:00.00 227506 N 0 0 0
0:00:00.00 227869 N 0 0 0
0:00:00.00 228249 N 0 0 0
0:00:00.00 228623 N 0 0 0
0:00:00.00 228991 N 0 0 0
0:00:00.00 229365 N 0 0 0
0:00:00.00 229730 N 0 0 0
0:00:00.00 230098 N 0 0 0
0:00:00.00 230476 N 0 0 0
0:00:00.00 230843 N 0 0 0
0:00:00.00 231214 N 0 0 0
0:00:00.00 231586 N 0 0 0
0:00:00.00 231953 N 0 0 0
0:00:00.00 232324 N 0 0 0
0:00:00.00 232691 N 0 0 0
0:00:00.00 233051 N 0 0 0
0:00:00.00 233419 N 0 0 0
0:00:00.00 233773 N 0 0 0
0:00:00.00 234139 N 0 0 0
0:00:00.00 234509 N 0 0 0
0:00:00.00 234875 N 0 0 0
0:00:00.00 235237 N 0 0 0
0:00:00.00 235597 N 0 0 0
0:00:00.00 235955 N 0 0 0
0:00:00.00 236322 N 0 0 0
0:00:00.00 236687 N 0 0 0
0:00:00.00 237049 N 0 0 0
0:00:00.00 237411 N 0 0 0
0:00:00.00 237773 N 0 0 0
0:00:00.00 238133 N 0 0 0
0:00:00.00 238496 N 0 0 0
0:00:00.00 238862 N 0 0 0
0:00:00.00 239234 N 0 0 0
0:00:00.00 239609 N 0 0 0
0:00:00.00 239981 N 0 0 0
0:00:00.00 240361 N 0 0 0
0:00:00.00 240736 N 0 0 0
0:00:00.00 241112 N 0 0 0
0:00:00.00 241483 N 0 0 0
0:00:00.00 241855 N 0 0 0
0:00:00.00 242228 N 0 0 0
0:00:00.00 242593 N 0 0 0
0:00:00.00 242968 N 0 0 0
0:00:00.00 243344 N 0 0 0
0:00:00.00 243713 N 0 0 0
0:00:00.00 244087 N 0 0 0
0:00:00.00 244456 N 0 0 0
0:00:00.00 244822 N 0 0 0
0:00:00.00 245196 N 0 0 0
0:00:00.00 245567 N 0 0 0
0:00:00.00 245930 N 0 0 0
0:00:00.00 246285 N 0 0 0
0:00:00.00 246656 N 0 0 0
0:00:00.00 247019 N 0 0 0
0:00:00.00 247363 N 0 0 0
0:00:00.00 247727 N 0 0 0
0:00:00.00 248089 N 0 0 0
0:00:00.00 248449 N 0 0 0
0:00:00.00 248809 N 0 0 0
0:00:00.00 249161 N 0 0 0
0:00:00.00 249525 N 0 0 0
0:00:00.00 249887 N 0 0 0
0:00:00.00 250243 N 0 0 0
0:00:00.00 250605 N 0 0 0
0:00:00.00 250967 N 0 0 0
0:00:00.00 251330 N 0 0 0
0:00:00.00 251703 N 0 0 0
0:00:00.00 252058 N 0 0 0
0:00:00.00 252419 N 0 0 0
0:00:00.00 252785 N 0 0 0
0:00:00.00 253148 N 0 0 0
0:00:00.00 253501 N 0 0 0
0:00:00.00 253859 N 0 0 0
0:00:00.00 254216 N 0 0 0
0:00:00.00 254579 N 0 0 0
0:00:00.00 254938 N 0 0 0
0:00:00.00 255294 N 0 0 0
0:00:00.00 255658 N 0 0 0
0:00:00.00 256012 N 0 0 0
0:00:00.00 256372 N 0 0 0
0:00:00.00 256736 N 0 0 0
0:00:00.00 257096 N 0 0 0
0:00:00.00 257452 N 0 0 0
0:00:00.00 257814 N 0 0 0
0:00:00.00 258176 N 0 0 0
0:00:00.00 258543 N 0 0 0
0:00:00.00 258923 N 0 0 0
0:00:00.00 259295 N 0 0 0
0:00:00.00 259650 N 0 0 0
0:00:00.00 260019 N 0 0 0
0:00:00.00 260384 N 0 0 0
0:00:00.00 260755 N 0 0 0
0:00:00.00 261128 N 0 0 0
0:00:00.00 261482 N 0 0 0
0:00:00.00 261848 N 0 0 0
0:00:00.00 262215 N 0 0 0
0:00:00.00 262575 N 0 0 0
0:00:00.00 262949 N 0 0 0
0:00:00.00 263315 N 0 0 0
0:00:00.00 263689 N 0 0 0
0:00:00.00 264073 N 0 0 0
0:00:00.00 264449 N 0 0 0
0:00:00.00 264812 N 0 0 0
0:00:00.00 265187 N 0 0 0
0:00:00.00 265559 N 0 0 0
0:00:00.00 265921 N 0 0 0
0:00:00.00 266283 N 0 0 0
0:00:00.00 266652 N 0 0 0
0:00:00.00 267032 N 0 0 0
0:00:00.00 267404 N 0 0 0
0:00:00.00 267773 N 0 0 0
0:00:00.00 268157 N 0 0 0
0:00:00.00 268528 N 0 0 0
0:00:00.00 268897 N 0 0 0
0:00:00.00 269267 N 0 0 0
0:00:00.00 269644 N 0 0 0
0:00:00.00 270025 N 0 0 0
0:00:00.00 270400 N 0 0 0
0:00:00.00 270769 N 0 0 0
0:00:00.00 271138 N 0 0 0
0:00:00.00 271501 N 0 0 0
0:00:00.00 271850 N 0 0 0
0:00:00.00 272207 N 0 0 0
0:00:00.00 272567 N 0 0 0
0:00:00.00 272934 N 0 0 0
0:00:00.00 273303 N 0 0 0
0:00:00.00 273663 N 0 0 0
0:00:00.00 274036 N 0 0 0
0:00:00.00 274401 N 0 0 0
0:00:00.00 274770 N 0 0 0
0:00:00.00 275135 N 0 0 0
0:00:00.00 275497 N 0 0 0
0:00:00.00 275857 N 0 0 0
0:00:00.00 276224 N 0 0 0
0:00:00.00 276581 N 0 0 0
0:00:00.00 276935 N 0 0 0
0:00:00.00 277294 N 0 0 0
0:00:00.00 277632 N 0 0 0
0:00:00.00 277970 N 0 0 0
0:00:00.00 278323 N 0 0 0
0:00:00.00 278672 N 0 0 0
0:00:00.00 279029 N 0 0 0
0:00:00.00 279387 N 0 0 0
0:00:00.00 279742 N 0 0 0
0:00:00.00 280102 N 0 0 0
0:00:00.00 280462 N 0 0 0
0:00:00.00 280816 N 0 0 0
0:00:00.00 281165 N 0 0 0
0:00:00.00 281511 N 0 0 0
0:00:00.00 281864 N 0 0 0
0:00:00.00 282220 N 0 0 0
0:00:00.00 282571 N 0 0 0
0:00:00.00 282910 N 0 0 0
0:00:00.00 283255 N 0 0 0
0:00:00.00 283608 N 0 0 0
0:00:00.00 283963 N 0 0 0
0:00:00.00 284328 N 0 0 0
0:00:00.00 284692 N 0 0 0
0:00:00.00 285057 N 0 0 0
0:00:00.00 285426 N 0 0 0
0:00:00.00 285779 N 0 0 0
0:00:00.00 286139 N 0 0 0
0:00:00.00 286504 N 0 0 0
0:00:00.00 286868 N 0 0 0
0:00:00.00 287219 N 0 0 0
0:00:00.00 287575 N 0 0 0
0:00:00.00 287928 N 0 0 0
0:00:00.00 288292 N 0 0 0
0:00:00.00 288641 N 0 0 0
0:00:00.00 288990 N 0 0 0
0:00:00.00 289352 N 0 0 0
0:00:00.00 289705 N 0 0 0
0:00:00.00 290057 N 0 0 0
0:00:00.00 290417 N 0 0 0
0:00:00.00 290765 N 0 0 0
0:00:00.00 291128 N 0 0 0
0:00:00.00 291501 N 0 0 0
0:00:00.00 291868 N 0 0 0
0:00:00.00 292235 N 0 0 0
0:00:00.00 292606 N 0 0 0
0:00:00.00 292977 N 0 0 0
0:00:00.00 293333 N 0 0 0
0:00:00.00 293701 N 0 0 0
0:00:00.00 294062 N 0 0 0
0:00:00.00 294431 N 0 0 0
0:00:00.00 294791 N 0 0 0
0:00:00.00 295151 N 0 0 0
0:00:00.00 295520 N 0 0 0
0:00:00.00 295888 N 0 0 0
0:00:00.00 296240 N 0 0 0
0:00:00.00 296602 N 0 0 0
0:00:00.00 296962 N 0 0 0
0:00:00.00 297328 N 0 0 0
0:00:00.00 297695 N 0 0 0
0:00:00.00 298055 N 0 0 0
0:00:00.00 298420 N 0 0 0
0:00:00.00 298787 N 0 0 0
0:00:00.00 299155 N 0 0 0
0:00:00.00 299513 N 0 0 0
0:00:00.00 299885 N 0 0 0
0:00:00.00 300249 N 0 0 0
0:00:00.00 300618 N 0 0 0
0:00:00.00 300982 N 0 0 0
0:00:00.00 301342 N 0 0 0
0:00:00.00 301714 N 0 0 0
0:00:00.00 302076 N 0 0 0
0:00:00.00 302429 N 0 0 0
0:00:00.00 302791 N 0 0 0
0:00:00.00 303142 N 0 0 0
0:00:00.00 303493 N 0 0 0
0:00:00.00 303842 N 0 0 0
0:00:00.00 304193 N 0 0 0
0:00:00.00 304542 N 0 0 0
0:00:00.00 304895 N 0 0 0
0:00:00.00 305249 N 0 0 0
0:00:00.00 305599 N 0 0 0
0:00:00.00 305948 N 0 0 0
0:00:00.00 306299 N 0 0 0
0:00:00.00 306659 N 0 0 0
0:00:00.00 307013 N 0 0 0
0:00:00.00 307372 N 0 0 0
0:00:00.00 307732 N 0 0 0
0:00:00.00 308083 N 0 0 0
0:00:00.00 308435 N 0 0 0
0:00:00.00 308804 N 0 0 0
0:00:00.00 309172 N 0 0 0
0:00:00.00 309535 N 0 0 0
0:00:00.00 309906 N 0 0 0
0:00:00.00 310270 N 0 0 0
0:00:00.00 310635 N 0 0 0
0:00:00.00 311009 N 0 0 0
0:00:00.00 311380 N 0 0 0
0:00:00.00 311746 N 0 0 0
0:00:00.00 312109 N 0 0 0
0:00:00.00 312473 N 0 0 0
0:00:00.00 312838 N 0 0 0
0:00:00.00 313207 N 0 0 0
0:00:00.00 313576 N 0 0 0
0:00:00.00 313956 N 0 0 0
0:00:00.00 314325 N 0 0 0
0:00:00.00 314689 N 0 0 0
0:00:00.00 315054 N 0 0 0
0:00:00.00 315412 N 0 0 0
0:00:00.00 315776 N 0 0 0
0:00:00.00 316147 N 0 0 0
0:00:00.00 316508 N 0 0 0
0:00:00.00 316877 N 0 0 0
0:00:00.00 317246 N 0 0 0
0:00:00.00 317606 N 0 0 0
0:00:00.00 317974 N 0 0 0
0:00:00.00 318330 N 0 0 0
0:00:00.00 318699 N 0 0 0
0:00:00.00 319079 N 0 0 0
0:00:00.00 319453 N 0 0 0
0:00:00.00 319826 N 0 0 0
0:00:00.00 320206 N 0 0 0
0:00:00.00 320580 N 0 0 0
0:00:00.00 320944 N 0 0 0
0:00:00.00 321313 N 0 0 0
0:00:00.00 321678 N 0 0 0
0:00:00.00 322047 N 0 0 0
0:00:00.00 322402 N 0 0 0
0:00:00.00 322749 N 0 0 0
0:00:00.00 323122 N 0 0 0
0:00:00.00 323480 N 0 0 0
0:00:00.00 323831 N 0 0 0
0:00:00.00 324191 N 0 0 0
0:00:00.00 324553 N 0 0 0
0:00:00.00 324907 N 0 0 0
0:00:00.00 325262 N 0 0 0
0:00:00.00 325618 N 0 0 0
0:00:00.00 325975 N 0 0 0
0:00:00.00 326340 N 0 0 0
0:00:00.00 326698 N 0 0 0
0:00:00.00 327062 N 0 0 0
0:00:00.00 327418 N 0 0 0
0:00:00.00 327780 N 0 0 0
0:00:00.00 328149 N 0 0 0
0:00:00.00 328504 N 0 0 0
0:00:00.00 328853 N 0 0 0
0:00:00.00 329216 N 0 0 0
0:00:00.00 329567 N 0 0 0
0:00:00.00 329915 N 0 0 0
0:00:00.00 330273 N 0 0 0
0:00:00.00 330619 N 0 0 0
0:00:00.00 330975 N 0 0 0
0:00:00.00 331328 N 0 0 0
0:00:00.00 331686 N 0 0 0
0:00:00.00 332044 N 0 0 0
0:00:00.00 332410 N 0 0 0
0:00:00.00 332770 N 0 0 0
0:00:00.00 333124 N 0 0 0
0:00:00.00 333473 N 0 0 0
0:00:00.00 333837 N 0 0 0
0:00:00.00 334204 N 0 0 0
0:00:00.00 334566 N 0 0 0
0:00:00.00 334924 N 0 0 0
0:00:00.00 335290 N 0 0 0
0:00:00.00 335657 N 0 0 0
0:00:00.00 336008 N 0 0 0
0:00:00.00 336371 N 0 0 0
0:00:00.00 336728 N 0 0 0
0:00:00.00 337081 N 0 0 0
0:00:00.00 337444 N 0 0 0
0:00:00.00 337795 N 0 0 0
0:00:00.00 338152 N 0 0 0
0:00:00.00 338501 N 0 0 0
0:00:00.00 338854 N 0 0 0
0:00:00.00 339199 N 0 0 0
0:00:00.00 339552 N 0 0 0
0:00:00.00 339899 N 0 0 0
0:00:00.00 340243 N 0 0 0
0:00:00.00 340582 N 0 0 0
0:00:00.00 340931 N 0 0 0
0:00:00.00 341293 N 0 0 0
0:00:00.00 341642 N 0 0 0
0:00:00.00 341998 N 0 0 0
0:00:00.00 342353 N 0 0 0
0:00:00.00 342697 N 0 0 0
0:00:00.00 343051 N 0 0 0
0:00:00.00 343411 N 0 0 0
0:00:00.00 343773 N 0 0 0
0:00:00.00 344133 N 0 0 0
0:00:00.00 344506 N 0 0 0
0:00:00.00 344869 N 0 0 0
0:00:00.00 345215 N 0 0 0
0:00:00.00 345568 N 0 0 0
0:00:00.00 345910 N 0 0 0
0:00:00.00 346250 N 0 0 0
0:00:00.00 346597 N 0 0 0
0:00:00.00 346930 N 0 0 0
0:00:00.00 347263 N 0 0 0
0:00:00.00 347594 N 0 0 0
0:00:00.00 347944 N 0 0 0
0:00:00.00 348282 N 0 0 0
0:00:00.00 348626 N 0 0 0
0:00:00.00 348968 N 0 0 0
0:00:00.00 349322 N 0 0 0
0:00:00.00 349684 N 0 0 0
0:00:00.00 350051 N 0 0 0
0:00:00.00 350422 N 0 0 0
0:00:00.00 350804 N 0 0 0
0:00:00.00 351175 N 0 0 0
0:00:00.00 351554 N 0 0 0
0:00:00.00 351932 N 0 0 0
0:00:00.00 352316 N 0 0 0
0:00:00.00 352708 N 0 0 0
0:00:00.00 353092 N 0 0 0
0:00:00.00 353486 N 0 0 0
0:00:00.00 353871 N 0 0 0
0:00:00.00 354256 N 0 0 0
0:00:00.00 354629 N 0 0 0
0:00:00.00 355000 N 0 0 0
0:00:00.00 355376 N 0 0 0
0:00:00.00 355759 N 0 0 0
0:00:00.00 356126 N 0 0 0
0:00:00.00 356492 N 0 0 0
0:00:00.00 356873 N 0 0 0
0:00:00.00 357253 N 0 0 0
0:00:00.00 357628 N 0 0 0
0:00:00.00 358002 N 0 0 0
0:00:00.00 358373 N 0 0 0
0:00:00.00 358749 N 0 0 0
0:00:00.00 359125 N 0 0 0
0:00:00.00 359491 N 0 0 0
0:00:00.00 359876 N 0 0 0
0:00:00.00 360257 N 0 0 0
0:00:00.00 360623 N 0 0 0
0:00:00.00 360999 N 0 0 0
0:00:00.00 361375 N 0 0 0
0:00:00.00 361762 N 0 0 0
0:00:00.00 362138 N 0 0 0
0:00:00.00 362513 N 0 0 0
0:00:00.00 362889 N 0 0 0
0:00:00.00 363267 N 0 0 0
0:00:00.00 363638 N 0 0 0
0:00:00.00 364012 N 0 0 0
0:00:00.00 364264 N 0 0 0
0:00:00.00 364720 N 0 0 0
0:00:00.00 364912 N 0 0 0
0:00:00.00 365450 N 0 0 0
0:00:00.00 365830 N 0 0 0
0:00:00.00 366197 N 0 0 0
0:00:00.00 366556 N 0 0 0
0:00:00.00 366928 N 0 0 0
0:00:00.00 367299 N 0 0 0
0:00:00.00 367673 N 0 0 0
0:00:00.00 368051 N 0 0 0
0:00:00.00 368419 N 0 0 0
0:00:00.00 368793 N 0 0 0
0:00:00.00 369157 N 0 0 0
0:00:00.00 369520 N 0 0 0
0:00:00.00 369884 N 0 0 0
0:00:00.00 370242 N 0 0 0
0:00:00.00 370606 N 0 0 0
0:00:00.00 370973 N 0 0 0
0:00:00.00 371329 N 0 0 0
0:00:00.00 371689 N 0 0 0
0:00:00.00 372060 N 0 0 0
0:00:00.00 372420 N 0 0 0
0:00:00.00 372776 N 0 0 0
0:00:00.00 373136 N 0 0 0
0:00:00.00 373493 N 0 0 0
0:00:00.00 373855 N 0 0 0
0:00:00.00 374207 N 0 0 0
0:00:00.00 374562 N 0 0 0
0:00:00.00 374927 N 0 0 0
0:00:00.00 375289 N 0 0 0
0:00:00.00 375644 N 0 0 0
0:00:00.00 376004 N 0 0 0
0:00:00.00 376358 N 0 0 0
0:00:00.00 376713 N 0 0 0
0:00:00.00 377077 N 0 0 0
0:00:00.00 377435 N 0 0 0
0:00:00.00 377793 N 0 0 0
0:00:00.00 378160 N 0 0 0
0:00:00.00 378518 N 0 0 0
0:00:00.00 378877 N 0 0 0
0:00:00.00 379242 N 0 0 0
0:00:00.00 379598 N 0 0 0
0:00:00.00 379958 N 0 0 0
0:00:00.00 380317 N 0 0 0
0:00:00.00 380669 N 0 0 0
0:00:00.00 381031 N 0 0 0
0:00:00.00 381386 N 0 0 0
0:00:00.00 381742 N 0 0 0
0:00:00.00 382102 N 0 0 0
0:00:00.00 382462 N 0 0 0
0:00:00.00 382820 N 0 0 0
0:00:00.00 383191 N 0 0 0
0:00:00.00 383557 N 0 0 0
0:00:00.00 383922 N 0 0 0
0:00:00.00 384287 N 0 0 0
0:00:00.00 384649 N 0 0 0
0:00:00.00 384993 N 0 0 0
0:00:00.00 385335 N 0 0 0
0:00:00.00 385681 N 0 0 0
0:00:00.00 386033 N 0 0 0
0:00:00.00 386392 N 0 0 0
0:00:00.00 386743 N 0 0 0
0:00:00.00 387106 N 0 0 0
0:00:00.00 387481 N 0 0 0
0:00:00.00 387855 N 0 0 0
0:00:00.00 388228 N 0 0 0
0:00:00.00 388591 N 0 0 0
0:00:00.00 388960 N 0 0 0
0:00:00.00 389338 N 0 0 0
0:00:00.00 389700 N 0 0 0
0:00:00.00 390055 N 0 0 0
0:00:00.00 390424 N 0 0 0
0:00:00.00 390782 N 0 0 0
0:00:00.00 391135 N 0 0 0
0:00:00.00 391491 N 0 0 0
0:00:00.00 391847 N 0 0 0
0:00:00.00 392207 N 0 0 0
0:00:00.00 392564 N 0 0 0
0:00:00.00 392920 N 0 0 0
0:00:00.00 393278 N 0 0 0
0:00:00.00 393642 N 0 0 0
0:00:00.00 394000 N 0 0 0
0:00:00.00 394360 N 0 0 0
0:00:00.00 394722 N 0 0 0
0:00:00.00 395087 N 0 0 0
0:00:00.00 395456 N 0 0 0
0:00:00.00 395824 N 0 0 0
0:00:00.00 396191 N 0 0 0
0:00:00.00 396565 N 0 0 0
0:00:00.00 396936 N 0 0 0
0:00:00.00 397301 N 0 0 0
0:00:00.00 397661 N 0 0 0
0:00:00.00 398027 N 0 0 0
0:00:00.00 398394 N 0 0 0
0:00:00.00 398749 N 0 0 0
0:00:00.00 399107 N 0 0 0
0:00:00.00 399481 N 0 0 0
0:00:00.00 399845 N 0 0 0
0:00:00.00 400207 N 0 0 0
0:00:00.00 400577 N 0 0 0
0:00:00.00 400941 N 0 0 0
0:00:00.00 401306 N 0 0 0
0:00:00.00 401668 N 0 0 0
0:00:00.00 402030 N 0 0 0
0:00:00.00 402401 N 0 0 0
0:00:00.00 402770 N 0 0 0
0:00:00.00 403130 N 0 0 0
0:00:00.00 403484 N 0 0 0
0:00:00.00 403841 N 0 0 0
0:00:00.00 404201 N 0 0 0
0:00:00.00 404570 N 0 0 0
0:00:00.00 404937 N 0 0 0
0:00:00.00 405304 N 0 0 0
0:00:00.00 405673 N 0 0 0
0:00:00.00 406040 N 0 0 0
0:00:00.00 406399 N 0 0 0
0:00:00.00 406759 N 0 0 0
0:00:00.00 407117 N 0 0 0
0:00:00.00 407482 N 0 0 0
0:00:00.00 407848 N 0 0 0
0:00:00.00 408206 N 0 0 0
0:00:00.00 408582 N 0 0 0
0:00:00.00 408951 N 0 0 0
0:00:00.00 409316 N 0 0 0
0:00:00.00 409694 N 0 0 0
0:00:00.00 410063 N 0 0 0
0:00:00.00 410431 N 0 0 0
0:00:00.00 410803 N 0 0 0
0:00:00.00 411176 N 0 0 0
0:00:00.00 411548 N 0 0 0
0:00:00.00 411917 N 0 0 0
0:00:00.00 412292 N 0 0 0
0:00:00.00 412664 N 0 0 0
0:00:00.00 413037 N 0 0 0
0:00:00.00 413408 N 0 0 0
0:00:00.00 413788 N 0 0 0
0:00:00.00 414158 N 0 0 0
0:00:00.00 414536 N 0 0 0
0:00:00.00 414913 N 0 0 0
0:00:00.00 415282 N 0 0 0
0:00:00.00 415654 N 0 0 0
0:00:00.00 416027 N 0 0 0
0:00:00.00 416403 N 0 0 0
0:00:00.00 416788 N 0 0 0
0:00:00.00 417161 N 0 0 0
0:00:00.00 417542 N 0 0 0
0:00:00.00 417924 N 0 0 0
0:00:00.00 418306 N 0 0 0
0:00:00.00 418682 N 0 0 0
0:00:00.00 419045 N 0 0 0
0:00:00.00 419416 N 0 0 0
0:00:00.00 419791 N 0 0 0
0:00:00.00 420158 N 0 0 0
0:00:00.00 420520 N 0 0 0
0:00:00.00 420892 N 0 0 0
0:00:00.00 421263 N 0 0 0
0:00:00.00 421627 N 0 0 0
0:00:00.00 421996 N 0 0 0
0:00:00.00 422366 N 0 0 0
0:00:00.00 422739 N 0 0 0
0:00:00.00 423115 N 0 0 0
0:00:00.00 423490 N 0 0 0
0:00:00.00 423868 N 0 0 0
0:00:00.00 424242 N 0 0 0
0:00:00.00 424611 N 0 0 0
0:00:00.00 424982 N 0 0 0
0:00:00.00 425358 N 0 0 0
0:00:00.00 425736 N 0 0 0
0:00:00.00 426110 N 0 0 0
0:00:00.00 426485 N 0 0 0
0:00:00.00 426865 N 0 0 0
0:00:00.00 427237 N 0 0 0
0:00:00.00 427612 N 0 0 0
0:00:00.00 427984 N 0 0 0
0:00:00.00 428362 N 0 0 0
0:00:00.00 428737 N 0 0 0
0:00:00.00 429115 N 0 0 0
0:00:00.00 429489 N 0 0 0
0:00:00.00 429869 N 0 0 0
0:00:00.00 430241 N 0 0 0
0:00:00.00 430618 N 0 0 0
0:00:00.00 430994 N 0 0 0
0:00:00.00 431361 N 0 0 0
0:00:00.00 431741 N 0 0 0
0:00:00.00 432119 N 0 0 0
0:00:00.00 432488 N 0 0 0
0:00:00.00 432864 N 0 0 0
0:00:00.00 433240 N 0 0 0
0:00:00.00 433615 N 0 0 0
0:00:00.00 433985 N 0 0 0
0:00:00.00 434353 N 0 0 0
0:00:00.00 434723 N 0 0 0
0:00:00.00 435109 N 0 0 0
0:00:00.00 435485 N 0 0 0
0:00:00.00 435868 N 0 0 0
0:00:00.00 436252 N 0 0 0
0:00:00.00 436637 N 0 0 0
0:00:00.00 437015 N 0 0 0
0:00:00.00 437387 N 0 0 0
0:00:00.00 437765 N 0 0 0
0:00:00.00 438151 N 0 0 0
0:00:00.00 438530 N 0 0 0
0:00:00.00 438910 N 0 0 0
0:00:00.00 439295 N 0 0 0
0:00:00.00 439681 N 0 0 0
0:00:00.00 440059 N 0 0 0
0:00:00.00 440438 N 0 0 0
0:00:00.00 440809 N 0 0 0
0:00:00.00 441189 N 0 0 0
0:00:00.00 441558 N 0 0 0
0:00:00.00 441925 N 0 0 0
0:00:00.00 442303 N 0 0 0
0:00:00.00 442670 N 0 0 0
0:00:00.00 443029 N 0 0 0
0:00:00.00 443396 N 0 0 0
0:00:00.00 443761 N 0 0 0
0:00:00.00 444125 N 0 0 0
0:00:00.00 444487 N 0 0 0
0:00:00.00 444845 N 0 0 0
0:00:00.00 445214 N 0 0 0
0:00:00.00 445577 N 0 0 0
0:00:00.00 445934 N 0 0 0
0:00:00.00 446294 N 0 0 0
0:00:00.00 446643 N 0 0 0
0:00:00.00 447001 N 0 0 0
0:00:00.00 447368 N 0 0 0
0:00:00.00 447728 N 0 0 0
0:00:00.00 448092 N 0 0 0
0:00:00.00 448457 N 0 0 0
0:00:00.00 448819 N 0 0 0
0:00:00.00 449172 N 0 0 0
0:00:00.00 449534 N 0 0 0
0:00:00.00 449894 N 0 0 0
0:00:00.00 450254 N 0 0 0
0:00:00.00 450607 N 0 0 0
0:00:00.00 450956 N 0 0 0
0:00:00.00 451319 N 0 0 0
0:00:00.00 451670 N 0 0 0
0:00:00.00 452023 N 0 0 0
0:00:00.00 452392 N 0 0 0
0:00:00.00 452758 N 0 0 0
0:00:00.00 453125 N 0 0 0
0:00:00.00 453497 N 0 0 0
0:00:00.00 453870 N 0 0 0
0:00:00.00 454250 N 0 0 0
0:00:00.00 454624 N 0 0 0
0:00:00.00 454991 N 0 0 0
0:00:00.00 455362 N 0 0 0
0:00:00.00 455738 N 0 0 0
0:00:00.00 456113 N 0 0 0
0:00:00.00 456494 N 0 0 0
0:00:00.00 456869 N 0 0 0
0:00:00.00 457245 N 0 0 0
0:00:00.00 457619 N 0 0 0
0:00:00.00 457987 N 0 0 0
0:00:00.00 458356 N 0 0 0
0:00:00.00 458732 N 0 0 0
0:00:00.00 459104 N 0 0 0
0:00:00.00 459484 N 0 0 0
0:00:00.00 459857 N 0 0 0
0:00:00.00 460235 N 0 0 0
0:00:00.00 460615 N 0 0 0
0:00:00.00 460993 N 0 0 0
0:00:00.00 461367 N 0 0 0
0:00:00.00 461734 N 0 0 0
0:00:00.00 462107 N 0 0 0
0:00:00.00 462485 N 0 0 0
0:00:00.00 462854 N 0 0 0
0:00:00.00 463216 N 0 0 0
0:00:00.00 463586 N 0 0 0
0:00:00.00 463946 N 0 0 0
0:00:00.00 464306 N 0 0 0
0:00:00.00 464665 N 0 0 0
0:00:00.00 465028 N 0 0 0
0:00:00.00 465395 N 0 0 0
0:00:00.00 465766 N 0 0 0
0:00:00.00 466130 N 0 0 0
0:00:00.00 466499 N 0 0 0
0:00:00.00 466870 N 0 0 0
0:00:00.00 467235 N 0 0 0
0:00:00.00 467608 N 0 0 0
0:00:00.00 467971 N 0 0 0
0:00:00.00 468337 N 0 0 0
0:00:00.00 468709 N 0 0 0
0:00:00.00 469075 N 0 0 0
0:00:00.00 469438 N 0 0 0
0:00:00.00 469805 N 0 0 0
0:00:00.00 470173 N 0 0 0
0:00:00.00 470527 N 0 0 0
0:00:00.00 470887 N 0 0 0
0:00:00.00 471251 N 0 0 0
0:00:00.00 471620 N 0 0 0
0:00:00.00 471978 N 0 0 0
0:00:00.00 472333 N 0 0 0
0:00:00.00 472696 N 0 0 0
0:00:00.00 473047 N 0 0 0
0:00:00.00 473386 N 0 0 0
0:00:00.00 473744 N 0 0 0
0:00:00.00 474097 N 0 0 0
0:00:00.00 474462 N 0 0 0
0:00:00.00 474831 N 0 0 0
0:00:00.00 475198 N 0 0 0
0:00:00.00 475574 N 0 0 0
0:00:00.00 475960 N 0 0 0
0:00:00.00 476339 N 0 0 0
0:00:00.00 476719 N 0 0 0
0:00:00.00 477101 N 0 0 0
0:00:00.00 477486 N 0 0 0
0:00:00.00 477877 N 0 0 0
0:00:00.00 478258 N 0 0 0
0:00:00.00 478649 N 0 0 0
0:00:00.00 479045 N 0 0 0
0:00:00.00 479428 N 0 0 0
0:00:00.00 479812 N 0 0 0
0:00:00.00 480190 N 0 0 0
0:00:00.00 480571 N 0 0 0
0:00:00.00 480956 N 0 0 0
0:00:00.00 481324 N 0 0 0
0:00:00.00 481707 N 0 0 0
0:00:00.00 482089 N 0 0 0
0:00:00.00 482470 N 0 0 0
0:00:00.00 482841 N 0 0 0
0:00:00.00 483214 N 0 0 0
0:00:00.00 483592 N 0 0 0
0:00:00.00 483968 N 0 0 0
0:00:00.00 484339 N 0 0 0
0:00:00.00 484717 N 0 0 0
0:00:00.00 485102 N 0 0 0
0:00:00.00 485483 N 0 0 0
0:00:00.00 485856 N 0 0 0
0:00:00.00 486238 N 0 0 0
0:00:00.00 486621 N 0 0 0
0:00:00.00 487006 N 0 0 0
0:00:00.00 487373 N 0 0 0
0:00:00.00 487750 N 0 0 0
0:00:00.00 488128 N 0 0 0
0:00:00.00 488502 N 0 0 0
0:00:00.00 488875 N 0 0 0
0:00:00.00 489242 N 0 0 0
0:00:00.00 489596 N 0 0 0
0:00:00.00 489967 N 0 0 0
0:00:00.00 490331 N 0 0 0
0:00:00.00 490689 N 0 0 0
0:00:00.00 491062 N 0 0 0
0:00:00.00 491436 N 0 0 0
0:00:00.00 491807 N 0 0 0
0:00:00.00 492185 N 0 0 0
0:00:00.00 492563 N 0 0 0
0:00:00.00 492937 N 0 0 0
0:00:00.00 493310 N 0 0 0
0:00:00.00 493679 N 0 0 0
0:00:00.00 494060 N 0 0 0
0:00:00.00 494426 N 0 0 0
0:00:00.00 494797 N 0 0 0
0:00:00.00 495178 N 0 0 0
0:00:00.00 495551 N 0 0 0
0:00:00.00 495922 N 0 0 0
0:00:00.00 496300 N 0 0 0
0:00:00.00 496670 N 0 0 0
0:00:00.00 497043 N 0 0 0
0:00:00.00 497410 N 0 0 0
0:00:00.00 497767 N 0 0 0
0:00:00.00 498128 N 0 0 0
0:00:00.00 498488 N 0 0 0
0:00:00.00 498857 N 0 0 0
0:00:00.00 499230 N 0 0 0
0:00:00.00 499601 N 0 0 0
0:00:00.00 499979 N 0 0 0
0:00:00.00 500353 N 0 0 0
0:00:00.00 500719 N 0 0 0
0:00:00.00 501098 N 0 0 0
0:00:00.00 501480 N 0 0 0
0:00:00.00 501860 N 0 0 0
0:00:00.00 502247 N 0 0 0
0:00:00.00 502621 N 0 0 0
0:00:00.00 503001 N 0 0 0
0:00:00.00 503388 N 0 0 0
0:00:00.00 503770 N 0 0 0
0:00:00.00 504155 N 0 0 0
0:00:00.00 504538 N 0 0 0
0:00:00.00 504925 N 0 0 0
0:00:00.00 505307 N 0 0 0
0:00:00.00 505685 N 0 0 0
0:00:00.00 506065 N 0 0 0
0:00:00.00 506441 N 0 0 0
0:00:00.00 506822 N 0 0 0
0:00:00.00 507208 N 0 0 0
0:00:00.00 507586 N 0 0 0
0:00:00.00 507965 N 0 0 0
0:00:00.00 508340 N 0 0 0
0:00:00.00 508714 N 0 0 0
0:00:00.00 509092 N 0 0 0
0:00:00.00 509477 N 0 0 0
0:00:00.00 509859 N 0 0 0
0:00:00.00 510246 N 0 0 0
0:00:00.00 510628 N 0 0 0
0:00:00.00 511006 N 0 0 0
0:00:00.00 511384 N 0 0 0
0:00:00.00 511754 N 0 0 0
0:00:00.00 512131 N 0 0 0
0:00:00.00 512510 N 0 0 0
0:00:00.00 512888 N 0 0 0
0:00:00.00 513263 N 0 0 0
0:00:00.00 513643 N 0 0 0
0:00:00.00 514028 N 0 0 0
0:00:00.00 514406 N 0 0 0
0:00:00.00 514778 N 0 0 0
0:00:00.00 515149 N 0 0 0
0:00:00.00 515520 N 0 0 0
0:00:00.00 515880 N 0 0 0
0:00:00.00 516244 N 0 0 0
0:00:00.00 516609 N 0 0 0
0:00:00.00 516976 N 0 0 0
0:00:00.00 517345 N 0 0 0
0:00:00.00 517716 N 0 0 0
0:00:00.00 518067 N 0 0 0
0:00:00.00 518436 N 0 0 0
0:00:00.00 518803 N 0 0 0
0:00:00.00 519170 N 0 0 0
0:00:00.00 519550 N 0 0 0
0:00:00.00 519926 N 0 0 0
0:00:00.00 520303 N 0 0 0
0:00:00.00 520677 N 0 0 0
0:00:00.00 521048 N 0 0 0
0:00:00.00 521393 N 0 0 0
0:00:00.00 521744 N 0 0 0
0:00:00.00 522115 N 0 0 0
0:00:00.00 522482 N 0 0 0
0:00:00.00 522848 N 0 0 0
0:00:00.00 523219 N 0 0 0
0:00:00.00 523598 N 0 0 0
0:00:00.00 523975 N 0 0 0
0:00:00.00 524358 N 0 0 0
0:00:00.00 524736 N 0 0 0
0:00:00.00 525118 N 0 0 0
0:00:00.00 525496 N 0 0 0
0:00:00.00 525877 N 0 0 0
0:00:00.00 526253 N 0 0 0
0:00:00.00 526628 N 0 0 0
0:00:00.00 526997 N 0 0 0
0:00:00.00 527364 N 0 0 0
0:00:00.00 527740 N 0 0 0
0:00:00.00 528104 N 0 0 0
0:00:00.00 528458 N 0 0 0
0:00:00.00 528818 N 0 0 0
0:00:00.00 529187 N 0 0 0
0:00:00.00 529556 N 0 0 0
0:00:00.00 529922 N 0 0 0
0:00:00.00 530285 N 0 0 0
0:00:00.00 530656 N 0 0 0
0:00:00.00 531018 N 0 0 0
0:00:00.00 531349 N 0 0 0
0:00:00.00 531684 N 0 0 0
0:00:00.00 532013 N 0 0 0
0:00:00.00 532339 N 0 0 0
0:00:00.00 532672 N 0 0 0
0:00:00.00 532994 N 0 0 0
0:00:00.00 533315 N 0 0 0
0:00:00.00 533648 N 0 0 0
0:00:00.00 533977 N 0 0 0
0:00:00.00 534310 N 0 0 0
0:00:00.00 534647 N 0 0 0
0:00:00.00 534980 N 0 0 0
0:00:00.00 535307 N 0 0 0
0:00:00.00 535648 N 0 0 0
0:00:00.00 535979 N 0 0 0
0:00:00.00 536314 N 0 0 0
0:00:00.00 536657 N 0 0 0
0:00:00.00 536987 N 0 0 0
0:00:00.00 537323 N 0 0 0
0:00:00.00 537664 N 0 0 0
0:00:00.00 537997 N 0 0 0
0:00:00.00 538346 N 0 0 0
0:00:00.00 538699 N 0 0 0
0:00:00.00 539044 N 0 0 0
0:00:00.00 539384 N 0 0 0
0:00:00.00 539737 N 0 0 0
0:00:00.00 540085 N 0 0 0
0:00:00.00 540419 N 0 0 0
0:00:00.00 540769 N 0 0 0
0:00:00.00 541118 N 0 0 0
0:00:00.00 541469 N 0 0 0
0:00:00.00 541820 N 0 0 0
0:00:00.00 542173 N 0 0 0
0:00:00.00 542524 N 0 0 0
0:00:00.00 542882 N 0 0 0
0:00:00.00 543242 N 0 0 0
0:00:00.00 543598 N 0 0 0
0:00:00.00 543956 N 0 0 0
0:00:00.00 544313 N 0 0 0
0:00:00.00 544682 N 0 0 0
0:00:00.00 545040 N 0 0 0
0:00:00.00 545391 N 0 0 0
0:00:00.00 545746 N 0 0 0
0:00:00.00 546095 N 0 0 0
0:00:00.00 546446 N 0 0 0
0:00:00.00 546795 N 0 0 0
0:00:00.00 547146 N 0 0 0
0:00:00.00 547497 N 0 0 0
0:00:00.00 547850 N 0 0 0
0:00:00.00 548195 N 0 0 0
0:00:00.00 548541 N 0 0 0
0:00:00.00 548899 N 0 0 0
0:00:00.00 549247 N 0 0 0
0:00:00.00 549581 N 0 0 0
0:00:00.00 549922 N 0 0 0
0:00:00.00 550256 N 0 0 0
0:00:00.00 550588 N 0 0 0
0:00:00.00 550926 N 0 0 0
0:00:00.00 551255 N 0 0 0
0:00:00.00 551554 N 0 0 0
0:00:00.00 551911 N 0 0 0
0:00:00.00 552238 N 0 0 0
0:00:00.00 552553 N 0 0 0
0:00:00.00 552877 N 0 0 0
0:00:00.00 553198 N 0 0 0
0:00:00.00 553514 N 0 0 0
0:00:00.00 553837 N 0 0 0
0:00:00.00 554150 N 0 0 0
0:00:00.00 554459 N 0 0 0
0:00:00.00 554773 N 0 0 0
0:00:00.00 555091 N 0 0 0
0:00:00.00 555397 N 0 0 0
0:00:00.00 555698 N 0 0 0
0:00:00.00 556009 N 0 0 0
0:00:00.00 556315 N 0 0 0
0:00:00.00 556616 N 0 0 0
0:00:00.00 556920 N 0 0 0
0:00:00.00 557217 N 0 0 0
0:00:00.00 557507 N 0 0 0
0:00:00.00 557798 N 0 0 0
0:00:00.00 558094 N 0 0 0
0:00:00.00 558166 N 0 0 0
0:00:00.00 558376 N 0 0 0
0:00:00.00 558655 N 0 0 0
0:00:00.00 558934 N 0 0 0
0:00:00.00 559213 N 0 0 0
0:00:00.00 559485 N 0 0 0
0:00:00.00 559762 N 0 0 0
0:00:00.00 560041 N 0 0 0
0:00:00.00 560309 N 0 0 0
0:00:00.00 560585 N 0 0 0
0:00:00.00 560862 N 0 0 0
0:00:00.00 561141 N 0 0 0
0:00:00.00 561413 N 0 0 0
0:00:00.00 561690 N 0 0 0
0:00:00.00 561964 N 0 0 0
0:00:00.00 562239 N 0 0 0
0:00:00.00 562514 N 0 0 0
0:00:00.00 562792 N 0 0 0
0:00:00.00 563074 N 0 0 0
0:00:00.00 563353 N 0 0 0
0:00:00.00 563632 N 0 0 0
0:00:00.00 563908 N 0 0 0
0:00:00.00 564192 N 0 0 0
0:00:00.00 564440 N 0 0 0
0:00:00.00 564745 N 0 0 0
0:00:00.00 565020 N 0 0 0
0:00:00.00 565297 N 0 0 0
0:00:00.00 565565 N 0 0 0
0:00:00.00 565832 N 0 0 0
0:00:00.00 566104 N 0 0 0
0:00:00.00 566370 N 0 0 0
0:00:00.00 566636 N 0 0 0
0:00:00.00 566897 N 0 0 0
0:00:00.00 567169 N 0 0 0
0:00:00.00 567434 N 0 0 0
0:00:00.00 567704 N 0 0 0
0:00:00.00 567968 N 0 0 0
0:00:00.00 568242 N 0 0 0
0:00:00.00 568512 N 0 0 0
0:00:00.00 568787 N 0 0 0
0:00:00.00 569066 N 0 0 0
0:00:00.00 569349 N 0 0 0
0:00:00.00 569623 N 0 0 0
0:00:00.00 569898 N 0 0 0
0:00:00.00 570181 N 0 0 0
0:00:00.00 570463 N 0 0 0
0:00:00.00 570748 N 0 0 0
0:00:00.00 571025 N 0 0 0
0:00:00.00 571316 N 0 0 0
0:00:00.00 571603 N 0 0 0
0:00:00.00 571887 N 0 0 0
0:00:00.00 572180 N 0 0 0
0:00:00.00 572470 N 0 0 0
0:00:00.00 572753 N 0 0 0
0:00:00.00 573037 N 0 0 0
0:00:00.00 573331 N 0 0 0
0:00:00.00 573608 N 0 0 0
0:00:00.00 573889 N 0 0 0
0:00:00.00 574166 N 0 0 0
0:00:00.00 574439 N 0 0 0
0:00:00.00 574717 N 0 0 0
0:00:00.00 574992 N 0 0 0
0:00:00.00 575271 N 0 0 0
0:00:00.00 575545 N 0 0 0
0:00:00.00 575816 N 0 0 0
0:00:00.00 576090 N 0 0 0
0:00:00.00 576373 N 0 0 0
0:00:00.00 576653 N 0 0 0
0:00:00.00 576929 N 0 0 0
0:00:00.00 577208 N 0 0 0
0:00:00.00 577487 N 0 0 0
0:00:00.00 577768 N 0 0 0
0:00:00.00 578048 N 0 0 0
0:00:00.00 578335 N 0 0 0
0:00:00.00 578612 N 0 0 0
0:00:00.00 578891 N 0 0 0
0:00:00.00 579173 N 0 0 0
0:00:00.00 579456 N 0 0 0
0:00:00.00 579739 N 0 0 0
0:00:00.00 580016 N 0 0 0
0:00:00.00 580295 N 0 0 0
0:00:00.00 580574 N 0 0 0
0:00:00.00 580851 N 0 0 0
0:00:00.00 581126 N 0 0 0
0:00:00.00 581407 N 0 0 0
0:00:00.00 581679 N 0 0 0
0:00:00.00 581951 N 0 0 0
0:00:00.00 582226 N 0 0 0
0:00:00.00 582500 N 0 0 0
0:00:00.00 582768 N 0 0 0
0:00:00.00 583033 N 0 0 0
0:00:00.00 583297 N 0 0 0
0:00:00.00 583560 N 0 0 0
0:00:00.00 583823 N 0 0 0
0:00:00.00 584084 N 0 0 0
0:00:00.00 584348 N 0 0 0
0:00:00.00 584608 N 0 0 0
0:00:00.00 584870 N 0 0 0
0:00:00.00 585126 N 0 0 0
0:00:00.00 585398 N 0 0 0
0:00:00.00 585659 N 0 0 0
0:00:00.00 585922 N 0 0 0
0:00:00.00 586179 N 0 0 0
0:00:00.00 586453 N 0 0 0
0:00:00.00 586719 N 0 0 0
0:00:00.00 586987 N 0 0 0
0:00:00.00 587261 N 0 0 0
0:00:00.00 587538 N 0 0 0
0:00:00.00 587812 N 0 0 0
0:00:00.00 588082 N 0 0 0
0:00:00.00 588364 N 0 0 0
0:00:00.00 588641 N 0 0 0
0:00:00.00 588919 N 0 0 0
0:00:00.00 589194 N 0 0 0
0:00:00.00 589486 N 0 0 0
0:00:00.00 589766 N 0 0 0
0:00:00.00 590054 N 0 0 0
0:00:00.00 590346 N 0 0 0
0:00:00.00 590638 N 0 0 0
0:00:00.00 590922 N 0 0 0
0:00:00.00 591208 N 0 0 0
0:00:00.00 591503 N 0 0 0
0:00:00.00 591781 N 0 0 0
0:00:00.00 592065 N 0 0 0
0:00:00.00 592344 N 0 0 0
0:00:00.00 592628 N 0 0 0
0:00:00.00 592916 N 0 0 0
0:00:00.00 593201 N 0 0 0
0:00:00.00 593498 N 0 0 0
0:00:00.00 593784 N 0 0 0
0:00:00.00 594076 N 0 0 0
0:00:00.00 594371 N 0 0 0
0:00:00.00 594670 N 0 0 0
0:00:00.00 594968 N 0 0 0
0:00:00.00 595256 N 0 0 0
0:00:00.00 595841 N 0 0 0
0:00:00.00 596131 N 0 0 0
0:00:00.00 596435 N 0 0 0
0:00:00.00 596732 N 0 0 0
0:00:00.00 597033 N 0 0 0
0:00:00.00 597330 N 0 0 0
0:00:00.00 597641 N 0 0 0
0:00:00.00 597946 N 0 0 0
0:00:00.00 598243 N 0 0 0
0:00:00.00 598543 N 0 0 0
0:00:00.00 598840 N 0 0 0
0:00:00.00 599143 N 0 0 0
0:00:00.00 599452 N 0 0 0
0:00:00.00 599762 N 0 0 0
0:00:00.00 600062 N 0 0 0
0:00:00.00 600365 N 0 0 0
0:00:00.00 600683 N 0 0 0
0:00:00.00 600991 N 0 0 0
0:00:00.00 601295 N 0 0 0
0:00:00.00 601603 N 0 0 0
0:00:00.00 601909 N 0 0 0
0:00:00.00 602213 N 0 0 0
0:00:00.00 602525 N 0 0 0
0:00:00.00 602833 N 0 0 0
0:00:00.00 603142 N 0 0 0
0:00:00.00 603446 N 0 0 0
0:00:00.00 603770 N 0 0 0
0:00:00.00 604082 N 0 0 0
0:00:00.00 604388 N 0 0 0
0:00:00.00 604697 N 0 0 0
0:00:00.00 605007 N 0 0 0
0:00:00.00 605322 N 0 0 0
0:00:00.00 605644 N 0 0 0
0:00:00.00 605952 N 0 0 0
0:00:00.00 606265 N 0 0 0
0:00:00.00 606578 N 0 0 0
0:00:00.00 606892 N 0 0 0
0:00:00.00 607207 N 0 0 0
0:00:00.00 607511 N 0 0 0
0:00:00.00 607826 N 0 0 0
0:00:00.00 608126 N 0 0 0
0:00:00.00 608434 N 0 0 0
0:00:00.00 608744 N 0 0 0
0:00:00.00 609050 N 0 0 0
0:00:00.00 609363 N 0 0 0
0:00:00.00 609676 N 0 0 0
0:00:00.00 609993 N 0 0 0
0:00:00.00 610297 N 0 0 0
0:00:00.00 610594 N 0 0 0
0:00:00.00 610902 N 0 0 0
0:00:00.00 611201 N 0 0 0
0:00:00.00 611500 N 0 0 0
0:00:00.00 611806 N 0 0 0
0:00:00.00 612108 N 0 0 0
0:00:00.00 612409 N 0 0 0
0:00:00.00 612718 N 0 0 0
0:00:00.00 613019 N 0 0 0
0:00:00.00 613323 N 0 0 0
0:00:00.00 613613 N 0 0 0
0:00:00.00 613912 N 0 0 0
0:00:00.00 614207 N 0 0 0
0:00:00.00 614504 N 0 0 0
0:00:00.00 614804 N 0 0 0
0:00:00.00 615103 N 0 0 0
0:00:00.00 615398 N 0 0 0
0:00:00.00 615694 N 0 0 0
0:00:00.00 616001 N 0 0 0
0:00:00.00 616302 N 0 0 0
0:00:00.00 616601 N 0 0 0
0:00:00.00 616910 N 0 0 0
0:00:00.00 617213 N 0 0 0
0:00:00.00 617515 N 0 0 0
0:00:00.00 617823 N 0 0 0
0:00:00.00 618129 N 0 0 0
0:00:00.00 618437 N 0 0 0
0:00:00.00 618739 N 0 0 0
0:00:00.00 619051 N 0 0 0
0:00:00.00 619358 N 0 0 0
0:00:00.00 619663 N 0 0 0
0:00:00.00 619974 N 0 0 0
0:00:00.00 620280 N 0 0 0
0:00:00.00 620593 N 0 0 0
0:00:00.00 620903 N 0 0 0
0:00:00.00 621220 N 0 0 0
0:00:00.00 621529 N 0 0 0
0:00:00.00 621850 N 0 0 0
0:00:00.00 622165 N 0 0 0
0:00:00.00 622481 N 0 0 0
0:00:00.00 622787 N 0 0 0
0:00:00.00 623093 N 0 0 0
0:00:00.00 623399 N 0 0 0
0:00:00.00 623705 N 0 0 0
0:00:00.00 624010 N 0 0 0
0:00:00.00 624310 N 0 0 0
0:00:00.00 624614 N 0 0 0
0:00:00.00 624920 N 0 0 0
0:00:00.00 625230 N 0 0 0
0:00:00.00 625540 N 0 0 0
0:00:00.00 625847 N 0 0 0
0:00:00.00 626162 N 0 0 0
0:00:00.00 626474 N 0 0 0
0:00:00.00 626794 N 0 0 0
0:00:00.00 627107 N 0 0 0
0:00:00.00 627415 N 0 0 0
0:00:00.00 627718 N 0 0 0
0:00:00.00 628036 N 0 0 0
0:00:00.00 628346 N 0 0 0
0:00:00.00 628655 N 0 0 0
0:00:00.00 628967 N 0 0 0
0:00:00.00 629276 N 0 0 0
0:00:00.00 629586 N 0 0 0
0:00:00.00 629905 N 0 0 0
0:00:00.00 630216 N 0 0 0
0:00:00.00 630526 N 0 0 0
0:00:00.00 630832 N 0 0 0
0:00:00.00 631145 N 0 0 0
0:00:00.00 631453 N 0 0 0
0:00:00.00 631753 N 0 0 0
0:00:00.00 632057 N 0 0 0
0:00:00.00 632358 N 0 0 0
0:00:00.00 632662 N 0 0 0
0:00:00.00 632970 N 0 0 0
0:00:00.00 633274 N 0 0 0
0:00:00.00 633577 N 0 0 0
0:00:00.00 633875 N 0 0 0
0:00:00.00 634189 N 0 0 0
0:00:00.00 634489 N 0 0 0
0:00:00.00 634777 N 0 0 0
0:00:00.00 635056 N 0 0 0
0:00:00.00 635351 N 0 0 0
0:00:00.00 635641 N 0 0 0
0:00:00.00 635931 N 0 0 0
0:00:00.00 636223 N 0 0 0
0:00:00.00 636505 N 0 0 0
0:00:00.00 636795 N 0 0 0
0:00:00.00 637088 N 0 0 0
0:00:00.00 637380 N 0 0 0
0:00:00.00 637675 N 0 0 0
0:00:00.00 637960 N 0 0 0
0:00:00.00 638258 N 0 0 0
0:00:00.00 638546 N 0 0 0
0:00:00.00 638840 N 0 0 0
0:00:00.00 639140 N 0 0 0
0:00:00.00 639436 N 0 0 0
0:00:00.00 639733 N 0 0 0
0:00:00.00 640031 N 0 0 0
0:00:00.00 640336 N 0 0 0
0:00:00.00 640636 N 0 0 0
0:00:00.00 640933 N 0 0 0
0:00:00.00 641239 N 0 0 0
0:00:00.00 641540 N 0 0 0
0:00:00.00 641844 N 0 0 0
0:00:00.00 642154 N 0 0 0
0:00:00.00 642461 N 0 0 0
0:00:00.00 642767 N 0 0 0
0:00:00.00 643075 N 0 0 0
0:00:00.00 643385 N 0 0 0
0:00:00.00 643689 N 0 0 0
0:00:00.00 643982 N 0 0 0
0:00:00.00 644290 N 0 0 0
0:00:00.00 644587 N 0 0 0
0:00:00.00 644877 N 0 0 0
0:00:00.00 645176 N 0 0 0
0:00:00.00 645473 N 0 0 0
0:00:00.00 645761 N 0 0 0
0:00:00.00 646051 N 0 0 0
0:00:00.00 646355 N 0 0 0
0:00:00.00 646637 N 0 0 0
0:00:00.00 646936 N 0 0 0
0:00:00.00 647231 N 0 0 0
0:00:00.00 647523 N 0 0 0
0:00:00.00 647820 N 0 0 0
0:00:00.00 648117 N 0 0 0
0:00:00.00 648409 N 0 0 0
0:00:00.00 648709 N 0 0 0
0:00:00.00 649001 N 0 0 0
0:00:00.00 649292 N 0 0 0
0:00:00.00 649591 N 0 0 0
0:00:00.00 649881 N 0 0 0
