0:00:00.00 11 N 0 0 0
0:00:00.00 95 N 0 0 0
0:00:00.00 328 N 0 0 0
0:00:00.00 563 N 0 0 0
0:00:00.00 799 N 0 0 0
0:00:00.00 1021 N 0 0 0
0:00:00.00 1255 N 0 0 0
0:00:00.00 1490 N 0 0 0
0:00:00.00 1732 N 0 0 0
0:00:00.00 1969 N 0 0 0
0:00:00.00 2210 N 0 0 0
0:00:00.00 2450 N 0 0 0
0:00:00.00 2695 N 0 0 0
0:00:00.00 2938 N 0 0 0
0:00:00.00 3186 N 0 0 0
0:00:00.00 3438 N 0 0 0
0:00:00.00 3688 N 0 0 0
0:00:00.00 3937 N 0 0 0
0:00:00.00 4185 N 0 0 0
0:00:00.00 4428 N 0 0 0
0:00:00.00 4684 N 0 0 0
0:00:00.00 4934 N 0 0 0
0:00:00.00 5184 N 0 0 0
0:00:00.00 5427 N 0 0 0
0:00:00.00 5681 N 0 0 0
0:00:00.00 5931 N 0 0 0
0:00:00.00 6179 N 0 0 0
0:00:00.00 6421 N 0 0 0
0:00:00.00 6683 N 0 0 0
0:00:00.00 6928 N 0 0 0
0:00:00.00 7166 N 0 0 0
0:00:00.00 7409 N 0 0 0
0:00:00.00 7661 N 0 0 0
0:00:00.00 7906 N 0 0 0
0:00:00.00 8150 N 0 0 0
0:00:00.00 8377 N 0 0 0
0:00:00.00 8620 N 0 0 0
0:00:00.00 8861 N 0 0 0
0:00:00.00 9099 N 0 0 0
0:00:00.00 9335 N 0 0 0
0:00:00.00 9574 N 0 0 0
0:00:00.00 9819 N 0 0 0
0:00:00.00 10060 N 0 0 0
0:00:00.00 10300 N 0 0 0
0:00:00.00 10535 N 0 0 0
0:00:00.00 10787 N 0 0 0
0:00:00.00 11036 N 0 0 0
0:00:00.00 11281 N 0 0 0
0:00:00.00 11529 N 0 0 0
0:00:00.00 11779 N 0 0 0
0:00:00.00 12033 N 0 0 0
0:00:00.00 12281 N 0 0 0
0:00:00.00 12541 N 0 0 0
0:00:00.00 12794 N 0 0 0
0:00:00.00 13048 N 0 0 0
0:00:00.00 13297 N 0 0 0
0:00:00.00 13554 N 0 0 0
0:00:00.00 13806 N 0 0 0
0:00:00.00 14056 N 0 0 0
0:00:00.00 14303 N 0 0 0
0:00:00.00 14557 N 0 0 0
0:00:00.00 14807 N 0 0 0
0:00:00.00 15053 N 0 0 0
0:00:00.00 15307 N 0 0 0
0:00:00.00 15561 N 0 0 0
0:00:00.00 15813 N 0 0 0
0:00:00.00 16061 N 0 0 0
0:00:00.00 16313 N 0 0 0
0:00:00.00 16567 N 0 0 0
0:00:00.00 16821 N 0 0 0
0:00:00.00 17075 N 0 0 0
0:00:00.00 17321 N 0 0 0
0:00:00.00 17573 N 0 0 0
0:00:00.00 17827 N 0 0 0
0:00:00.00 18081 N 0 0 0
0:00:00.00 18337 N 0 0 0
0:00:00.00 18598 N 0 0 0
0:00:00.00 18859 N 0 0 0
0:00:00.00 19114 N 0 0 0
0:00:00.00 19361 N 0 0 0
0:00:00.00 19633 N 0 0 0
0:00:00.00 19886 N 0 0 0
0:00:00.00 20147 N 0 0 0
0:00:00.00 20403 N 0 0 0
0:00:00.00 20664 N 0 0 0
0:00:00.00 20907 N 0 0 0
0:00:00.00 21166 N 0 0 0
0:00:00.00 21422 N 0 0 0
0:00:00.00 21677 N 0 0 0
0:00:00.00 21915 N 0 0 0
0:00:00.00 22160 N 0 0 0
0:00:00.00 22408 N 0 0 0
0:00:00.00 22660 N 0 0 0
0:00:00.00 22905 N 0 0 0
0:00:00.00 23146 N 0 0 0
0:00:00.00 23382 N 0 0 0
0:00:00.00 23636 N 0 0 0
0:00:00.00 23881 N 0 0 0
0:00:00.00 24131 N 0 0 0
0:00:00.00 24379 N 0 0 0
0:00:00.00 24628 N 0 0 0
0:00:00.00 24878 N 0 0 0
0:00:00.00 25126 N 0 0 0
0:00:00.00 25378 N 0 0 0
0:00:00.00 25634 N 0 0 0
0:00:00.00 25880 N 0 0 0
0:00:00.00 26131 N 0 0 0
0:00:00.00 26377 N 0 0 0
0:00:00.00 26627 N 0 0 0
0:00:00.00 26872 N 0 0 0
0:00:00.00 27117 N 0 0 0
0:00:00.00 27362 N 0 0 0
0:00:00.00 27614 N 0 0 0
0:00:00.00 27859 N 0 0 0
0:00:00.00 28109 N 0 0 0
0:00:00.00 28363 N 0 0 0
0:00:00.00 28616 N 0 0 0
0:00:00.00 28870 N 0 0 0
0:00:00.00 29124 N 0 0 0
0:00:00.00 29380 N 0 0 0
0:00:00.00 29635 N 0 0 0
0:00:00.00 29891 N 0 0 0
0:00:00.00 30146 N 0 0 0
0:00:00.00 30406 N 0 0 0
0:00:00.00 30661 N 0 0 0
0:00:00.00 30904 N 0 0 0
0:00:00.00 31151 N 0 0 0
0:00:00.00 31405 N 0 0 0
0:00:00.00 31655 N 0 0 0
0:00:00.00 31905 N 0 0 0
0:00:00.00 32141 N 0 0 0
0:00:00.00 32387 N 0 0 0
0:00:00.00 32641 N 0 0 0
0:00:00.00 32891 N 0 0 0
0:00:00.00 33142 N 0 0 0
0:00:00.00 33395 N 0 0 0
0:00:00.00 33638 N 0 0 0
0:00:00.00 33889 N 0 0 0
0:00:00.00 34139 N 0 0 0
0:00:00.00 34394 N 0 0 0
0:00:00.00 34632 N 0 0 0
0:00:00.00 34875 N 0 0 0
0:00:00.00 35114 N 0 0 0
0:00:00.00 35363 N 0 0 0
0:00:00.00 35604 N 0 0 0
0:00:00.00 35843 N 0 0 0
0:00:00.00 36077 N 0 0 0
0:00:00.00 36317 N 0 0 0
0:00:00.00 36567 N 0 0 0
0:00:00.00 36810 N 0 0 0
0:00:00.00 37057 N 0 0 0
0:00:00.00 37309 N 0 0 0
0:00:00.00 37559 N 0 0 0
0:00:00.00 37802 N 0 0 0
0:00:00.00 38050 N 0 0 0
0:00:00.00 38304 N 0 0 0
0:00:00.00 38554 N 0 0 0
0:00:00.00 38806 N 0 0 0
0:00:00.00 39060 N 0 0 0
0:00:00.00 39325 N 0 0 0
0:00:00.00 39584 N 0 0 0
0:00:00.00 39841 N 0 0 0
0:00:00.00 40099 N 0 0 0
0:00:00.00 40361 N 0 0 0
0:00:00.00 40615 N 0 0 0
0:00:00.00 40874 N 0 0 0
0:00:00.00 41130 N 0 0 0
0:00:00.00 41393 N 0 0 0
0:00:00.00 41647 N 0 0 0
0:00:00.00 41906 N 0 0 0
0:00:00.00 42163 N 0 0 0
0:00:00.00 42421 N 0 0 0
0:00:00.00 42678 N 0 0 0
0:00:00.00 42934 N 0 0 0
0:00:00.00 43198 N 0 0 0
0:00:00.00 43456 N 0 0 0
0:00:00.00 43715 N 0 0 0
0:00:00.00 43969 N 0 0 0
0:00:00.00 44237 N 0 0 0
0:00:00.00 44503 N 0 0 0
0:00:00.00 44777 N 0 0 0
0:00:00.00 45043 N 0 0 0
0:00:00.00 45311 N 0 0 0
0:00:00.00 45576 N 0 0 0
0:00:00.00 45839 N 0 0 0
0:00:00.00 46103 N 0 0 0
0:00:00.00 46366 N 0 0 0
0:00:00.00 46624 N 0 0 0
0:00:00.00 46876 N 0 0 0
0:00:00.00 47137 N 0 0 0
0:00:00.00 47394 N 0 0 0
0:00:00.00 47646 N 0 0 0
0:00:00.00 47896 N 0 0 0
0:00:00.00 48159 N 0 0 0
0:00:00.00 48411 N 0 0 0
0:00:00.00 48661 N 0 0 0
0:00:00.00 48910 N 0 0 0
0:00:00.00 49163 N 0 0 0
0:00:00.00 49408 N 0 0 0
0:00:00.00 49662 N 0 0 0
0:00:00.00 49907 N 0 0 0
0:00:00.00 50159 N 0 0 0
0:00:00.00 50405 N 0 0 0
0:00:00.00 50648 N 0 0 0
0:00:00.00 50900 N 0 0 0
0:00:00.00 51152 N 0 0 0
0:00:00.00 51403 N 0 0 0
0:00:00.00 51646 N 0 0 0
0:00:00.00 51885 N 0 0 0
0:00:00.00 52139 N 0 0 0
0:00:00.00 52385 N 0 0 0
0:00:00.00 52630 N 0 0 0
0:00:00.00 52870 N 0 0 0
0:00:00.00 53116 N 0 0 0
0:00:00.00 53352 N 0 0 0
0:00:00.00 53599 N 0 0 0
0:00:00.00 53845 N 0 0 0
0:00:00.00 54097 N 0 0 0
0:00:00.00 54344 N 0 0 0
0:00:00.00 54589 N 0 0 0
0:00:00.00 54841 N 0 0 0
0:00:00.00 55096 N 0 0 0
0:00:00.00 55345 N 0 0 0
0:00:00.00 55597 N 0 0 0
0:00:00.00 55838 N 0 0 0
0:00:00.00 56086 N 0 0 0
0:00:00.00 56331 N 0 0 0
0:00:00.00 56579 N 0 0 0
0:00:00.00 56830 N 0 0 0
0:00:00.00 57085 N 0 0 0
0:00:00.00 57335 N 0 0 0
0:00:00.00 57587 N 0 0 0
0:00:00.00 57843 N 0 0 0
0:00:00.00 58109 N 0 0 0
0:00:00.00 58374 N 0 0 0
0:00:00.00 58637 N 0 0 0
0:00:00.00 58892 N 0 0 0
0:00:00.00 59162 N 0 0 0
0:00:00.00 59429 N 0 0 0
0:00:00.00 59699 N 0 0 0
0:00:00.00 59972 N 0 0 0
0:00:00.00 60239 N 0 0 0
0:00:00.00 60494 N 0 0 0
0:00:00.00 60752 N 0 0 0
0:00:00.00 61018 N 0 0 0
0:00:00.00 61277 N 0 0 0
0:00:00.00 61535 N 0 0 0
0:00:00.00 61785 N 0 0 0
0:00:00.00 62057 N 0 0 0
0:00:00.00 62325 N 0 0 0
0:00:00.00 62593 N 0 0 0
0:00:00.00 62863 N 0 0 0
0:00:00.00 63128 N 0 0 0
0:00:00.00 63387 N 0 0 0
0:00:00.00 63648 N 0 0 0
0:00:00.00 63916 N 0 0 0
0:00:00.00 64184 N 0 0 0
0:00:00.00 64456 N 0 0 0
0:00:00.00 64726 N 0 0 0
0:00:00.00 65009 N 0 0 0
0:00:00.00 65300 N 0 0 0
0:00:00.00 65599 N 0 0 0
0:00:00.00 65912 N 0 0 0
0:00:00.00 66229 N 0 0 0
0:00:00.00 66537 N 0 0 0
0:00:00.00 66863 N 0 0 0
0:00:00.00 67194 N 0 0 0
0:00:00.00 67504 N 0 0 0
0:00:00.00 67808 N 0 0 0
0:00:00.00 68108 N 0 0 0
0:00:00.00 68396 N 0 0 0
0:00:00.00 68677 N 0 0 0
0:00:00.00 68953 N 0 0 0
0:00:00.00 69228 N 0 0 0
0:00:00.00 69503 N 0 0 0
0:00:00.00 69772 N 0 0 0
0:00:00.00 70042 N 0 0 0
0:00:00.00 70306 N 0 0 0
0:00:00.00 70574 N 0 0 0
0:00:00.00 70839 N 0 0 0
0:00:00.00 71107 N 0 0 0
0:00:00.00 71361 N 0 0 0
0:00:00.00 71618 N 0 0 0
0:00:00.00 71879 N 0 0 0
0:00:00.00 72140 N 0 0 0
0:00:00.00 72396 N 0 0 0
0:00:00.00 72644 N 0 0 0
0:00:00.00 72898 N 0 0 0
0:00:00.00 73150 N 0 0 0
0:00:00.00 73404 N 0 0 0
0:00:00.00 73649 N 0 0 0
0:00:00.00 73906 N 0 0 0
0:00:00.00 74149 N 0 0 0
0:00:00.00 74396 N 0 0 0
0:00:00.00 74648 N 0 0 0
0:00:00.00 74902 N 0 0 0
0:00:00.00 75148 N 0 0 0
0:00:00.00 75395 N 0 0 0
0:00:00.00 75640 N 0 0 0
0:00:00.00 75895 N 0 0 0
0:00:00.00 76140 N 0 0 0
0:00:00.00 76394 N 0 0 0
0:00:00.00 76633 N 0 0 0
0:00:00.00 76878 N 0 0 0
0:00:00.00 77126 N 0 0 0
0:00:00.00 77373 N 0 0 0
0:00:00.00 77620 N 0 0 0
0:00:00.00 77873 N 0 0 0
0:00:00.00 78120 N 0 0 0
0:00:00.00 78368 N 0 0 0
0:00:00.00 78613 N 0 0 0
0:00:00.00 78874 N 0 0 0
0:00:00.00 79124 N 0 0 0
0:00:00.00 79382 N 0 0 0
0:00:00.00 79632 N 0 0 0
0:00:00.00 79893 N 0 0 0
0:00:00.00 80152 N 0 0 0
0:00:00.00 80411 N 0 0 0
0:00:00.00 80676 N 0 0 0
0:00:00.00 80932 N 0 0 0
0:00:00.00 81185 N 0 0 0
0:00:00.00 81441 N 0 0 0
0:00:00.00 81702 N 0 0 0
0:00:00.00 81958 N 0 0 0
0:00:00.00 82215 N 0 0 0
0:00:00.00 82463 N 0 0 0
0:00:00.00 82721 N 0 0 0
0:00:00.00 82971 N 0 0 0
0:00:00.00 83221 N 0 0 0
0:00:00.00 83477 N 0 0 0
0:00:00.00 83734 N 0 0 0
0:00:00.00 83979 N 0 0 0
0:00:00.00 84229 N 0 0 0
0:00:00.00 84478 N 0 0 0
0:00:00.00 84733 N 0 0 0
0:00:00.00 84985 N 0 0 0
0:00:00.00 85237 N 0 0 0
0:00:00.00 85482 N 0 0 0
0:00:00.00 85738 N 0 0 0
0:00:00.00 85991 N 0 0 0
0:00:00.00 86245 N 0 0 0
0:00:00.00 86504 N 0 0 0
0:00:00.00 86762 N 0 0 0
0:00:00.00 87014 N 0 0 0
0:00:00.00 87262 N 0 0 0
0:00:00.00 87521 N 0 0 0
0:00:00.00 87782 N 0 0 0
0:00:00.00 88038 N 0 0 0
0:00:00.00 88288 N 0 0 0
0:00:00.00 88547 N 0 0 0
0:00:00.00 88805 N 0 0 0
0:00:00.00 89060 N 0 0 0
0:00:00.00 89321 N 0 0 0
0:00:00.00 89584 N 0 0 0
0:00:00.00 89843 N 0 0 0
0:00:00.00 90108 N 0 0 0
0:00:00.00 90373 N 0 0 0
0:00:00.00 90641 N 0 0 0
0:00:00.00 90902 N 0 0 0
0:00:00.00 91168 N 0 0 0
0:00:00.00 91429 N 0 0 0
0:00:00.00 91696 N 0 0 0
0:00:00.00 91955 N 0 0 0
0:00:00.00 92214 N 0 0 0
0:00:00.00 92477 N 0 0 0
0:00:00.00 92738 N 0 0 0
0:00:00.00 92999 N 0 0 0
0:00:00.00 93256 N 0 0 0
0:00:00.00 93523 N 0 0 0
0:00:00.00 93787 N 0 0 0
0:00:00.00 94050 N 0 0 0
0:00:00.00 94313 N 0 0 0
0:00:00.00 94586 N 0 0 0
0:00:00.00 94849 N 0 0 0
0:00:00.00 95119 N 0 0 0
0:00:00.00 95391 N 0 0 0
0:00:00.00 95666 N 0 0 0
0:00:00.00 95931 N 0 0 0
0:00:00.00 96197 N 0 0 0
0:00:00.00 96467 N 0 0 0
0:00:00.00 96730 N 0 0 0
0:00:00.00 96995 N 0 0 0
0:00:00.00 97250 N 0 0 0
0:00:00.00 97508 N 0 0 0
0:00:00.00 97763 N 0 0 0
0:00:00.00 98028 N 0 0 0
0:00:00.00 98287 N 0 0 0
0:00:00.00 98548 N 0 0 0
0:00:00.00 98802 N 0 0 0
0:00:00.00 99058 N 0 0 0
0:00:00.00 99313 N 0 0 0
0:00:00.00 99580 N 0 0 0
0:00:00.00 99835 N 0 0 0
0:00:00.00 100089 N 0 0 0
0:00:00.00 100341 N 0 0 0
0:00:00.00 100598 N 0 0 0
0:00:00.00 100850 N 0 0 0
0:00:00.00 101101 N 0 0 0
0:00:00.00 101354 N 0 0 0
0:00:00.00 101606 N 0 0 0
0:00:00.00 101858 N 0 0 0
0:00:00.00 102119 N 0 0 0
0:00:00.00 102395 N 0 0 0
0:00:00.00 102674 N 0 0 0
0:00:00.00 102969 N 0 0 0
0:00:00.00 103261 N 0 0 0
0:00:00.00 103554 N 0 0 0
0:00:00.00 103837 N 0 0 0
0:00:00.00 104125 N 0 0 0
0:00:00.00 104409 N 0 0 0
0:00:00.00 104688 N 0 0 0
0:00:00.00 104958 N 0 0 0
0:00:00.00 105224 N 0 0 0
0:00:00.00 105505 N 0 0 0
0:00:00.00 105777 N 0 0 0
0:00:00.00 106049 N 0 0 0
0:00:00.00 106313 N 0 0 0
0:00:00.00 106592 N 0 0 0
0:00:00.00 106870 N 0 0 0
0:00:00.00 107147 N 0 0 0
0:00:00.00 107428 N 0 0 0
0:00:00.00 107705 N 0 0 0
0:00:00.00 107975 N 0 0 0
0:00:00.00 108248 N 0 0 0
0:00:00.00 108522 N 0 0 0
0:00:00.00 108781 N 0 0 0
0:00:00.00 109048 N 0 0 0
0:00:00.00 109309 N 0 0 0
0:00:00.00 109573 N 0 0 0
0:00:00.00 109841 N 0 0 0
0:00:00.00 110113 N 0 0 0
0:00:00.00 110390 N 0 0 0
0:00:00.00 110666 N 0 0 0
0:00:00.00 110939 N 0 0 0
0:00:00.00 111208 N 0 0 0
0:00:00.00 111490 N 0 0 0
0:00:00.00 111766 N 0 0 0
0:00:00.00 112032 N 0 0 0
0:00:00.00 112295 N 0 0 0
0:00:00.00 112563 N 0 0 0
0:00:00.00 112829 N 0 0 0
0:00:00.00 113092 N 0 0 0
0:00:00.00 113360 N 0 0 0
0:00:00.00 113614 N 0 0 0
0:00:00.00 113872 N 0 0 0
0:00:00.00 114127 N 0 0 0
0:00:00.00 114395 N 0 0 0
0:00:00.00 114647 N 0 0 0
0:00:00.00 114898 N 0 0 0
0:00:00.00 115148 N 0 0 0
0:00:00.00 115405 N 0 0 0
0:00:00.00 115652 N 0 0 0
0:00:00.00 115906 N 0 0 0
0:00:00.00 116152 N 0 0 0
0:00:00.00 116404 N 0 0 0
0:00:00.00 116649 N 0 0 0
0:00:00.00 116896 N 0 0 0
0:00:00.00 117142 N 0 0 0
0:00:00.00 117385 N 0 0 0
0:00:00.00 117626 N 0 0 0
0:00:00.00 117871 N 0 0 0
0:00:00.00 118107 N 0 0 0
0:00:00.00 118352 N 0 0 0
0:00:00.00 118586 N 0 0 0
0:00:00.00 118823 N 0 0 0
0:00:00.00 119070 N 0 0 0
0:00:00.00 119317 N 0 0 0
0:00:00.00 119556 N 0 0 0
0:00:00.00 119797 N 0 0 0
0:00:00.00 120033 N 0 0 0
0:00:00.00 120290 N 0 0 0
0:00:00.00 120537 N 0 0 0
0:00:00.00 120785 N 0 0 0
0:00:00.00 121032 N 0 0 0
0:00:00.00 121286 N 0 0 0
0:00:00.00 121540 N 0 0 0
0:00:00.00 121793 N 0 0 0
0:00:00.00 122053 N 0 0 0
0:00:00.00 122314 N 0 0 0
0:00:00.00 122573 N 0 0 0
0:00:00.00 122828 N 0 0 0
0:00:00.00 123095 N 0 0 0
0:00:00.00 123354 N 0 0 0
0:00:00.00 123617 N 0 0 0
0:00:00.00 123872 N 0 0 0
0:00:00.00 124137 N 0 0 0
0:00:00.00 124403 N 0 0 0
0:00:00.00 124672 N 0 0 0
0:00:00.00 124940 N 0 0 0
0:00:00.00 125206 N 0 0 0
0:00:00.00 125467 N 0 0 0
0:00:00.00 125732 N 0 0 0
0:00:00.00 126000 N 0 0 0
0:00:00.00 126266 N 0 0 0
0:00:00.00 126531 N 0 0 0
0:00:00.00 126792 N 0 0 0
0:00:00.00 127064 N 0 0 0
0:00:00.00 127325 N 0 0 0
0:00:00.00 127582 N 0 0 0
0:00:00.00 127850 N 0 0 0
0:00:00.00 128122 N 0 0 0
0:00:00.00 128383 N 0 0 0
0:00:00.00 128642 N 0 0 0
0:00:00.00 128909 N 0 0 0
0:00:00.00 129179 N 0 0 0
0:00:00.00 129438 N 0 0 0
0:00:00.00 129695 N 0 0 0
0:00:00.00 129955 N 0 0 0
0:00:00.00 130212 N 0 0 0
0:00:00.00 130466 N 0 0 0
0:00:00.00 130725 N 0 0 0
0:00:00.00 130984 N 0 0 0
0:00:00.00 131240 N 0 0 0
0:00:00.00 131495 N 0 0 0
0:00:00.00 131746 N 0 0 0
0:00:00.00 132007 N 0 0 0
0:00:00.00 132260 N 0 0 0
0:00:00.00 132514 N 0 0 0
0:00:00.00 132761 N 0 0 0
0:00:00.00 133011 N 0 0 0
0:00:00.00 133263 N 0 0 0
0:00:00.00 133511 N 0 0 0
0:00:00.00 133756 N 0 0 0
0:00:00.00 134008 N 0 0 0
0:00:00.00 134246 N 0 0 0
0:00:00.00 134491 N 0 0 0
0:00:00.00 134730 N 0 0 0
0:00:00.00 134980 N 0 0 0
0:00:00.00 135211 N 0 0 0
0:00:00.00 135446 N 0 0 0
0:00:00.00 135675 N 0 0 0
0:00:00.00 135922 N 0 0 0
0:00:00.00 136148 N 0 0 0
0:00:00.00 136386 N 0 0 0
0:00:00.00 136613 N 0 0 0
0:00:00.00 136845 N 0 0 0
0:00:00.00 137086 N 0 0 0
0:00:00.00 137246 N 0 0 0
0:00:00.00 137320 N 0 0 0
0:00:00.00 137551 N 0 0 0
0:00:00.00 137781 N 0 0 0
0:00:00.00 138015 N 0 0 0
0:00:00.00 138244 N 0 0 0
0:00:00.00 138474 N 0 0 0
0:00:00.00 138695 N 0 0 0
0:00:00.00 138926 N 0 0 0
0:00:00.00 139154 N 0 0 0
0:00:00.00 139376 N 0 0 0
0:00:00.00 139597 N 0 0 0
0:00:00.00 139826 N 0 0 0
0:00:00.00 140062 N 0 0 0
0:00:00.00 140288 N 0 0 0
0:00:00.00 140506 N 0 0 0
0:00:00.00 140731 N 0 0 0
0:00:00.00 140965 N 0 0 0
0:00:00.00 141197 N 0 0 0
0:00:00.00 141426 N 0 0 0
0:00:00.00 141644 N 0 0 0
0:00:00.00 141876 N 0 0 0
0:00:00.00 142103 N 0 0 0
0:00:00.00 142337 N 0 0 0
0:00:00.00 142569 N 0 0 0
0:00:00.00 142803 N 0 0 0
0:00:00.00 143039 N 0 0 0
0:00:00.00 143264 N 0 0 0
0:00:00.00 143492 N 0 0 0
0:00:00.00 143732 N 0 0 0
0:00:00.00 143973 N 0 0 0
0:00:00.00 144207 N 0 0 0
0:00:00.00 144446 N 0 0 0
0:00:00.00 144668 N 0 0 0
0:00:00.00 144911 N 0 0 0
0:00:00.00 145145 N 0 0 0
0:00:00.00 145381 N 0 0 0
0:00:00.00 145620 N 0 0 0
0:00:00.00 145863 N 0 0 0
0:00:00.00 146104 N 0 0 0
0:00:00.00 146335 N 0 0 0
0:00:00.00 146576 N 0 0 0
0:00:00.00 146822 N 0 0 0
0:00:00.00 147065 N 0 0 0
0:00:00.00 147307 N 0 0 0
0:00:00.00 147539 N 0 0 0
0:00:00.00 147773 N 0 0 0
0:00:00.00 148018 N 0 0 0
0:00:00.00 148253 N 0 0 0
0:00:00.00 148496 N 0 0 0
0:00:00.00 148741 N 0 0 0
0:00:00.00 148986 N 0 0 0
0:00:00.00 149216 N 0 0 0
0:00:00.00 149463 N 0 0 0
0:00:00.00 149708 N 0 0 0
0:00:00.00 149958 N 0 0 0
0:00:00.00 150201 N 0 0 0
0:00:00.00 150442 N 0 0 0
0:00:00.00 150687 N 0 0 0
0:00:00.00 150935 N 0 0 0
0:00:00.00 151182 N 0 0 0
0:00:00.00 151436 N 0 0 0
0:00:00.00 151686 N 0 0 0
0:00:00.00 151940 N 0 0 0
0:00:00.00 152186 N 0 0 0
0:00:00.00 152435 N 0 0 0
0:00:00.00 152685 N 0 0 0
0:00:00.00 152937 N 0 0 0
0:00:00.00 153182 N 0 0 0
0:00:00.00 153427 N 0 0 0
0:00:00.00 153671 N 0 0 0
0:00:00.00 153922 N 0 0 0
0:00:00.00 154168 N 0 0 0
0:00:00.00 154413 N 0 0 0
0:00:00.00 154670 N 0 0 0
0:00:00.00 154928 N 0 0 0
0:00:00.00 155183 N 0 0 0
0:00:00.00 155435 N 0 0 0
0:00:00.00 155698 N 0 0 0
0:00:00.00 155957 N 0 0 0
0:00:00.00 156222 N 0 0 0
0:00:00.00 156481 N 0 0 0
0:00:00.00 156751 N 0 0 0
0:00:00.00 157005 N 0 0 0
0:00:00.00 157271 N 0 0 0
0:00:00.00 157541 N 0 0 0
0:00:00.00 157813 N 0 0 0
0:00:00.00 158080 N 0 0 0
0:00:00.00 158346 N 0 0 0
0:00:00.00 158625 N 0 0 0
0:00:00.00 158897 N 0 0 0
0:00:00.00 159170 N 0 0 0
0:00:00.00 159431 N 0 0 0
0:00:00.00 159705 N 0 0 0
0:00:00.00 159977 N 0 0 0
0:00:00.00 160249 N 0 0 0
0:00:00.00 160520 N 0 0 0
0:00:00.00 160787 N 0 0 0
0:00:00.00 161048 N 0 0 0
0:00:00.00 161311 N 0 0 0
0:00:00.00 161584 N 0 0 0
0:00:00.00 161852 N 0 0 0
0:00:00.00 162113 N 0 0 0
0:00:00.00 162367 N 0 0 0
0:00:00.00 162635 N 0 0 0
0:00:00.00 162896 N 0 0 0
0:00:00.00 163156 N 0 0 0
0:00:00.00 163418 N 0 0 0
0:00:00.00 163678 N 0 0 0
0:00:00.00 163930 N 0 0 0
0:00:00.00 164185 N 0 0 0
0:00:00.00 164443 N 0 0 0
0:00:00.00 164700 N 0 0 0
0:00:00.00 164952 N 0 0 0
0:00:00.00 165197 N 0 0 0
0:00:00.00 165443 N 0 0 0
0:00:00.00 165690 N 0 0 0
0:00:00.00 165940 N 0 0 0
0:00:00.00 166192 N 0 0 0
0:00:00.00 166446 N 0 0 0
0:00:00.00 166702 N 0 0 0
0:00:00.00 166950 N 0 0 0
0:00:00.00 167213 N 0 0 0
0:00:00.00 167488 N 0 0 0
0:00:00.00 167769 N 0 0 0
0:00:00.00 168050 N 0 0 0
0:00:00.00 168322 N 0 0 0
0:00:00.00 168606 N 0 0 0
0:00:00.00 168883 N 0 0 0
0:00:00.00 169160 N 0 0 0
0:00:00.00 169441 N 0 0 0
0:00:00.00 169720 N 0 0 0
0:00:00.00 169992 N 0 0 0
0:00:00.00 170264 N 0 0 0
0:00:00.00 170550 N 0 0 0
0:00:00.00 170824 N 0 0 0
0:00:00.00 171099 N 0 0 0
0:00:00.00 171374 N 0 0 0
0:00:00.00 171644 N 0 0 0
0:00:00.00 171922 N 0 0 0
0:00:00.00 172197 N 0 0 0
0:00:00.00 172471 N 0 0 0
0:00:00.00 172733 N 0 0 0
0:00:00.00 173003 N 0 0 0
0:00:00.00 173270 N 0 0 0
0:00:00.00 173545 N 0 0 0
0:00:00.00 173808 N 0 0 0
0:00:00.00 174065 N 0 0 0
0:00:00.00 174332 N 0 0 0
0:00:00.00 174595 N 0 0 0
0:00:00.00 174861 N 0 0 0
0:00:00.00 175124 N 0 0 0
0:00:00.00 175394 N 0 0 0
0:00:00.00 175649 N 0 0 0
0:00:00.00 175912 N 0 0 0
0:00:00.00 176179 N 0 0 0
0:00:00.00 176449 N 0 0 0
0:00:00.00 176711 N 0 0 0
0:00:00.00 176971 N 0 0 0
0:00:00.00 177230 N 0 0 0
0:00:00.00 177493 N 0 0 0
0:00:00.00 177754 N 0 0 0
0:00:00.00 178016 N 0 0 0
0:00:00.00 178279 N 0 0 0
0:00:00.00 178533 N 0 0 0
0:00:00.00 178792 N 0 0 0
0:00:00.00 179051 N 0 0 0
0:00:00.00 179318 N 0 0 0
0:00:00.00 179575 N 0 0 0
0:00:00.00 179833 N 0 0 0
0:00:00.00 180077 N 0 0 0
0:00:00.00 180337 N 0 0 0
0:00:00.00 180590 N 0 0 0
0:00:00.00 180844 N 0 0 0
0:00:00.00 181094 N 0 0 0
0:00:00.00 181343 N 0 0 0
0:00:00.00 181595 N 0 0 0
0:00:00.00 181841 N 0 0 0
0:00:00.00 182090 N 0 0 0
0:00:00.00 182349 N 0 0 0
0:00:00.00 182599 N 0 0 0
0:00:00.00 182842 N 0 0 0
0:00:00.00 183096 N 0 0 0
0:00:00.00 183353 N 0 0 0
0:00:00.00 183607 N 0 0 0
0:00:00.00 183857 N 0 0 0
0:00:00.00 184113 N 0 0 0
0:00:00.00 184370 N 0 0 0
0:00:00.00 184624 N 0 0 0
0:00:00.00 184882 N 0 0 0
0:00:00.00 185137 N 0 0 0
0:00:00.00 185396 N 0 0 0
0:00:00.00 185654 N 0 0 0
0:00:00.00 185917 N 0 0 0
0:00:00.00 186176 N 0 0 0
0:00:00.00 186435 N 0 0 0
0:00:00.00 186694 N 0 0 0
0:00:00.00 186955 N 0 0 0
0:00:00.00 187225 N 0 0 0
0:00:00.00 187492 N 0 0 0
0:00:00.00 187762 N 0 0 0
0:00:00.00 188026 N 0 0 0
0:00:00.00 188311 N 0 0 0
0:00:00.00 188582 N 0 0 0
0:00:00.00 188861 N 0 0 0
0:00:00.00 189137 N 0 0 0
0:00:00.00 189423 N 0 0 0
0:00:00.00 189702 N 0 0 0
0:00:00.00 189992 N 0 0 0
0:00:00.00 190287 N 0 0 0
0:00:00.00 190568 N 0 0 0
0:00:00.00 190845 N 0 0 0
0:00:00.00 191128 N 0 0 0
0:00:00.00 191410 N 0 0 0
0:00:00.00 191698 N 0 0 0
0:00:00.00 191972 N 0 0 0
0:00:00.00 192251 N 0 0 0
0:00:00.00 192528 N 0 0 0
0:00:00.00 192809 N 0 0 0
0:00:00.00 193099 N 0 0 0
0:00:00.00 193388 N 0 0 0
0:00:00.00 193671 N 0 0 0
0:00:00.00 193946 N 0 0 0
0:00:00.00 194236 N 0 0 0
0:00:00.00 194517 N 0 0 0
0:00:00.00 194792 N 0 0 0
0:00:00.00 195070 N 0 0 0
0:00:00.00 195347 N 0 0 0
0:00:00.00 195613 N 0 0 0
0:00:00.00 195883 N 0 0 0
0:00:00.00 196164 N 0 0 0
0:00:00.00 196434 N 0 0 0
0:00:00.00 196699 N 0 0 0
0:00:00.00 196963 N 0 0 0
0:00:00.00 197237 N 0 0 0
0:00:00.00 197505 N 0 0 0
0:00:00.00 197779 N 0 0 0
0:00:00.00 198056 N 0 0 0
0:00:00.00 198331 N 0 0 0
0:00:00.00 198610 N 0 0 0
0:00:00.00 198895 N 0 0 0
0:00:00.00 199177 N 0 0 0
0:00:00.00 199458 N 0 0 0
0:00:00.00 199737 N 0 0 0
0:00:00.00 200018 N 0 0 0
0:00:00.00 200291 N 0 0 0
0:00:00.00 200578 N 0 0 0
0:00:00.00 200849 N 0 0 0
0:00:00.00 201125 N 0 0 0
0:00:00.00 201395 N 0 0 0
0:00:00.00 201663 N 0 0 0
0:00:00.00 201946 N 0 0 0
0:00:00.00 202225 N 0 0 0
0:00:00.00 202491 N 0 0 0
0:00:00.00 202757 N 0 0 0
0:00:00.00 203036 N 0 0 0
0:00:00.00 203308 N 0 0 0
0:00:00.00 203582 N 0 0 0
0:00:00.00 203854 N 0 0 0
0:00:00.00 204127 N 0 0 0
0:00:00.00 204394 N 0 0 0
0:00:00.00 204673 N 0 0 0
0:00:00.00 204957 N 0 0 0
0:00:00.00 205229 N 0 0 0
0:00:00.00 205501 N 0 0 0
0:00:00.00 205783 N 0 0 0
0:00:00.00 206064 N 0 0 0
0:00:00.00 206341 N 0 0 0
0:00:00.00 206615 N 0 0 0
0:00:00.00 206892 N 0 0 0
0:00:00.00 207167 N 0 0 0
0:00:00.00 207441 N 0 0 0
0:00:00.00 207713 N 0 0 0
0:00:00.00 207994 N 0 0 0
0:00:00.00 208267 N 0 0 0
0:00:00.00 208539 N 0 0 0
0:00:00.00 208816 N 0 0 0
0:00:00.00 209095 N 0 0 0
0:00:00.00 209380 N 0 0 0
0:00:00.00 209669 N 0 0 0
0:00:00.00 209966 N 0 0 0
0:00:00.00 210254 N 0 0 0
0:00:00.00 210544 N 0 0 0
0:00:00.00 210839 N 0 0 0
0:00:00.00 211122 N 0 0 0
0:00:00.00 211410 N 0 0 0
0:00:00.00 211696 N 0 0 0
0:00:00.00 211977 N 0 0 0
0:00:00.00 212249 N 0 0 0
0:00:00.00 212522 N 0 0 0
0:00:00.00 212800 N 0 0 0
0:00:00.00 213068 N 0 0 0
0:00:00.00 213338 N 0 0 0
0:00:00.00 213610 N 0 0 0
0:00:00.00 213890 N 0 0 0
0:00:00.00 214159 N 0 0 0
0:00:00.00 214427 N 0 0 0
0:00:00.00 214704 N 0 0 0
0:00:00.00 214983 N 0 0 0
0:00:00.00 215260 N 0 0 0
0:00:00.00 215525 N 0 0 0
0:00:00.00 215807 N 0 0 0
0:00:00.00 216083 N 0 0 0
0:00:00.00 216351 N 0 0 0
0:00:00.00 216625 N 0 0 0
0:00:00.00 216900 N 0 0 0
0:00:00.00 217166 N 0 0 0
0:00:00.00 217426 N 0 0 0
0:00:00.00 217706 N 0 0 0
0:00:00.00 217980 N 0 0 0
0:00:00.00 218252 N 0 0 0
0:00:00.00 218509 N 0 0 0
0:00:00.00 218779 N 0 0 0
0:00:00.00 219042 N 0 0 0
0:00:00.00 219307 N 0 0 0
0:00:00.00 219573 N 0 0 0
0:00:00.00 219838 N 0 0 0
0:00:00.00 220099 N 0 0 0
0:00:00.00 220356 N 0 0 0
0:00:00.00 220613 N 0 0 0
0:00:00.00 220874 N 0 0 0
0:00:00.00 221132 N 0 0 0
0:00:00.00 221378 N 0 0 0
0:00:00.00 221627 N 0 0 0
0:00:00.00 221872 N 0 0 0
0:00:00.00 222122 N 0 0 0
0:00:00.00 222370 N 0 0 0
0:00:00.00 222622 N 0 0 0
0:00:00.00 222871 N 0 0 0
0:00:00.00 223110 N 0 0 0
0:00:00.00 223357 N 0 0 0
0:00:00.00 223609 N 0 0 0
0:00:00.00 223859 N 0 0 0
0:00:00.00 224104 N 0 0 0
0:00:00.00 224339 N 0 0 0
0:00:00.00 224584 N 0 0 0
0:00:00.00 224831 N 0 0 0
0:00:00.00 225070 N 0 0 0
0:00:00.00 225313 N 0 0 0
0:00:00.00 225551 N 0 0 0
0:00:00.00 225794 N 0 0 0
0:00:00.00 226033 N 0 0 0
0:00:00.00 226278 N 0 0 0
0:00:00.00 226526 N 0 0 0
0:00:00.00 226780 N 0 0 0
0:00:00.00 227029 N 0 0 0
0:00:00.00 227284 N 0 0 0
0:00:00.00 227534 N 0 0 0
0:00:00.00 227792 N 0 0 0
0:00:00.00 228047 N 0 0 0
0:00:00.00 228307 N 0 0 0
0:00:00.00 228569 N 0 0 0
0:00:00.00 228829 N 0 0 0
0:00:00.00 229081 N 0 0 0
0:00:00.00 229333 N 0 0 0
0:00:00.00 229595 N 0 0 0
0:00:00.00 229851 N 0 0 0
0:00:00.00 230107 N 0 0 0
0:00:00.00 230355 N 0 0 0
0:00:00.00 230614 N 0 0 0
0:00:00.00 230868 N 0 0 0
0:00:00.00 231125 N 0 0 0
0:00:00.00 231385 N 0 0 0
0:00:00.00 231649 N 0 0 0
0:00:00.00 231908 N 0 0 0
0:00:00.00 232171 N 0 0 0
0:00:00.00 232436 N 0 0 0
0:00:00.00 232700 N 0 0 0
0:00:00.00 232963 N 0 0 0
0:00:00.00 233231 N 0 0 0
0:00:00.00 233500 N 0 0 0
0:00:00.00 233764 N 0 0 0
0:00:00.00 234031 N 0 0 0
0:00:00.00 234295 N 0 0 0
0:00:00.00 234563 N 0 0 0
0:00:00.00 234833 N 0 0 0
0:00:00.00 235111 N 0 0 0
0:00:00.00 235379 N 0 0 0
0:00:00.00 235660 N 0 0 0
0:00:00.00 235935 N 0 0 0
0:00:00.00 236200 N 0 0 0
0:00:00.00 236471 N 0 0 0
0:00:00.00 236740 N 0 0 0
0:00:00.00 237008 N 0 0 0
0:00:00.00 237280 N 0 0 0
0:00:00.00 237553 N 0 0 0
0:00:00.00 237816 N 0 0 0
0:00:00.00 238082 N 0 0 0
0:00:00.00 238356 N 0 0 0
0:00:00.00 238622 N 0 0 0
0:00:00.00 238880 N 0 0 0
0:00:00.00 239139 N 0 0 0
0:00:00.00 239404 N 0 0 0
0:00:00.00 239661 N 0 0 0
0:00:00.00 239918 N 0 0 0
0:00:00.00 240181 N 0 0 0
0:00:00.00 240446 N 0 0 0
0:00:00.00 240707 N 0 0 0
0:00:00.00 240970 N 0 0 0
0:00:00.00 241227 N 0 0 0
0:00:00.00 241497 N 0 0 0
0:00:00.00 241754 N 0 0 0
0:00:00.00 242014 N 0 0 0
0:00:00.00 242266 N 0 0 0
0:00:00.00 242523 N 0 0 0
0:00:00.00 242784 N 0 0 0
0:00:00.00 243038 N 0 0 0
0:00:00.00 243302 N 0 0 0
0:00:00.00 243565 N 0 0 0
0:00:00.00 243826 N 0 0 0
0:00:00.00 244082 N 0 0 0
0:00:00.00 244352 N 0 0 0
0:00:00.00 244615 N 0 0 0
0:00:00.00 244874 N 0 0 0
0:00:00.00 245126 N 0 0 0
0:00:00.00 245390 N 0 0 0
0:00:00.00 245646 N 0 0 0
0:00:00.00 245903 N 0 0 0
0:00:00.00 246157 N 0 0 0
0:00:00.00 246409 N 0 0 0
0:00:00.00 246656 N 0 0 0
0:00:00.00 246904 N 0 0 0
0:00:00.00 247149 N 0 0 0
0:00:00.00 247387 N 0 0 0
0:00:00.00 247630 N 0 0 0
0:00:00.00 247869 N 0 0 0
0:00:00.00 248096 N 0 0 0
0:00:00.00 248330 N 0 0 0
0:00:00.00 248562 N 0 0 0
0:00:00.00 248794 N 0 0 0
0:00:00.00 249028 N 0 0 0
0:00:00.00 249271 N 0 0 0
0:00:00.00 249502 N 0 0 0
0:00:00.00 249734 N 0 0 0
0:00:00.00 249966 N 0 0 0
0:00:00.00 250213 N 0 0 0
0:00:00.00 250450 N 0 0 0
0:00:00.00 250691 N 0 0 0
0:00:00.00 250918 N 0 0 0
0:00:00.00 251167 N 0 0 0
0:00:00.00 251406 N 0 0 0
0:00:00.00 251647 N 0 0 0
0:00:00.00 251888 N 0 0 0
0:00:00.00 252137 N 0 0 0
0:00:00.00 252374 N 0 0 0
0:00:00.00 252619 N 0 0 0
0:00:00.00 252862 N 0 0 0
0:00:00.00 253112 N 0 0 0
0:00:00.00 253357 N 0 0 0
0:00:00.00 253602 N 0 0 0
0:00:00.00 253843 N 0 0 0
0:00:00.00 254093 N 0 0 0
0:00:00.00 254342 N 0 0 0
0:00:00.00 254592 N 0 0 0
0:00:00.00 254842 N 0 0 0
0:00:00.00 255098 N 0 0 0
0:00:00.00 255346 N 0 0 0
0:00:00.00 255602 N 0 0 0
0:00:00.00 255852 N 0 0 0
0:00:00.00 256109 N 0 0 0
0:00:00.00 256360 N 0 0 0
0:00:00.00 256613 N 0 0 0
0:00:00.00 256856 N 0 0 0
0:00:00.00 257117 N 0 0 0
0:00:00.00 257371 N 0 0 0
0:00:00.00 257623 N 0 0 0
0:00:00.00 257881 N 0 0 0
0:00:00.00 258143 N 0 0 0
0:00:00.00 258403 N 0 0 0
0:00:00.00 258660 N 0 0 0
0:00:00.00 258923 N 0 0 0
0:00:00.00 259189 N 0 0 0
0:00:00.00 259448 N 0 0 0
0:00:00.00 259708 N 0 0 0
0:00:00.00 259969 N 0 0 0
0:00:00.00 260228 N 0 0 0
0:00:00.00 260489 N 0 0 0
0:00:00.00 260750 N 0 0 0
0:00:00.00 261011 N 0 0 0
0:00:00.00 261272 N 0 0 0
0:00:00.00 261533 N 0 0 0
0:00:00.00 261792 N 0 0 0
0:00:00.00 262055 N 0 0 0
0:00:00.00 262307 N 0 0 0
0:00:00.00 262570 N 0 0 0
0:00:00.00 262822 N 0 0 0
0:00:00.00 263083 N 0 0 0
0:00:00.00 263340 N 0 0 0
0:00:00.00 263597 N 0 0 0
0:00:00.00 263855 N 0 0 0
0:00:00.00 264121 N 0 0 0
0:00:00.00 264380 N 0 0 0
0:00:00.00 264636 N 0 0 0
0:00:00.00 264899 N 0 0 0
0:00:00.00 265163 N 0 0 0
0:00:00.00 265428 N 0 0 0
0:00:00.00 265693 N 0 0 0
0:00:00.00 265966 N 0 0 0
0:00:00.00 266231 N 0 0 0
0:00:00.00 266495 N 0 0 0
0:00:00.00 266767 N 0 0 0
0:00:00.00 267041 N 0 0 0
0:00:00.00 267309 N 0 0 0
0:00:00.00 267575 N 0 0 0
0:00:00.00 267851 N 0 0 0
0:00:00.00 268128 N 0 0 0
0:00:00.00 268402 N 0 0 0
0:00:00.00 268673 N 0 0 0
0:00:00.00 268947 N 0 0 0
0:00:00.00 269219 N 0 0 0
0:00:00.00 269498 N 0 0 0
0:00:00.00 269775 N 0 0 0
0:00:00.00 270065 N 0 0 0
0:00:00.00 270340 N 0 0 0
0:00:00.00 270617 N 0 0 0
0:00:00.00 270900 N 0 0 0
0:00:00.00 271183 N 0 0 0
0:00:00.00 271462 N 0 0 0
0:00:00.00 271733 N 0 0 0
0:00:00.00 272014 N 0 0 0
0:00:00.00 272286 N 0 0 0
0:00:00.00 272561 N 0 0 0
0:00:00.00 272844 N 0 0 0
0:00:00.00 273121 N 0 0 0
0:00:00.00 273398 N 0 0 0
0:00:00.00 273683 N 0 0 0
0:00:00.00 273989 N 0 0 0
0:00:00.00 274282 N 0 0 0
0:00:00.00 274570 N 0 0 0
0:00:00.00 274860 N 0 0 0
0:00:00.00 275148 N 0 0 0
0:00:00.00 275440 N 0 0 0
0:00:00.00 275722 N 0 0 0
0:00:00.00 276003 N 0 0 0
0:00:00.00 276286 N 0 0 0
0:00:00.00 276561 N 0 0 0
0:00:00.00 276847 N 0 0 0
0:00:00.00 277117 N 0 0 0
0:00:00.00 277389 N 0 0 0
0:00:00.00 277652 N 0 0 0
0:00:00.00 277922 N 0 0 0
0:00:00.00 278190 N 0 0 0
0:00:00.00 278453 N 0 0 0
0:00:00.00 278725 N 0 0 0
0:00:00.00 279000 N 0 0 0
0:00:00.00 279275 N 0 0 0
0:00:00.00 279551 N 0 0 0
0:00:00.00 279835 N 0 0 0
0:00:00.00 280111 N 0 0 0
0:00:00.00 280391 N 0 0 0
0:00:00.00 280663 N 0 0 0
0:00:00.00 280940 N 0 0 0
0:00:00.00 281221 N 0 0 0
0:00:00.00 281507 N 0 0 0
0:00:00.00 281790 N 0 0 0
0:00:00.00 282064 N 0 0 0
0:00:00.00 282335 N 0 0 0
0:00:00.00 282611 N 0 0 0
0:00:00.00 282890 N 0 0 0
0:00:00.00 283160 N 0 0 0
0:00:00.00 283426 N 0 0 0
0:00:00.00 283700 N 0 0 0
0:00:00.00 283972 N 0 0 0
0:00:00.00 284243 N 0 0 0
0:00:00.00 284513 N 0 0 0
0:00:00.00 284782 N 0 0 0
0:00:00.00 285048 N 0 0 0
0:00:00.00 285313 N 0 0 0
0:00:00.00 285583 N 0 0 0
0:00:00.00 285854 N 0 0 0
0:00:00.00 286117 N 0 0 0
0:00:00.00 286378 N 0 0 0
0:00:00.00 286654 N 0 0 0
0:00:00.00 286918 N 0 0 0
0:00:00.00 287188 N 0 0 0
0:00:00.00 287460 N 0 0 0
0:00:00.00 287734 N 0 0 0
0:00:00.00 288000 N 0 0 0
0:00:00.00 288274 N 0 0 0
0:00:00.00 288551 N 0 0 0
0:00:00.00 288817 N 0 0 0
0:00:00.00 289093 N 0 0 0
0:00:00.00 289354 N 0 0 0
0:00:00.00 289625 N 0 0 0
0:00:00.00 289890 N 0 0 0
0:00:00.00 290156 N 0 0 0
0:00:00.00 290423 N 0 0 0
0:00:00.00 290709 N 0 0 0
0:00:00.00 290984 N 0 0 0
0:00:00.00 291258 N 0 0 0
0:00:00.00 291539 N 0 0 0
0:00:00.00 291805 N 0 0 0
0:00:00.00 292081 N 0 0 0
0:00:00.00 292345 N 0 0 0
0:00:00.00 292621 N 0 0 0
0:00:00.00 292887 N 0 0 0
0:00:00.00 293150 N 0 0 0
0:00:00.00 293416 N 0 0 0
0:00:00.00 293684 N 0 0 0
0:00:00.00 293947 N 0 0 0
0:00:00.00 294214 N 0 0 0
0:00:00.00 294494 N 0 0 0
0:00:00.00 294761 N 0 0 0
0:00:00.00 295038 N 0 0 0
0:00:00.00 295321 N 0 0 0
0:00:00.00 295607 N 0 0 0
0:00:00.00 295889 N 0 0 0
0:00:00.00 296172 N 0 0 0
0:00:00.00 296464 N 0 0 0
0:00:00.00 296748 N 0 0 0
0:00:00.00 297040 N 0 0 0
0:00:00.00 297326 N 0 0 0
0:00:00.00 297605 N 0 0 0
0:00:00.00 297887 N 0 0 0
0:00:00.00 298157 N 0 0 0
0:00:00.00 298440 N 0 0 0
0:00:00.00 298708 N 0 0 0
0:00:00.00 298971 N 0 0 0
0:00:00.00 299239 N 0 0 0
0:00:00.00 299509 N 0 0 0
0:00:00.00 299774 N 0 0 0
0:00:00.00 300031 N 0 0 0
0:00:00.00 300301 N 0 0 0
0:00:00.00 300566 N 0 0 0
0:00:00.00 300829 N 0 0 0
0:00:00.00 301088 N 0 0 0
0:00:00.00 301356 N 0 0 0
0:00:00.00 301613 N 0 0 0
0:00:00.00 301876 N 0 0 0
0:00:00.00 302141 N 0 0 0
0:00:00.00 302407 N 0 0 0
0:00:00.00 302672 N 0 0 0
0:00:00.00 302931 N 0 0 0
0:00:00.00 303190 N 0 0 0
0:00:00.00 303451 N 0 0 0
0:00:00.00 303710 N 0 0 0
0:00:00.00 303968 N 0 0 0
0:00:00.00 304225 N 0 0 0
0:00:00.00 304488 N 0 0 0
0:00:00.00 304756 N 0 0 0
0:00:00.00 305024 N 0 0 0
0:00:00.00 305303 N 0 0 0
0:00:00.00 305582 N 0 0 0
0:00:00.00 305861 N 0 0 0
0:00:00.00 306139 N 0 0 0
0:00:00.00 306434 N 0 0 0
0:00:00.00 306716 N 0 0 0
0:00:00.00 307004 N 0 0 0
0:00:00.00 307298 N 0 0 0
0:00:00.00 307580 N 0 0 0
0:00:00.00 307867 N 0 0 0
0:00:00.00 308158 N 0 0 0
0:00:00.00 308444 N 0 0 0
0:00:00.00 308718 N 0 0 0
0:00:00.00 308999 N 0 0 0
0:00:00.00 309289 N 0 0 0
0:00:00.00 309569 N 0 0 0
0:00:00.00 309859 N 0 0 0
0:00:00.00 310145 N 0 0 0
0:00:00.00 310439 N 0 0 0
0:00:00.00 310723 N 0 0 0
0:00:00.00 311006 N 0 0 0
0:00:00.00 311297 N 0 0 0
0:00:00.00 311589 N 0 0 0
0:00:00.00 311864 N 0 0 0
0:00:00.00 312147 N 0 0 0
0:00:00.00 312430 N 0 0 0
0:00:00.00 312703 N 0 0 0
0:00:00.00 312971 N 0 0 0
0:00:00.00 313256 N 0 0 0
0:00:00.00 313522 N 0 0 0
0:00:00.00 313785 N 0 0 0
0:00:00.00 314057 N 0 0 0
0:00:00.00 314327 N 0 0 0
0:00:00.00 314586 N 0 0 0
0:00:00.00 314847 N 0 0 0
0:00:00.00 315115 N 0 0 0
0:00:00.00 315378 N 0 0 0
0:00:00.00 315644 N 0 0 0
0:00:00.00 315905 N 0 0 0
0:00:00.00 316174 N 0 0 0
0:00:00.00 316433 N 0 0 0
0:00:00.00 316694 N 0 0 0
0:00:00.00 316958 N 0 0 0
0:00:00.00 317228 N 0 0 0
0:00:00.00 317489 N 0 0 0
0:00:00.00 317745 N 0 0 0
0:00:00.00 318004 N 0 0 0
0:00:00.00 318272 N 0 0 0
0:00:00.00 318537 N 0 0 0
0:00:00.00 318796 N 0 0 0
0:00:00.00 319057 N 0 0 0
0:00:00.00 319322 N 0 0 0
0:00:00.00 319585 N 0 0 0
0:00:00.00 319851 N 0 0 0
0:00:00.00 320123 N 0 0 0
0:00:00.00 320386 N 0 0 0
0:00:00.00 320650 N 0 0 0
0:00:00.00 320920 N 0 0 0
0:00:00.00 321194 N 0 0 0
0:00:00.00 321453 N 0 0 0
0:00:00.00 321716 N 0 0 0
0:00:00.00 321977 N 0 0 0
0:00:00.00 322238 N 0 0 0
0:00:00.00 322499 N 0 0 0
0:00:00.00 322765 N 0 0 0
0:00:00.00 323035 N 0 0 0
0:00:00.00 323294 N 0 0 0
0:00:00.00 323561 N 0 0 0
0:00:00.00 323822 N 0 0 0
0:00:00.00 324092 N 0 0 0
0:00:00.00 324351 N 0 0 0
0:00:00.00 324608 N 0 0 0
0:00:00.00 324862 N 0 0 0
0:00:00.00 325118 N 0 0 0
0:00:00.00 325372 N 0 0 0
0:00:00.00 325622 N 0 0 0
0:00:00.00 325876 N 0 0 0
0:00:00.00 326131 N 0 0 0
0:00:00.00 326380 N 0 0 0
0:00:00.00 326626 N 0 0 0
0:00:00.00 326878 N 0 0 0
0:00:00.00 327127 N 0 0 0
0:00:00.00 327373 N 0 0 0
0:00:00.00 327618 N 0 0 0
0:00:00.00 327866 N 0 0 0
0:00:00.00 328109 N 0 0 0
0:00:00.00 328349 N 0 0 0
0:00:00.00 328595 N 0 0 0
0:00:00.00 328844 N 0 0 0
0:00:00.00 329089 N 0 0 0
0:00:00.00 329332 N 0 0 0
0:00:00.00 329580 N 0 0 0
0:00:00.00 329834 N 0 0 0
0:00:00.00 330086 N 0 0 0
0:00:00.00 330341 N 0 0 0
0:00:00.00 330593 N 0 0 0
0:00:00.00 330854 N 0 0 0
0:00:00.00 331106 N 0 0 0
0:00:00.00 331366 N 0 0 0
0:00:00.00 331630 N 0 0 0
0:00:00.00 331902 N 0 0 0
0:00:00.00 332165 N 0 0 0
0:00:00.00 332429 N 0 0 0
0:00:00.00 332689 N 0 0 0
0:00:00.00 332959 N 0 0 0
0:00:00.00 333225 N 0 0 0
0:00:00.00 333490 N 0 0 0
0:00:00.00 333756 N 0 0 0
0:00:00.00 334022 N 0 0 0
0:00:00.00 334291 N 0 0 0
0:00:00.00 334562 N 0 0 0
0:00:00.00 334845 N 0 0 0
0:00:00.00 335108 N 0 0 0
0:00:00.00 335376 N 0 0 0
0:00:00.00 335648 N 0 0 0
0:00:00.00 335921 N 0 0 0
0:00:00.00 336188 N 0 0 0
0:00:00.00 336447 N 0 0 0
0:00:00.00 336715 N 0 0 0
0:00:00.00 336978 N 0 0 0
0:00:00.00 337246 N 0 0 0
0:00:00.00 337509 N 0 0 0
0:00:00.00 337781 N 0 0 0
0:00:00.00 338040 N 0 0 0
0:00:00.00 338303 N 0 0 0
0:00:00.00 338562 N 0 0 0
0:00:00.00 338827 N 0 0 0
0:00:00.00 339091 N 0 0 0
0:00:00.00 339352 N 0 0 0
0:00:00.00 339617 N 0 0 0
0:00:00.00 339878 N 0 0 0
0:00:00.00 340146 N 0 0 0
0:00:00.00 340414 N 0 0 0
0:00:00.00 340691 N 0 0 0
0:00:00.00 340961 N 0 0 0
0:00:00.00 341219 N 0 0 0
0:00:00.00 341482 N 0 0 0
0:00:00.00 341750 N 0 0 0
0:00:00.00 342013 N 0 0 0
0:00:00.00 342274 N 0 0 0
0:00:00.00 342533 N 0 0 0
0:00:00.00 342792 N 0 0 0
0:00:00.00 343051 N 0 0 0
0:00:00.00 343316 N 0 0 0
0:00:00.00 343584 N 0 0 0
0:00:00.00 343841 N 0 0 0
0:00:00.00 344110 N 0 0 0
0:00:00.00 344376 N 0 0 0
0:00:00.00 344659 N 0 0 0
0:00:00.00 344929 N 0 0 0
0:00:00.00 345202 N 0 0 0
0:00:00.00 345472 N 0 0 0
0:00:00.00 345746 N 0 0 0
0:00:00.00 346019 N 0 0 0
0:00:00.00 346300 N 0 0 0
0:00:00.00 346579 N 0 0 0
0:00:00.00 346855 N 0 0 0
0:00:00.00 347132 N 0 0 0
0:00:00.00 347409 N 0 0 0
0:00:00.00 347699 N 0 0 0
0:00:00.00 347976 N 0 0 0
0:00:00.00 348251 N 0 0 0
0:00:00.00 348527 N 0 0 0
0:00:00.00 348800 N 0 0 0
0:00:00.00 349067 N 0 0 0
0:00:00.00 349339 N 0 0 0
0:00:00.00 349616 N 0 0 0
0:00:00.00 349889 N 0 0 0
0:00:00.00 350172 N 0 0 0
0:00:00.00 350455 N 0 0 0
0:00:00.00 350732 N 0 0 0
0:00:00.00 350998 N 0 0 0
0:00:00.00 351266 N 0 0 0
0:00:00.00 351533 N 0 0 0
0:00:00.00 351797 N 0 0 0
0:00:00.00 352062 N 0 0 0
0:00:00.00 352321 N 0 0 0
0:00:00.00 352591 N 0 0 0
0:00:00.00 352850 N 0 0 0
0:00:00.00 353115 N 0 0 0
0:00:00.00 353371 N 0 0 0
0:00:00.00 353637 N 0 0 0
0:00:00.00 353894 N 0 0 0
0:00:00.00 354148 N 0 0 0
0:00:00.00 354404 N 0 0 0
0:00:00.00 354661 N 0 0 0
0:00:00.00 354911 N 0 0 0
0:00:00.00 355163 N 0 0 0
0:00:00.00 355419 N 0 0 0
0:00:00.00 355675 N 0 0 0
0:00:00.00 355927 N 0 0 0
0:00:00.00 356177 N 0 0 0
0:00:00.00 356436 N 0 0 0
0:00:00.00 356690 N 0 0 0
0:00:00.00 356945 N 0 0 0
0:00:00.00 357197 N 0 0 0
0:00:00.00 357460 N 0 0 0
0:00:00.00 357718 N 0 0 0
0:00:00.00 357982 N 0 0 0
0:00:00.00 358250 N 0 0 0
0:00:00.00 358522 N 0 0 0
0:00:00.00 358798 N 0 0 0
0:00:00.00 359075 N 0 0 0
0:00:00.00 359363 N 0 0 0
0:00:00.00 359649 N 0 0 0
0:00:00.00 359951 N 0 0 0
0:00:00.00 360229 N 0 0 0
0:00:00.00 360520 N 0 0 0
0:00:00.00 360810 N 0 0 0
0:00:00.00 361096 N 0 0 0
0:00:00.00 361384 N 0 0 0
0:00:00.00 361661 N 0 0 0
0:00:00.00 361942 N 0 0 0
0:00:00.00 362230 N 0 0 0
0:00:00.00 362524 N 0 0 0
0:00:00.00 362804 N 0 0 0
0:00:00.00 363082 N 0 0 0
0:00:00.00 363366 N 0 0 0
0:00:00.00 363647 N 0 0 0
0:00:00.00 363929 N 0 0 0
0:00:00.00 364208 N 0 0 0
0:00:00.00 364482 N 0 0 0
0:00:00.00 364765 N 0 0 0
0:00:00.00 365045 N 0 0 0
0:00:00.00 365341 N 0 0 0
0:00:00.00 365632 N 0 0 0
0:00:00.00 365917 N 0 0 0
0:00:00.00 366201 N 0 0 0
0:00:00.00 366485 N 0 0 0
0:00:00.00 366768 N 0 0 0
0:00:00.00 367043 N 0 0 0
0:00:00.00 367326 N 0 0 0
0:00:00.00 367601 N 0 0 0
0:00:00.00 367875 N 0 0 0
0:00:00.00 368149 N 0 0 0
0:00:00.00 368420 N 0 0 0
0:00:00.00 368690 N 0 0 0
0:00:00.00 368957 N 0 0 0
0:00:00.00 369234 N 0 0 0
0:00:00.00 369508 N 0 0 0
0:00:00.00 369765 N 0 0 0
0:00:00.00 370037 N 0 0 0
0:00:00.00 370307 N 0 0 0
0:00:00.00 370568 N 0 0 0
0:00:00.00 370831 N 0 0 0
0:00:00.00 371090 N 0 0 0
0:00:00.00 371351 N 0 0 0
0:00:00.00 371606 N 0 0 0
0:00:00.00 371862 N 0 0 0
0:00:00.00 372125 N 0 0 0
0:00:00.00 372373 N 0 0 0
0:00:00.00 372623 N 0 0 0
0:00:00.00 372879 N 0 0 0
0:00:00.00 373133 N 0 0 0
0:00:00.00 373383 N 0 0 0
0:00:00.00 373633 N 0 0 0
0:00:00.00 373880 N 0 0 0
0:00:00.00 374132 N 0 0 0
0:00:00.00 374380 N 0 0 0
0:00:00.00 374632 N 0 0 0
0:00:00.00 374877 N 0 0 0
0:00:00.00 375134 N 0 0 0
0:00:00.00 375385 N 0 0 0
0:00:00.00 375635 N 0 0 0
0:00:00.00 375889 N 0 0 0
0:00:00.00 376150 N 0 0 0
0:00:00.00 376405 N 0 0 0
0:00:00.00 376663 N 0 0 0
0:00:00.00 376920 N 0 0 0
0:00:00.00 377181 N 0 0 0
0:00:00.00 377437 N 0 0 0
0:00:00.00 377696 N 0 0 0
0:00:00.00 377962 N 0 0 0
0:00:00.00 378223 N 0 0 0
0:00:00.00 378482 N 0 0 0
0:00:00.00 378749 N 0 0 0
0:00:00.00 379022 N 0 0 0
0:00:00.00 379289 N 0 0 0
0:00:00.00 379553 N 0 0 0
0:00:00.00 379816 N 0 0 0
0:00:00.00 380086 N 0 0 0
0:00:00.00 380353 N 0 0 0
0:00:00.00 380623 N 0 0 0
0:00:00.00 380887 N 0 0 0
0:00:00.00 381148 N 0 0 0
0:00:00.00 381411 N 0 0 0
0:00:00.00 381674 N 0 0 0
0:00:00.00 381949 N 0 0 0
0:00:00.00 382208 N 0 0 0
0:00:00.00 382469 N 0 0 0
0:00:00.00 382730 N 0 0 0
0:00:00.00 383006 N 0 0 0
0:00:00.00 383270 N 0 0 0
0:00:00.00 383531 N 0 0 0
0:00:00.00 383792 N 0 0 0
0:00:00.00 384055 N 0 0 0
0:00:00.00 384320 N 0 0 0
0:00:00.00 384586 N 0 0 0
0:00:00.00 384854 N 0 0 0
0:00:00.00 385119 N 0 0 0
0:00:00.00 385387 N 0 0 0
0:00:00.00 385654 N 0 0 0
0:00:00.00 385927 N 0 0 0
0:00:00.00 386188 N 0 0 0
0:00:00.00 386456 N 0 0 0
0:00:00.00 386721 N 0 0 0
0:00:00.00 386991 N 0 0 0
0:00:00.00 387261 N 0 0 0
0:00:00.00 387527 N 0 0 0
0:00:00.00 387799 N 0 0 0
0:00:00.00 388071 N 0 0 0
0:00:00.00 388339 N 0 0 0
0:00:00.00 388602 N 0 0 0
0:00:00.00 388870 N 0 0 0
0:00:00.00 389138 N 0 0 0
0:00:00.00 389399 N 0 0 0
0:00:00.00 389657 N 0 0 0
0:00:00.00 389921 N 0 0 0
0:00:00.00 390175 N 0 0 0
0:00:00.00 390431 N 0 0 0
0:00:00.00 390692 N 0 0 0
0:00:00.00 390958 N 0 0 0
0:00:00.00 391212 N 0 0 0
0:00:00.00 391468 N 0 0 0
0:00:00.00 391729 N 0 0 0
0:00:00.00 391991 N 0 0 0
0:00:00.00 392252 N 0 0 0
0:00:00.00 392510 N 0 0 0
0:00:00.00 392764 N 0 0 0
0:00:00.00 393017 N 0 0 0
0:00:00.00 393271 N 0 0 0
0:00:00.00 393525 N 0 0 0
0:00:00.00 393781 N 0 0 0
0:00:00.00 394031 N 0 0 0
0:00:00.00 394279 N 0 0 0
0:00:00.00 394529 N 0 0 0
0:00:00.00 394790 N 0 0 0
0:00:00.00 395048 N 0 0 0
0:00:00.00 395305 N 0 0 0
0:00:00.00 395550 N 0 0 0
0:00:00.00 395815 N 0 0 0
0:00:00.00 396072 N 0 0 0
0:00:00.00 396333 N 0 0 0
0:00:00.00 396605 N 0 0 0
0:00:00.00 396877 N 0 0 0
0:00:00.00 397145 N 0 0 0
0:00:00.00 397415 N 0 0 0
0:00:00.00 397699 N 0 0 0
0:00:00.00 397973 N 0 0 0
0:00:00.00 398248 N 0 0 0
0:00:00.00 398520 N 0 0 0
0:00:00.00 398804 N 0 0 0
0:00:00.00 399080 N 0 0 0
0:00:00.00 399359 N 0 0 0
0:00:00.00 399645 N 0 0 0
0:00:00.00 399920 N 0 0 0
0:00:00.00 400199 N 0 0 0
0:00:00.00 400469 N 0 0 0
0:00:00.00 400754 N 0 0 0
0:00:00.00 401031 N 0 0 0
0:00:00.00 401310 N 0 0 0
0:00:00.00 401582 N 0 0 0
0:00:00.00 401857 N 0 0 0
0:00:00.00 402133 N 0 0 0
0:00:00.00 402410 N 0 0 0
0:00:00.00 402694 N 0 0 0
0:00:00.00 402973 N 0 0 0
0:00:00.00 403241 N 0 0 0
0:00:00.00 403522 N 0 0 0
0:00:00.00 403808 N 0 0 0
0:00:00.00 404100 N 0 0 0
0:00:00.00 404390 N 0 0 0
0:00:00.00 404690 N 0 0 0
0:00:00.00 404987 N 0 0 0
0:00:00.00 405290 N 0 0 0
0:00:00.00 405598 N 0 0 0
0:00:00.00 405884 N 0 0 0
0:00:00.00 406165 N 0 0 0
0:00:00.00 406453 N 0 0 0
0:00:00.00 406730 N 0 0 0
0:00:00.00 407002 N 0 0 0
0:00:00.00 407264 N 0 0 0
0:00:00.00 407538 N 0 0 0
0:00:00.00 407803 N 0 0 0
0:00:00.00 408073 N 0 0 0
0:00:00.00 408344 N 0 0 0
0:00:00.00 408609 N 0 0 0
0:00:00.00 408874 N 0 0 0
0:00:00.00 409135 N 0 0 0
0:00:00.00 409408 N 0 0 0
0:00:00.00 409680 N 0 0 0
0:00:00.00 409948 N 0 0 0
0:00:00.00 410207 N 0 0 0
0:00:00.00 410483 N 0 0 0
0:00:00.00 410756 N 0 0 0
0:00:00.00 411030 N 0 0 0
0:00:00.00 411314 N 0 0 0
0:00:00.00 411599 N 0 0 0
0:00:00.00 411876 N 0 0 0
0:00:00.00 412151 N 0 0 0
0:00:00.00 412430 N 0 0 0
0:00:00.00 412706 N 0 0 0
0:00:00.00 412978 N 0 0 0
0:00:00.00 413248 N 0 0 0
0:00:00.00 413514 N 0 0 0
0:00:00.00 413780 N 0 0 0
0:00:00.00 414054 N 0 0 0
0:00:00.00 414326 N 0 0 0
0:00:00.00 414596 N 0 0 0
0:00:00.00 414862 N 0 0 0
0:00:00.00 415130 N 0 0 0
0:00:00.00 415402 N 0 0 0
0:00:00.00 415669 N 0 0 0
0:00:00.00 415937 N 0 0 0
0:00:00.00 416205 N 0 0 0
0:00:00.00 416477 N 0 0 0
0:00:00.00 416749 N 0 0 0
0:00:00.00 417031 N 0 0 0
0:00:00.00 417319 N 0 0 0
0:00:00.00 417605 N 0 0 0
0:00:00.00 417883 N 0 0 0
0:00:00.00 418171 N 0 0 0
0:00:00.00 418464 N 0 0 0
0:00:00.00 418748 N 0 0 0
0:00:00.00 419022 N 0 0 0
0:00:00.00 419310 N 0 0 0
0:00:00.00 419593 N 0 0 0
0:00:00.00 419881 N 0 0 0
0:00:00.00 420167 N 0 0 0
0:00:00.00 420455 N 0 0 0
0:00:00.00 420743 N 0 0 0
0:00:00.00 421027 N 0 0 0
0:00:00.00 421313 N 0 0 0
0:00:00.00 421598 N 0 0 0
0:00:00.00 421882 N 0 0 0
0:00:00.00 422163 N 0 0 0
0:00:00.00 422442 N 0 0 0
0:00:00.00 422726 N 0 0 0
0:00:00.00 423007 N 0 0 0
0:00:00.00 423297 N 0 0 0
0:00:00.00 423589 N 0 0 0
0:00:00.00 423878 N 0 0 0
0:00:00.00 424190 N 0 0 0
0:00:00.00 424487 N 0 0 0
0:00:00.00 424773 N 0 0 0
0:00:00.00 425057 N 0 0 0
0:00:00.00 425349 N 0 0 0
0:00:00.00 425641 N 0 0 0
0:00:00.00 425934 N 0 0 0
0:00:00.00 426235 N 0 0 0
0:00:00.00 426517 N 0 0 0
0:00:00.00 426794 N 0 0 0
0:00:00.00 427099 N 0 0 0
0:00:00.00 427405 N 0 0 0
0:00:00.00 427711 N 0 0 0
0:00:00.00 428000 N 0 0 0
0:00:00.00 428292 N 0 0 0
0:00:00.00 428578 N 0 0 0
0:00:00.00 428859 N 0 0 0
0:00:00.00 429142 N 0 0 0
0:00:00.00 429424 N 0 0 0
0:00:00.00 429707 N 0 0 0
0:00:00.00 429991 N 0 0 0
0:00:00.00 430276 N 0 0 0
0:00:00.00 430562 N 0 0 0
0:00:00.00 430834 N 0 0 0
0:00:00.00 431118 N 0 0 0
0:00:00.00 431399 N 0 0 0
0:00:00.00 431685 N 0 0 0
0:00:00.00 431966 N 0 0 0
0:00:00.00 432250 N 0 0 0
0:00:00.00 432529 N 0 0 0
0:00:00.00 432808 N 0 0 0
0:00:00.00 433085 N 0 0 0
0:00:00.00 433355 N 0 0 0
0:00:00.00 433627 N 0 0 0
0:00:00.00 433888 N 0 0 0
0:00:00.00 434149 N 0 0 0
0:00:00.00 434412 N 0 0 0
0:00:00.00 434677 N 0 0 0
0:00:00.00 434939 N 0 0 0
0:00:00.00 435200 N 0 0 0
0:00:00.00 435456 N 0 0 0
0:00:00.00 435712 N 0 0 0
0:00:00.00 435973 N 0 0 0
0:00:00.00 436230 N 0 0 0
0:00:00.00 436484 N 0 0 0
0:00:00.00 436736 N 0 0 0
0:00:00.00 436993 N 0 0 0
0:00:00.00 437251 N 0 0 0
0:00:00.00 437506 N 0 0 0
0:00:00.00 437758 N 0 0 0
0:00:00.00 438023 N 0 0 0
0:00:00.00 438278 N 0 0 0
0:00:00.00 438538 N 0 0 0
0:00:00.00 438795 N 0 0 0
0:00:00.00 439069 N 0 0 0
0:00:00.00 439328 N 0 0 0
0:00:00.00 439596 N 0 0 0
0:00:00.00 439857 N 0 0 0
0:00:00.00 440129 N 0 0 0
0:00:00.00 440397 N 0 0 0
0:00:00.00 440669 N 0 0 0
0:00:00.00 440941 N 0 0 0
0:00:00.00 441203 N 0 0 0
0:00:00.00 441475 N 0 0 0
0:00:00.00 441738 N 0 0 0
0:00:00.00 442012 N 0 0 0
0:00:00.00 442280 N 0 0 0
0:00:00.00 442550 N 0 0 0
0:00:00.00 442816 N 0 0 0
0:00:00.00 443081 N 0 0 0
0:00:00.00 443347 N 0 0 0
0:00:00.00 443614 N 0 0 0
0:00:00.00 443893 N 0 0 0
0:00:00.00 444159 N 0 0 0
0:00:00.00 444427 N 0 0 0
0:00:00.00 444695 N 0 0 0
0:00:00.00 444973 N 0 0 0
0:00:00.00 445244 N 0 0 0
0:00:00.00 445509 N 0 0 0
0:00:00.00 445792 N 0 0 0
0:00:00.00 446067 N 0 0 0
0:00:00.00 446341 N 0 0 0
0:00:00.00 446623 N 0 0 0
0:00:00.00 446915 N 0 0 0
0:00:00.00 447197 N 0 0 0
0:00:00.00 447480 N 0 0 0
0:00:00.00 447781 N 0 0 0
0:00:00.00 448067 N 0 0 0
0:00:00.00 448360 N 0 0 0
0:00:00.00 448652 N 0 0 0
0:00:00.00 448949 N 0 0 0
0:00:00.00 449240 N 0 0 0
0:00:00.00 449532 N 0 0 0
0:00:00.00 449834 N 0 0 0
0:00:00.00 450130 N 0 0 0
0:00:00.00 450427 N 0 0 0
0:00:00.00 450727 N 0 0 0
0:00:00.00 451012 N 0 0 0
0:00:00.00 451291 N 0 0 0
0:00:00.00 451564 N 0 0 0
0:00:00.00 451841 N 0 0 0
0:00:00.00 452113 N 0 0 0
0:00:00.00 452385 N 0 0 0
0:00:00.00 452668 N 0 0 0
0:00:00.00 452943 N 0 0 0
0:00:00.00 453206 N 0 0 0
0:00:00.00 453476 N 0 0 0
0:00:00.00 453748 N 0 0 0
0:00:00.00 454016 N 0 0 0
0:00:00.00 454280 N 0 0 0
0:00:00.00 454541 N 0 0 0
0:00:00.00 454801 N 0 0 0
0:00:00.00 455060 N 0 0 0
0:00:00.00 455326 N 0 0 0
0:00:00.00 455591 N 0 0 0
0:00:00.00 455848 N 0 0 0
0:00:00.00 456111 N 0 0 0
0:00:00.00 456374 N 0 0 0
0:00:00.00 456644 N 0 0 0
0:00:00.00 456908 N 0 0 0
0:00:00.00 457177 N 0 0 0
0:00:00.00 457445 N 0 0 0
0:00:00.00 457720 N 0 0 0
0:00:00.00 457994 N 0 0 0
0:00:00.00 458273 N 0 0 0
0:00:00.00 458555 N 0 0 0
0:00:00.00 458833 N 0 0 0
0:00:00.00 459101 N 0 0 0
0:00:00.00 459369 N 0 0 0
0:00:00.00 459644 N 0 0 0
0:00:00.00 459916 N 0 0 0
0:00:00.00 460179 N 0 0 0
0:00:00.00 460449 N 0 0 0
0:00:00.00 460717 N 0 0 0
0:00:00.00 460982 N 0 0 0
0:00:00.00 461255 N 0 0 0
0:00:00.00 461533 N 0 0 0
0:00:00.00 461795 N 0 0 0
0:00:00.00 462071 N 0 0 0
0:00:00.00 462352 N 0 0 0
0:00:00.00 462634 N 0 0 0
0:00:00.00 462920 N 0 0 0
0:00:00.00 463203 N 0 0 0
0:00:00.00 463484 N 0 0 0
0:00:00.00 463750 N 0 0 0
0:00:00.00 464024 N 0 0 0
0:00:00.00 464296 N 0 0 0
0:00:00.00 464566 N 0 0 0
0:00:00.00 464828 N 0 0 0
0:00:00.00 465091 N 0 0 0
0:00:00.00 465358 N 0 0 0
0:00:00.00 465620 N 0 0 0
0:00:00.00 465881 N 0 0 0
0:00:00.00 466139 N 0 0 0
0:00:00.00 466407 N 0 0 0
0:00:00.00 466664 N 0 0 0
0:00:00.00 466920 N 0 0 0
0:00:00.00 467181 N 0 0 0
0:00:00.00 467449 N 0 0 0
0:00:00.00 467710 N 0 0 0
0:00:00.00 467969 N 0 0 0
0:00:00.00 468232 N 0 0 0
0:00:00.00 468500 N 0 0 0
0:00:00.00 468763 N 0 0 0
0:00:00.00 469022 N 0 0 0
0:00:00.00 469283 N 0 0 0
0:00:00.00 469539 N 0 0 0
0:00:00.00 469802 N 0 0 0
0:00:00.00 470065 N 0 0 0
0:00:00.00 470331 N 0 0 0
0:00:00.00 470588 N 0 0 0
0:00:00.00 470851 N 0 0 0
0:00:00.00 471116 N 0 0 0
0:00:00.00 471384 N 0 0 0
0:00:00.00 471645 N 0 0 0
0:00:00.00 471908 N 0 0 0
0:00:00.00 472163 N 0 0 0
0:00:00.00 472426 N 0 0 0
0:00:00.00 472685 N 0 0 0
0:00:00.00 472943 N 0 0 0
0:00:00.00 473209 N 0 0 0
0:00:00.00 473470 N 0 0 0
0:00:00.00 473726 N 0 0 0
0:00:00.00 473980 N 0 0 0
0:00:00.00 474246 N 0 0 0
0:00:00.00 474507 N 0 0 0
0:00:00.00 474770 N 0 0 0
0:00:00.00 475025 N 0 0 0
0:00:00.00 475288 N 0 0 0
0:00:00.00 475546 N 0 0 0
0:00:00.00 475810 N 0 0 0
0:00:00.00 476077 N 0 0 0
0:00:00.00 476348 N 0 0 0
0:00:00.00 476608 N 0 0 0
0:00:00.00 476870 N 0 0 0
0:00:00.00 477137 N 0 0 0
0:00:00.00 477405 N 0 0 0
0:00:00.00 477670 N 0 0 0
0:00:00.00 477931 N 0 0 0
0:00:00.00 478193 N 0 0 0
0:00:00.00 478456 N 0 0 0
0:00:00.00 478721 N 0 0 0
0:00:00.00 478982 N 0 0 0
0:00:00.00 479250 N 0 0 0
0:00:00.00 479509 N 0 0 0
0:00:00.00 479767 N 0 0 0
0:00:00.00 480026 N 0 0 0
0:00:00.00 480299 N 0 0 0
0:00:00.00 480560 N 0 0 0
0:00:00.00 480816 N 0 0 0
0:00:00.00 481072 N 0 0 0
0:00:00.00 481331 N 0 0 0
0:00:00.00 481586 N 0 0 0
0:00:00.00 481842 N 0 0 0
0:00:00.00 482101 N 0 0 0
0:00:00.00 482353 N 0 0 0
0:00:00.00 482600 N 0 0 0
0:00:00.00 482852 N 0 0 0
0:00:00.00 483111 N 0 0 0
0:00:00.00 483361 N 0 0 0
0:00:00.00 483611 N 0 0 0
0:00:00.00 483853 N 0 0 0
0:00:00.00 484105 N 0 0 0
0:00:00.00 484348 N 0 0 0
0:00:00.00 484596 N 0 0 0
0:00:00.00 484841 N 0 0 0
0:00:00.00 485086 N 0 0 0
0:00:00.00 485329 N 0 0 0
0:00:00.00 485572 N 0 0 0
0:00:00.00 485809 N 0 0 0
0:00:00.00 486052 N 0 0 0
0:00:00.00 486288 N 0 0 0
0:00:00.00 486533 N 0 0 0
0:00:00.00 486763 N 0 0 0
0:00:00.00 487006 N 0 0 0
0:00:00.00 487237 N 0 0 0
0:00:00.00 487480 N 0 0 0
0:00:00.00 487717 N 0 0 0
0:00:00.00 487960 N 0 0 0
0:00:00.00 488200 N 0 0 0
0:00:00.00 488428 N 0 0 0
0:00:00.00 488666 N 0 0 0
0:00:00.00 488911 N 0 0 0
0:00:00.00 489148 N 0 0 0
0:00:00.00 489380 N 0 0 0
0:00:00.00 489607 N 0 0 0
0:00:00.00 489843 N 0 0 0
0:00:00.00 490081 N 0 0 0
0:00:00.00 490311 N 0 0 0
0:00:00.00 490545 N 0 0 0
0:00:00.00 490775 N 0 0 0
0:00:00.00 491020 N 0 0 0
0:00:00.00 491254 N 0 0 0
0:00:00.00 491494 N 0 0 0
0:00:00.00 491733 N 0 0 0
0:00:00.00 491980 N 0 0 0
0:00:00.00 492217 N 0 0 0
0:00:00.00 492462 N 0 0 0
0:00:00.00 492698 N 0 0 0
0:00:00.00 492944 N 0 0 0
0:00:00.00 493189 N 0 0 0
0:00:00.00 493436 N 0 0 0
0:00:00.00 493684 N 0 0 0
0:00:00.00 493942 N 0 0 0
0:00:00.00 494192 N 0 0 0
0:00:00.00 494449 N 0 0 0
0:00:00.00 494707 N 0 0 0
0:00:00.00 494969 N 0 0 0
0:00:00.00 495232 N 0 0 0
0:00:00.00 495490 N 0 0 0
0:00:00.00 495758 N 0 0 0
0:00:00.00 496019 N 0 0 0
0:00:00.00 496283 N 0 0 0
0:00:00.00 496550 N 0 0 0
0:00:00.00 496825 N 0 0 0
0:00:00.00 497088 N 0 0 0
0:00:00.00 497353 N 0 0 0
0:00:00.00 497621 N 0 0 0
0:00:00.00 497887 N 0 0 0
0:00:00.00 498155 N 0 0 0
0:00:00.00 498422 N 0 0 0
0:00:00.00 498694 N 0 0 0
0:00:00.00 498958 N 0 0 0
0:00:00.00 499235 N 0 0 0
0:00:00.00 499513 N 0 0 0
0:00:00.00 499792 N 0 0 0
0:00:00.00 500063 N 0 0 0
0:00:00.00 500339 N 0 0 0
0:00:00.00 500625 N 0 0 0
0:00:00.00 500900 N 0 0 0
0:00:00.00 501172 N 0 0 0
0:00:00.00 501439 N 0 0 0
0:00:00.00 501712 N 0 0 0
0:00:00.00 501980 N 0 0 0
0:00:00.00 502238 N 0 0 0
0:00:00.00 502502 N 0 0 0
0:00:00.00 502769 N 0 0 0
0:00:00.00 503030 N 0 0 0
0:00:00.00 503287 N 0 0 0
0:00:00.00 503548 N 0 0 0
0:00:00.00 503811 N 0 0 0
0:00:00.00 504070 N 0 0 0
0:00:00.00 504326 N 0 0 0
0:00:00.00 504590 N 0 0 0
0:00:00.00 504844 N 0 0 0
0:00:00.00 505102 N 0 0 0
0:00:00.00 505364 N 0 0 0
0:00:00.00 505627 N 0 0 0
0:00:00.00 505885 N 0 0 0
0:00:00.00 506135 N 0 0 0
0:00:00.00 506387 N 0 0 0
0:00:00.00 506644 N 0 0 0
0:00:00.00 506894 N 0 0 0
0:00:00.00 507150 N 0 0 0
0:00:00.00 507404 N 0 0 0
0:00:00.00 507667 N 0 0 0
0:00:00.00 507924 N 0 0 0
0:00:00.00 508189 N 0 0 0
0:00:00.00 508459 N 0 0 0
0:00:00.00 508734 N 0 0 0
0:00:00.00 509000 N 0 0 0
0:00:00.00 509263 N 0 0 0
0:00:00.00 509537 N 0 0 0
0:00:00.00 509803 N 0 0 0
0:00:00.00 510070 N 0 0 0
0:00:00.00 510327 N 0 0 0
0:00:00.00 510595 N 0 0 0
0:00:00.00 510856 N 0 0 0
0:00:00.00 511119 N 0 0 0
0:00:00.00 511387 N 0 0 0
0:00:00.00 511657 N 0 0 0
0:00:00.00 511922 N 0 0 0
0:00:00.00 512194 N 0 0 0
0:00:00.00 512476 N 0 0 0
0:00:00.00 512748 N 0 0 0
0:00:00.00 513027 N 0 0 0
0:00:00.00 513293 N 0 0 0
0:00:00.00 513569 N 0 0 0
0:00:00.00 513837 N 0 0 0
0:00:00.00 514109 N 0 0 0
0:00:00.00 514382 N 0 0 0
0:00:00.00 514652 N 0 0 0
0:00:00.00 514922 N 0 0 0
0:00:00.00 515189 N 0 0 0
0:00:00.00 515468 N 0 0 0
0:00:00.00 515732 N 0 0 0
0:00:00.00 516001 N 0 0 0
0:00:00.00 516262 N 0 0 0
0:00:00.00 516537 N 0 0 0
0:00:00.00 516809 N 0 0 0
0:00:00.00 517077 N 0 0 0
0:00:00.00 517351 N 0 0 0
0:00:00.00 517624 N 0 0 0
0:00:00.00 517892 N 0 0 0
0:00:00.00 518159 N 0 0 0
0:00:00.00 518436 N 0 0 0
0:00:00.00 518706 N 0 0 0
0:00:00.00 518983 N 0 0 0
0:00:00.00 519260 N 0 0 0
0:00:00.00 519536 N 0 0 0
0:00:00.00 519813 N 0 0 0
0:00:00.00 520099 N 0 0 0
0:00:00.00 520384 N 0 0 0
0:00:00.00 520664 N 0 0 0
0:00:00.00 520934 N 0 0 0
0:00:00.00 521201 N 0 0 0
0:00:00.00 521473 N 0 0 0
0:00:00.00 521737 N 0 0 0
0:00:00.00 522000 N 0 0 0
0:00:00.00 522256 N 0 0 0
0:00:00.00 522515 N 0 0 0
0:00:00.00 522765 N 0 0 0
0:00:00.00 523019 N 0 0 0
0:00:00.00 523276 N 0 0 0
0:00:00.00 523528 N 0 0 0
0:00:00.00 523769 N 0 0 0
0:00:00.00 524016 N 0 0 0
0:00:00.00 524268 N 0 0 0
0:00:00.00 524515 N 0 0 0
0:00:00.00 524756 N 0 0 0
0:00:00.00 525002 N 0 0 0
0:00:00.00 525253 N 0 0 0
0:00:00.00 525501 N 0 0 0
0:00:00.00 525748 N 0 0 0
0:00:00.00 525998 N 0 0 0
0:00:00.00 526255 N 0 0 0
0:00:00.00 526505 N 0 0 0
0:00:00.00 526759 N 0 0 0
0:00:00.00 527008 N 0 0 0
0:00:00.00 527267 N 0 0 0
0:00:00.00 527517 N 0 0 0
0:00:00.00 527778 N 0 0 0
0:00:00.00 528028 N 0 0 0
0:00:00.00 528295 N 0 0 0
0:00:00.00 528556 N 0 0 0
0:00:00.00 528818 N 0 0 0
0:00:00.00 529081 N 0 0 0
0:00:00.00 529351 N 0 0 0
0:00:00.00 529616 N 0 0 0
0:00:00.00 529879 N 0 0 0
0:00:00.00 530149 N 0 0 0
0:00:00.00 530417 N 0 0 0
0:00:00.00 530685 N 0 0 0
0:00:00.00 530944 N 0 0 0
0:00:00.00 531220 N 0 0 0
0:00:00.00 531477 N 0 0 0
0:00:00.00 531742 N 0 0 0
0:00:00.00 532010 N 0 0 0
0:00:00.00 532280 N 0 0 0
0:00:00.00 532544 N 0 0 0
0:00:00.00 532811 N 0 0 0
0:00:00.00 533081 N 0 0 0
0:00:00.00 533347 N 0 0 0
0:00:00.00 533617 N 0 0 0
0:00:00.00 533882 N 0 0 0
0:00:00.00 534155 N 0 0 0
0:00:00.00 534418 N 0 0 0
0:00:00.00 534683 N 0 0 0
0:00:00.00 534949 N 0 0 0
0:00:00.00 535223 N 0 0 0
0:00:00.00 535491 N 0 0 0
0:00:00.00 535754 N 0 0 0
0:00:00.00 536029 N 0 0 0
0:00:00.00 536303 N 0 0 0
0:00:00.00 536585 N 0 0 0
0:00:00.00 536855 N 0 0 0
0:00:00.00 537136 N 0 0 0
0:00:00.00 537410 N 0 0 0
0:00:00.00 537683 N 0 0 0
0:00:00.00 537962 N 0 0 0
0:00:00.00 538231 N 0 0 0
0:00:00.00 538499 N 0 0 0
0:00:00.00 538765 N 0 0 0
0:00:00.00 539037 N 0 0 0
0:00:00.00 539302 N 0 0 0
0:00:00.00 539572 N 0 0 0
0:00:00.00 539840 N 0 0 0
0:00:00.00 540097 N 0 0 0
0:00:00.00 540362 N 0 0 0
0:00:00.00 540628 N 0 0 0
0:00:00.00 540896 N 0 0 0
0:00:00.00 541150 N 0 0 0
0:00:00.00 541408 N 0 0 0
0:00:00.00 541665 N 0 0 0
0:00:00.00 541930 N 0 0 0
0:00:00.00 542189 N 0 0 0
0:00:00.00 542446 N 0 0 0
0:00:00.00 542702 N 0 0 0
0:00:00.00 542959 N 0 0 0
0:00:00.00 543222 N 0 0 0
0:00:00.00 543481 N 0 0 0
0:00:00.00 543746 N 0 0 0
0:00:00.00 544010 N 0 0 0
0:00:00.00 544273 N 0 0 0
0:00:00.00 544531 N 0 0 0
0:00:00.00 544802 N 0 0 0
0:00:00.00 545062 N 0 0 0
0:00:00.00 545323 N 0 0 0
0:00:00.00 545575 N 0 0 0
0:00:00.00 545837 N 0 0 0
0:00:00.00 546091 N 0 0 0
0:00:00.00 546347 N 0 0 0
0:00:00.00 546606 N 0 0 0
0:00:00.00 546869 N 0 0 0
0:00:00.00 547123 N 0 0 0
0:00:00.00 547382 N 0 0 0
0:00:00.00 547643 N 0 0 0
0:00:00.00 547900 N 0 0 0
0:00:00.00 548161 N 0 0 0
0:00:00.00 548415 N 0 0 0
0:00:00.00 548671 N 0 0 0
0:00:00.00 548923 N 0 0 0
0:00:00.00 549173 N 0 0 0
0:00:00.00 549430 N 0 0 0
0:00:00.00 549684 N 0 0 0
0:00:00.00 549940 N 0 0 0
0:00:00.00 550193 N 0 0 0
0:00:00.00 550447 N 0 0 0
0:00:00.00 550712 N 0 0 0
0:00:00.00 550980 N 0 0 0
0:00:00.00 551245 N 0 0 0
0:00:00.00 551506 N 0 0 0
0:00:00.00 551772 N 0 0 0
0:00:00.00 552040 N 0 0 0
0:00:00.00 552312 N 0 0 0
0:00:00.00 552602 N 0 0 0
0:00:00.00 552881 N 0 0 0
0:00:00.00 553160 N 0 0 0
0:00:00.00 553442 N 0 0 0
0:00:00.00 553730 N 0 0 0
0:00:00.00 554006 N 0 0 0
0:00:00.00 554290 N 0 0 0
0:00:00.00 554569 N 0 0 0
0:00:00.00 554852 N 0 0 0
0:00:00.00 555134 N 0 0 0
0:00:00.00 555419 N 0 0 0
0:00:00.00 555705 N 0 0 0
0:00:00.00 555980 N 0 0 0
0:00:00.00 556258 N 0 0 0
0:00:00.00 556533 N 0 0 0
0:00:00.00 556817 N 0 0 0
0:00:00.00 557095 N 0 0 0
0:00:00.00 557366 N 0 0 0
0:00:00.00 557651 N 0 0 0
0:00:00.00 557935 N 0 0 0
0:00:00.00 558223 N 0 0 0
0:00:00.00 558504 N 0 0 0
0:00:00.00 558783 N 0 0 0
0:00:00.00 559067 N 0 0 0
0:00:00.00 559359 N 0 0 0
0:00:00.00 559674 N 0 0 0
0:00:00.00 559982 N 0 0 0
0:00:00.00 560282 N 0 0 0
0:00:00.00 560592 N 0 0 0
0:00:00.00 560880 N 0 0 0
0:00:00.00 561172 N 0 0 0
0:00:00.00 561467 N 0 0 0
0:00:00.00 561755 N 0 0 0
0:00:00.00 562037 N 0 0 0
0:00:00.00 562316 N 0 0 0
0:00:00.00 562606 N 0 0 0
0:00:00.00 562896 N 0 0 0
0:00:00.00 563191 N 0 0 0
0:00:00.00 563488 N 0 0 0
0:00:00.00 563782 N 0 0 0
0:00:00.00 564079 N 0 0 0
0:00:00.00 564372 N 0 0 0
0:00:00.00 564660 N 0 0 0
0:00:00.00 564941 N 0 0 0
0:00:00.00 565214 N 0 0 0
0:00:00.00 565499 N 0 0 0
0:00:00.00 565774 N 0 0 0
0:00:00.00 566051 N 0 0 0
0:00:00.00 566325 N 0 0 0
0:00:00.00 566595 N 0 0 0
0:00:00.00 566856 N 0 0 0
0:00:00.00 567122 N 0 0 0
0:00:00.00 567394 N 0 0 0
0:00:00.00 567657 N 0 0 0
0:00:00.00 567916 N 0 0 0
0:00:00.00 568174 N 0 0 0
0:00:00.00 568445 N 0 0 0
0:00:00.00 568706 N 0 0 0
0:00:00.00 568973 N 0 0 0
0:00:00.00 569227 N 0 0 0
0:00:00.00 569486 N 0 0 0
0:00:00.00 569749 N 0 0 0
0:00:00.00 570011 N 0 0 0
0:00:00.00 570276 N 0 0 0
0:00:00.00 570539 N 0 0 0
0:00:00.00 570803 N 0 0 0
0:00:00.00 571072 N 0 0 0
0:00:00.00 571345 N 0 0 0
0:00:00.00 571606 N 0 0 0
0:00:00.00 571867 N 0 0 0
0:00:00.00 572123 N 0 0 0
0:00:00.00 572387 N 0 0 0
0:00:00.00 572645 N 0 0 0
0:00:00.00 572899 N 0 0 0
0:00:00.00 573160 N 0 0 0
0:00:00.00 573422 N 0 0 0
0:00:00.00 573678 N 0 0 0
0:00:00.00 573932 N 0 0 0
0:00:00.00 574193 N 0 0 0
0:00:00.00 574448 N 0 0 0
0:00:00.00 574702 N 0 0 0
0:00:00.00 574951 N 0 0 0
0:00:00.00 575204 N 0 0 0
0:00:00.00 575451 N 0 0 0
0:00:00.00 575696 N 0 0 0
0:00:00.00 575944 N 0 0 0
0:00:00.00 576194 N 0 0 0
0:00:00.00 576437 N 0 0 0
0:00:00.00 576680 N 0 0 0
0:00:00.00 576922 N 0 0 0
0:00:00.00 577172 N 0 0 0
0:00:00.00 577415 N 0 0 0
0:00:00.00 577663 N 0 0 0
0:00:00.00 577901 N 0 0 0
0:00:00.00 578147 N 0 0 0
0:00:00.00 578390 N 0 0 0
0:00:00.00 578635 N 0 0 0
0:00:00.00 578882 N 0 0 0
0:00:00.00 579132 N 0 0 0
0:00:00.00 579382 N 0 0 0
0:00:00.00 579634 N 0 0 0
0:00:00.00 579890 N 0 0 0
0:00:00.00 580156 N 0 0 0
0:00:00.00 580415 N 0 0 0
0:00:00.00 580671 N 0 0 0
0:00:00.00 580930 N 0 0 0
0:00:00.00 581195 N 0 0 0
0:00:00.00 581449 N 0 0 0
0:00:00.00 581702 N 0 0 0
0:00:00.00 581963 N 0 0 0
0:00:00.00 582224 N 0 0 0
0:00:00.00 582478 N 0 0 0
0:00:00.00 582734 N 0 0 0
0:00:00.00 582991 N 0 0 0
0:00:00.00 583245 N 0 0 0
0:00:00.00 583499 N 0 0 0
0:00:00.00 583749 N 0 0 0
0:00:00.00 584005 N 0 0 0
0:00:00.00 584246 N 0 0 0
0:00:00.00 584496 N 0 0 0
0:00:00.00 584744 N 0 0 0
0:00:00.00 584996 N 0 0 0
0:00:00.00 585243 N 0 0 0
0:00:00.00 585486 N 0 0 0
0:00:00.00 585731 N 0 0 0
0:00:00.00 585986 N 0 0 0
0:00:00.00 586231 N 0 0 0
0:00:00.00 586480 N 0 0 0
0:00:00.00 586715 N 0 0 0
0:00:00.00 586971 N 0 0 0
0:00:00.00 587218 N 0 0 0
0:00:00.00 587468 N 0 0 0
0:00:00.00 587716 N 0 0 0
0:00:00.00 587970 N 0 0 0
0:00:00.00 588218 N 0 0 0
0:00:00.00 588467 N 0 0 0
0:00:00.00 588717 N 0 0 0
0:00:00.00 588973 N 0 0 0
0:00:00.00 589217 N 0 0 0
0:00:00.00 589471 N 0 0 0
0:00:00.00 589716 N 0 0 0
0:00:00.00 589970 N 0 0 0
0:00:00.00 590215 N 0 0 0
0:00:00.00 590459 N 0 0 0
0:00:00.00 590711 N 0 0 0
0:00:00.00 590963 N 0 0 0
0:00:00.00 591214 N 0 0 0
0:00:00.00 591466 N 0 0 0
0:00:00.00 591716 N 0 0 0
0:00:00.00 591979 N 0 0 0
0:00:00.00 592236 N 0 0 0
0:00:00.00 592492 N 0 0 0
0:00:00.00 592740 N 0 0 0
0:00:00.00 592992 N 0 0 0
0:00:00.00 593244 N 0 0 0
0:00:00.00 593494 N 0 0 0
0:00:00.00 593748 N 0 0 0
0:00:00.00 594000 N 0 0 0
0:00:00.00 594247 N 0 0 0
0:00:00.00 594491 N 0 0 0
0:00:00.00 594743 N 0 0 0
0:00:00.00 594995 N 0 0 0
0:00:00.00 595244 N 0 0 0
0:00:00.00 595485 N 0 0 0
0:00:00.00 595735 N 0 0 0
0:00:00.00 595984 N 0 0 0
0:00:00.00 596227 N 0 0 0
0:00:00.00 596473 N 0 0 0
0:00:00.00 596727 N 0 0 0
0:00:00.00 596972 N 0 0 0
0:00:00.00 597217 N 0 0 0
0:00:00.00 597467 N 0 0 0
0:00:00.00 597719 N 0 0 0
0:00:00.00 597971 N 0 0 0
0:00:00.00 598221 N 0 0 0
0:00:00.00 598468 N 0 0 0
0:00:00.00 598720 N 0 0 0
0:00:00.00 598972 N 0 0 0
0:00:00.00 599227 N 0 0 0
0:00:00.00 599488 N 0 0 0
0:00:00.00 599751 N 0 0 0
0:00:00.00 600016 N 0 0 0
0:00:00.00 600275 N 0 0 0
0:00:00.00 600534 N 0 0 0
0:00:00.00 600804 N 0 0 0
0:00:00.00 601063 N 0 0 0
0:00:00.00 601321 N 0 0 0
0:00:00.00 601573 N 0 0 0
0:00:00.00 601832 N 0 0 0
0:00:00.00 602080 N 0 0 0
0:00:00.00 602332 N 0 0 0
0:00:00.00 602586 N 0 0 0
0:00:00.00 602842 N 0 0 0
0:00:00.00 603090 N 0 0 0
0:00:00.00 603342 N 0 0 0
0:00:00.00 603603 N 0 0 0
0:00:00.00 603860 N 0 0 0
0:00:00.00 604123 N 0 0 0
0:00:00.00 604381 N 0 0 0
0:00:00.00 604642 N 0 0 0
0:00:00.00 604899 N 0 0 0
0:00:00.00 605155 N 0 0 0
0:00:00.00 605412 N 0 0 0
0:00:00.00 605671 N 0 0 0
0:00:00.00 605925 N 0 0 0
0:00:00.00 606184 N 0 0 0
0:00:00.00 606440 N 0 0 0
0:00:00.00 606708 N 0 0 0
0:00:00.00 606969 N 0 0 0
0:00:00.00 607234 N 0 0 0
0:00:00.00 607500 N 0 0 0
0:00:00.00 607777 N 0 0 0
0:00:00.00 608045 N 0 0 0
0:00:00.00 608317 N 0 0 0
0:00:00.00 608602 N 0 0 0
0:00:00.00 608872 N 0 0 0
0:00:00.00 609142 N 0 0 0
0:00:00.00 609410 N 0 0 0
0:00:00.00 609683 N 0 0 0
0:00:00.00 609948 N 0 0 0
0:00:00.00 610211 N 0 0 0
0:00:00.00 610474 N 0 0 0
0:00:00.00 610733 N 0 0 0
0:00:00.00 610996 N 0 0 0
0:00:00.00 611273 N 0 0 0
0:00:00.00 611573 N 0 0 0
0:00:00.00 611874 N 0 0 0
0:00:00.00 612173 N 0 0 0
0:00:00.00 612477 N 0 0 0
0:00:00.00 612776 N 0 0 0
0:00:00.00 613064 N 0 0 0
0:00:00.00 613348 N 0 0 0
0:00:00.00 613638 N 0 0 0
0:00:00.00 613931 N 0 0 0
0:00:00.00 614209 N 0 0 0
0:00:00.00 614497 N 0 0 0
0:00:00.00 614779 N 0 0 0
0:00:00.00 615060 N 0 0 0
0:00:00.00 615346 N 0 0 0
0:00:00.00 615627 N 0 0 0
0:00:00.00 615910 N 0 0 0
0:00:00.00 616181 N 0 0 0
0:00:00.00 616457 N 0 0 0
0:00:00.00 616723 N 0 0 0
0:00:00.00 616993 N 0 0 0
0:00:00.00 617267 N 0 0 0
0:00:00.00 617539 N 0 0 0
0:00:00.00 617800 N 0 0 0
0:00:00.00 618061 N 0 0 0
0:00:00.00 618334 N 0 0 0
0:00:00.00 618595 N 0 0 0
0:00:00.00 618862 N 0 0 0
0:00:00.00 619114 N 0 0 0
0:00:00.00 619376 N 0 0 0
0:00:00.00 619637 N 0 0 0
0:00:00.00 619897 N 0 0 0
0:00:00.00 620161 N 0 0 0
0:00:00.00 620417 N 0 0 0
0:00:00.00 620674 N 0 0 0
0:00:00.00 620928 N 0 0 0
0:00:00.00 621191 N 0 0 0
0:00:00.00 621452 N 0 0 0
0:00:00.00 621715 N 0 0 0
0:00:00.00 621961 N 0 0 0
0:00:00.00 622224 N 0 0 0
0:00:00.00 622478 N 0 0 0
0:00:00.00 622732 N 0 0 0
0:00:00.00 622987 N 0 0 0
0:00:00.00 623243 N 0 0 0
0:00:00.00 623493 N 0 0 0
0:00:00.00 623741 N 0 0 0
0:00:00.00 623997 N 0 0 0
0:00:00.00 624256 N 0 0 0
0:00:00.00 624505 N 0 0 0
0:00:00.00 624757 N 0 0 0
0:00:00.00 625009 N 0 0 0
0:00:00.00 625266 N 0 0 0
0:00:00.00 625523 N 0 0 0
0:00:00.00 625792 N 0 0 0
0:00:00.00 626060 N 0 0 0
0:00:00.00 626326 N 0 0 0
0:00:00.00 626593 N 0 0 0
0:00:00.00 626863 N 0 0 0
0:00:00.00 627143 N 0 0 0
0:00:00.00 627412 N 0 0 0
0:00:00.00 627682 N 0 0 0
0:00:00.00 627948 N 0 0 0
0:00:00.00 628220 N 0 0 0
0:00:00.00 628488 N 0 0 0
0:00:00.00 628756 N 0 0 0
0:00:00.00 629030 N 0 0 0
0:00:00.00 629300 N 0 0 0
0:00:00.00 629566 N 0 0 0
0:00:00.00 629831 N 0 0 0
0:00:00.00 630103 N 0 0 0
0:00:00.00 630364 N 0 0 0
0:00:00.00 630625 N 0 0 0
0:00:00.00 630880 N 0 0 0
0:00:00.00 631145 N 0 0 0
0:00:00.00 631399 N 0 0 0
0:00:00.00 631651 N 0 0 0
0:00:00.00 631912 N 0 0 0
0:00:00.00 632167 N 0 0 0
0:00:00.00 632416 N 0 0 0
0:00:00.00 632671 N 0 0 0
0:00:00.00 632923 N 0 0 0
0:00:00.00 633182 N 0 0 0
0:00:00.00 633436 N 0 0 0
0:00:00.00 633688 N 0 0 0
0:00:00.00 633946 N 0 0 0
0:00:00.00 634196 N 0 0 0
0:00:00.00 634448 N 0 0 0
0:00:00.00 634705 N 0 0 0
0:00:00.00 634961 N 0 0 0
0:00:00.00 635213 N 0 0 0
0:00:00.00 635463 N 0 0 0
0:00:00.00 635704 N 0 0 0
0:00:00.00 635962 N 0 0 0
0:00:00.00 636210 N 0 0 0
0:00:00.00 636460 N 0 0 0
0:00:00.00 636700 N 0 0 0
0:00:00.00 636950 N 0 0 0
0:00:00.00 637198 N 0 0 0
0:00:00.00 637450 N 0 0 0
0:00:00.00 637702 N 0 0 0
0:00:00.00 637963 N 0 0 0
0:00:00.00 638212 N 0 0 0
0:00:00.00 638462 N 0 0 0
0:00:00.00 638714 N 0 0 0
0:00:00.00 638977 N 0 0 0
0:00:00.00 639229 N 0 0 0
0:00:00.00 639484 N 0 0 0
0:00:00.00 639729 N 0 0 0
0:00:00.00 639979 N 0 0 0
0:00:00.00 640228 N 0 0 0
0:00:00.00 640476 N 0 0 0
0:00:00.00 640726 N 0 0 0
0:00:00.00 640973 N 0 0 0
0:00:00.00 641216 N 0 0 0
0:00:00.00 641461 N 0 0 0
0:00:00.00 641707 N 0 0 0
0:00:00.00 641959 N 0 0 0
0:00:00.00 642208 N 0 0 0
0:00:00.00 642452 N 0 0 0
0:00:00.00 642699 N 0 0 0
0:00:00.00 642953 N 0 0 0
0:00:00.00 643207 N 0 0 0
0:00:00.00 643459 N 0 0 0
0:00:00.00 643716 N 0 0 0
0:00:00.00 643979 N 0 0 0
0:00:00.00 644236 N 0 0 0
0:00:00.00 644494 N 0 0 0
0:00:00.00 644762 N 0 0 0
0:00:00.00 645019 N 0 0 0
0:00:00.00 645275 N 0 0 0
0:00:00.00 645529 N 0 0 0
0:00:00.00 645793 N 0 0 0
0:00:00.00 646049 N 0 0 0
0:00:00.00 646303 N 0 0 0
0:00:00.00 646556 N 0 0 0
0:00:00.00 646821 N 0 0 0
0:00:00.00 647073 N 0 0 0
0:00:00.00 647330 N 0 0 0
0:00:00.00 647590 N 0 0 0
0:00:00.00 647851 N 0 0 0
0:00:00.00 648104 N 0 0 0
0:00:00.00 648362 N 0 0 0
0:00:00.00 648612 N 0 0 0
0:00:00.00 648871 N 0 0 0
0:00:00.00 649129 N 0 0 0
0:00:00.00 649384 N 0 0 0
0:00:00.00 649645 N 0 0 0
0:00:00.00 649906 N 0 0 0
