0:00:00.00 71 N 0 0 0
0:00:00.00 551 N 0 0 0
0:00:00.00 1022 N 0 0 0
0:00:00.00 1499 N 0 0 0
0:00:00.00 1927 N 0 0 0
0:00:00.00 2341 N 0 0 0
0:00:00.00 2823 N 0 0 0
0:00:00.00 3260 N 0 0 0
0:00:00.00 3668 N 0 0 0
0:00:00.00 4155 N 0 0 0
0:00:00.00 4631 N 0 0 0
0:00:00.00 5072 N 0 0 0
0:00:00.00 5595 N 0 0 0
0:00:00.00 6074 N 0 0 0
0:00:00.00 6512 N 0 0 0
0:00:00.00 6992 N 0 0 0
0:00:00.00 7475 N 0 0 0
0:00:00.00 7922 N 0 0 0
0:00:00.00 8410 N 0 0 0
0:00:00.00 8893 N 0 0 0
0:00:00.00 9327 N 0 0 0
0:00:00.00 9794 N 0 0 0
0:00:00.00 10275 N 0 0 0
0:00:00.00 10714 N 0 0 0
0:00:00.00 11199 N 0 0 0
0:00:00.00 11682 N 0 0 0
0:00:00.00 12146 N 0 0 0
0:00:00.00 12636 N 0 0 0
0:00:00.00 13115 N 0 0 0
0:00:00.00 13531 N 0 0 0
0:00:00.00 13993 N 0 0 0
0:00:00.00 14439 N 0 0 0
0:00:00.00 14849 N 0 0 0
0:00:00.00 15277 N 0 0 0
0:00:00.00 15722 N 0 0 0
0:00:00.00 16113 N 0 0 0
0:00:00.00 16514 N 0 0 0
0:00:00.00 16949 N 0 0 0
0:00:00.00 17353 N 0 0 0
0:00:00.00 17740 N 0 0 0
0:00:00.00 18195 N 0 0 0
0:00:00.00 18621 N 0 0 0
0:00:00.00 19027 N 0 0 0
0:00:00.00 19494 N 0 0 0
0:00:00.00 19916 N 0 0 0
0:00:00.00 20319 N 0 0 0
0:00:00.00 20755 N 0 0 0
0:00:00.00 21166 N 0 0 0
0:00:00.00 21555 N 0 0 0
0:00:00.00 22002 N 0 0 0
0:00:00.00 22458 N 0 0 0
0:00:00.00 22875 N 0 0 0
0:00:00.00 23323 N 0 0 0
0:00:00.00 23760 N 0 0 0
0:00:00.00 24176 N 0 0 0
0:00:00.00 24619 N 0 0 0
0:00:00.00 25063 N 0 0 0
0:00:00.00 25466 N 0 0 0
0:00:00.00 25915 N 0 0 0
0:00:00.00 26351 N 0 0 0
0:00:00.00 26747 N 0 0 0
0:00:00.00 27121 N 0 0 0
0:00:00.00 27477 N 0 0 0
0:00:00.00 27842 N 0 0 0
0:00:00.00 28201 N 0 0 0
0:00:00.00 28542 N 0 0 0
0:00:00.00 28910 N 0 0 0
0:00:00.00 29290 N 0 0 0
0:00:00.00 29660 N 0 0 0
0:00:00.00 30067 N 0 0 0
0:00:00.00 30546 N 0 0 0
0:00:00.00 31002 N 0 0 0
0:00:00.00 31472 N 0 0 0
0:00:00.00 31935 N 0 0 0
0:00:00.00 32366 N 0 0 0
0:00:00.00 32801 N 0 0 0
0:00:00.00 33258 N 0 0 0
0:00:00.00 33675 N 0 0 0
0:00:00.00 34102 N 0 0 0
0:00:00.00 34547 N 0 0 0
0:00:00.00 34954 N 0 0 0
0:00:00.00 35375 N 0 0 0
0:00:00.00 35878 N 0 0 0
0:00:00.00 36306 N 0 0 0
0:00:00.00 36713 N 0 0 0
0:00:00.00 37219 N 0 0 0
0:00:00.00 37644 N 0 0 0
0:00:00.00 38033 N 0 0 0
0:00:00.00 38395 N 0 0 0
0:00:00.00 38745 N 0 0 0
0:00:00.00 39106 N 0 0 0
0:00:00.00 39481 N 0 0 0
0:00:00.00 39846 N 0 0 0
0:00:00.00 40227 N 0 0 0
0:00:00.00 40626 N 0 0 0
0:00:00.00 41020 N 0 0 0
0:00:00.00 41513 N 0 0 0
0:00:00.00 42011 N 0 0 0
0:00:00.00 42493 N 0 0 0
0:00:00.00 42986 N 0 0 0
0:00:00.00 43421 N 0 0 0
0:00:00.00 43865 N 0 0 0
0:00:00.00 44332 N 0 0 0
0:00:00.00 44752 N 0 0 0
0:00:00.00 45143 N 0 0 0
0:00:00.00 45561 N 0 0 0
0:00:00.00 46009 N 0 0 0
0:00:00.00 46431 N 0 0 0
0:00:00.00 46876 N 0 0 0
0:00:00.00 47333 N 0 0 0
0:00:00.00 47701 N 0 0 0
0:00:00.00 48067 N 0 0 0
0:00:00.00 48434 N 0 0 0
0:00:00.00 48814 N 0 0 0
0:00:00.00 49340 N 0 0 0
0:00:00.00 49808 N 0 0 0
0:00:00.00 50289 N 0 0 0
0:00:00.00 50767 N 0 0 0
0:00:00.00 51213 N 0 0 0
0:00:00.00 51684 N 0 0 0
0:00:00.00 52163 N 0 0 0
0:00:00.00 52588 N 0 0 0
0:00:00.00 53079 N 0 0 0
0:00:00.00 53547 N 0 0 0
0:00:00.00 53961 N 0 0 0
0:00:00.00 54400 N 0 0 0
0:00:00.00 54869 N 0 0 0
0:00:00.00 55298 N 0 0 0
0:00:00.00 55716 N 0 0 0
0:00:00.00 56186 N 0 0 0
0:00:00.00 56567 N 0 0 0
0:00:00.00 56948 N 0 0 0
0:00:00.00 57344 N 0 0 0
0:00:00.00 57763 N 0 0 0
0:00:00.00 58306 N 0 0 0
0:00:00.00 58810 N 0 0 0
0:00:00.00 59268 N 0 0 0
0:00:00.00 59748 N 0 0 0
0:00:00.00 60203 N 0 0 0
0:00:00.00 60640 N 0 0 0
0:00:00.00 61110 N 0 0 0
0:00:00.00 61539 N 0 0 0
0:00:00.00 61937 N 0 0 0
0:00:00.00 62360 N 0 0 0
0:00:00.00 62774 N 0 0 0
0:00:00.00 63169 N 0 0 0
0:00:00.00 63568 N 0 0 0
0:00:00.00 64064 N 0 0 0
0:00:00.00 64538 N 0 0 0
0:00:00.00 64940 N 0 0 0
0:00:00.00 65418 N 0 0 0
0:00:00.00 65873 N 0 0 0
0:00:00.00 66257 N 0 0 0
0:00:00.00 66622 N 0 0 0
0:00:00.00 66991 N 0 0 0
0:00:00.00 67347 N 0 0 0
0:00:00.00 67718 N 0 0 0
0:00:00.00 68230 N 0 0 0
0:00:00.00 68706 N 0 0 0
0:00:00.00 69207 N 0 0 0
0:00:00.00 69680 N 0 0 0
0:00:00.00 70153 N 0 0 0
0:00:00.00 70651 N 0 0 0
0:00:00.00 71095 N 0 0 0
0:00:00.00 71531 N 0 0 0
0:00:00.00 72011 N 0 0 0
0:00:00.00 72464 N 0 0 0
0:00:00.00 72887 N 0 0 0
0:00:00.00 73329 N 0 0 0
0:00:00.00 73743 N 0 0 0
0:00:00.00 74136 N 0 0 0
0:00:00.00 74600 N 0 0 0
0:00:00.00 75009 N 0 0 0
0:00:00.00 75379 N 0 0 0
0:00:00.00 75760 N 0 0 0
0:00:00.00 76130 N 0 0 0
0:00:00.00 76635 N 0 0 0
0:00:00.00 77110 N 0 0 0
0:00:00.00 77578 N 0 0 0
0:00:00.00 78073 N 0 0 0
0:00:00.00 78530 N 0 0 0
0:00:00.00 78985 N 0 0 0
0:00:00.00 79431 N 0 0 0
0:00:00.00 79839 N 0 0 0
0:00:00.00 80300 N 0 0 0
0:00:00.00 80729 N 0 0 0
0:00:00.00 81139 N 0 0 0
0:00:00.00 81559 N 0 0 0
0:00:00.00 82011 N 0 0 0
0:00:00.00 82406 N 0 0 0
0:00:00.00 82804 N 0 0 0
0:00:00.00 83173 N 0 0 0
0:00:00.00 83527 N 0 0 0
0:00:00.00 83905 N 0 0 0
0:00:00.00 84268 N 0 0 0
0:00:00.00 84655 N 0 0 0
0:00:00.00 85146 N 0 0 0
0:00:00.00 85615 N 0 0 0
0:00:00.00 86106 N 0 0 0
0:00:00.00 86591 N 0 0 0
0:00:00.00 87026 N 0 0 0
0:00:00.00 87456 N 0 0 0
0:00:00.00 87922 N 0 0 0
0:00:00.00 88348 N 0 0 0
0:00:00.00 88781 N 0 0 0
0:00:00.00 89229 N 0 0 0
0:00:00.00 89654 N 0 0 0
0:00:00.00 90070 N 0 0 0
0:00:00.00 90544 N 0 0 0
0:00:00.00 90976 N 0 0 0
0:00:00.00 91384 N 0 0 0
0:00:00.00 91829 N 0 0 0
0:00:00.00 92287 N 0 0 0
0:00:00.00 92701 N 0 0 0
0:00:00.00 93194 N 0 0 0
0:00:00.00 93629 N 0 0 0
0:00:00.00 94039 N 0 0 0
0:00:00.00 94492 N 0 0 0
0:00:00.00 94941 N 0 0 0
0:00:00.00 95348 N 0 0 0
0:00:00.00 95800 N 0 0 0
0:00:00.00 96245 N 0 0 0
0:00:00.00 96653 N 0 0 0
0:00:00.00 97106 N 0 0 0
0:00:00.00 97506 N 0 0 0
0:00:00.00 97883 N 0 0 0
0:00:00.00 98252 N 0 0 0
0:00:00.00 98607 N 0 0 0
0:00:00.00 98972 N 0 0 0
0:00:00.00 99326 N 0 0 0
0:00:00.00 99687 N 0 0 0
0:00:00.00 100048 N 0 0 0
0:00:00.00 100411 N 0 0 0
0:00:00.00 100917 N 0 0 0
0:00:00.00 101375 N 0 0 0
0:00:00.00 101843 N 0 0 0
0:00:00.00 102339 N 0 0 0
0:00:00.00 102793 N 0 0 0
0:00:00.00 103271 N 0 0 0
0:00:00.00 103769 N 0 0 0
0:00:00.00 104212 N 0 0 0
0:00:00.00 104663 N 0 0 0
0:00:00.00 105121 N 0 0 0
0:00:00.00 105543 N 0 0 0
0:00:00.00 105989 N 0 0 0
0:00:00.00 106468 N 0 0 0
0:00:00.00 106908 N 0 0 0
0:00:00.00 107363 N 0 0 0
0:00:00.00 107842 N 0 0 0
0:00:00.00 108287 N 0 0 0
0:00:00.00 108743 N 0 0 0
0:00:00.00 109232 N 0 0 0
0:00:00.00 109662 N 0 0 0
0:00:00.00 110131 N 0 0 0
0:00:00.00 110593 N 0 0 0
0:00:00.00 111015 N 0 0 0
0:00:00.00 111465 N 0 0 0
0:00:00.00 111889 N 0 0 0
0:00:00.00 112253 N 0 0 0
0:00:00.00 112612 N 0 0 0
0:00:00.00 112980 N 0 0 0
0:00:00.00 113337 N 0 0 0
0:00:00.00 113753 N 0 0 0
0:00:00.00 114279 N 0 0 0
0:00:00.00 114761 N 0 0 0
0:00:00.00 115242 N 0 0 0
0:00:00.00 115700 N 0 0 0
0:00:00.00 116157 N 0 0 0
0:00:00.00 116636 N 0 0 0
0:00:00.00 117079 N 0 0 0
0:00:00.00 117521 N 0 0 0
0:00:00.00 117976 N 0 0 0
0:00:00.00 118393 N 0 0 0
0:00:00.00 118852 N 0 0 0
0:00:00.00 119323 N 0 0 0
0:00:00.00 119746 N 0 0 0
0:00:00.00 120208 N 0 0 0
0:00:00.00 120664 N 0 0 0
0:00:00.00 121086 N 0 0 0
0:00:00.00 121558 N 0 0 0
0:00:00.00 122020 N 0 0 0
0:00:00.00 122441 N 0 0 0
0:00:00.00 122873 N 0 0 0
0:00:00.00 123262 N 0 0 0
0:00:00.00 123618 N 0 0 0
0:00:00.00 123989 N 0 0 0
0:00:00.00 124356 N 0 0 0
0:00:00.00 124744 N 0 0 0
0:00:00.00 125285 N 0 0 0
0:00:00.00 125776 N 0 0 0
0:00:00.00 126260 N 0 0 0
0:00:00.00 126752 N 0 0 0
0:00:00.00 127193 N 0 0 0
0:00:00.00 127678 N 0 0 0
0:00:00.00 128148 N 0 0 0
0:00:00.00 128577 N 0 0 0
0:00:00.00 129026 N 0 0 0
0:00:00.00 129484 N 0 0 0
0:00:00.00 129907 N 0 0 0
0:00:00.00 130311 N 0 0 0
0:00:00.00 130759 N 0 0 0
0:00:00.00 131188 N 0 0 0
0:00:00.00 131588 N 0 0 0
0:00:00.00 132016 N 0 0 0
0:00:00.00 132406 N 0 0 0
0:00:00.00 132829 N 0 0 0
0:00:00.00 133282 N 0 0 0
0:00:00.00 133709 N 0 0 0
0:00:00.00 134163 N 0 0 0
0:00:00.00 134616 N 0 0 0
0:00:00.00 135031 N 0 0 0
0:00:00.00 135471 N 0 0 0
0:00:00.00 135875 N 0 0 0
0:00:00.00 136302 N 0 0 0
0:00:00.00 136753 N 0 0 0
0:00:00.00 137171 N 0 0 0
0:00:00.00 137589 N 0 0 0
0:00:00.00 138012 N 0 0 0
0:00:00.00 138375 N 0 0 0
0:00:00.00 138730 N 0 0 0
0:00:00.00 139096 N 0 0 0
0:00:00.00 139456 N 0 0 0
0:00:00.00 139838 N 0 0 0
0:00:00.00 140319 N 0 0 0
0:00:00.00 140795 N 0 0 0
0:00:00.00 141234 N 0 0 0
0:00:00.00 141737 N 0 0 0
0:00:00.00 142190 N 0 0 0
0:00:00.00 142656 N 0 0 0
0:00:00.00 143114 N 0 0 0
0:00:00.00 143528 N 0 0 0
0:00:00.00 143975 N 0 0 0
0:00:00.00 144417 N 0 0 0
0:00:00.00 144825 N 0 0 0
0:00:00.00 145276 N 0 0 0
0:00:00.00 145721 N 0 0 0
0:00:00.00 146105 N 0 0 0
0:00:00.00 146534 N 0 0 0
0:00:00.00 146973 N 0 0 0
0:00:00.00 147374 N 0 0 0
0:00:00.00 147760 N 0 0 0
0:00:00.00 148159 N 0 0 0
0:00:00.00 148510 N 0 0 0
0:00:00.00 148867 N 0 0 0
0:00:00.00 149233 N 0 0 0
0:00:00.00 149595 N 0 0 0
0:00:00.00 149993 N 0 0 0
0:00:00.00 150458 N 0 0 0
0:00:00.00 150910 N 0 0 0
0:00:00.00 151368 N 0 0 0
0:00:00.00 151851 N 0 0 0
0:00:00.00 152284 N 0 0 0
0:00:00.00 152739 N 0 0 0
0:00:00.00 153140 N 0 0 0
0:00:00.00 153556 N 0 0 0
0:00:00.00 153966 N 0 0 0
0:00:00.00 154398 N 0 0 0
0:00:00.00 154793 N 0 0 0
0:00:00.00 155195 N 0 0 0
0:00:00.00 155624 N 0 0 0
0:00:00.00 156036 N 0 0 0
0:00:00.00 156443 N 0 0 0
0:00:00.00 156871 N 0 0 0
0:00:00.00 157235 N 0 0 0
0:00:00.00 157599 N 0 0 0
0:00:00.00 157965 N 0 0 0
0:00:00.00 158318 N 0 0 0
0:00:00.00 158696 N 0 0 0
0:00:00.00 159138 N 0 0 0
0:00:00.00 159590 N 0 0 0
0:00:00.00 160011 N 0 0 0
0:00:00.00 160448 N 0 0 0
0:00:00.00 160867 N 0 0 0
0:00:00.00 161297 N 0 0 0
0:00:00.00 161669 N 0 0 0
0:00:00.00 162032 N 0 0 0
0:00:00.00 162397 N 0 0 0
0:00:00.00 162742 N 0 0 0
0:00:00.00 163074 N 0 0 0
0:00:00.00 163425 N 0 0 0
0:00:00.00 163818 N 0 0 0
0:00:00.00 164196 N 0 0 0
0:00:00.00 164564 N 0 0 0
0:00:00.00 164965 N 0 0 0
0:00:00.00 165392 N 0 0 0
0:00:00.00 165879 N 0 0 0
0:00:00.00 166335 N 0 0 0
0:00:00.00 166815 N 0 0 0
0:00:00.00 167278 N 0 0 0
0:00:00.00 167720 N 0 0 0
0:00:00.00 168192 N 0 0 0
0:00:00.00 168631 N 0 0 0
0:00:00.00 169053 N 0 0 0
0:00:00.00 169500 N 0 0 0
0:00:00.00 169908 N 0 0 0
0:00:00.00 170279 N 0 0 0
0:00:00.00 170643 N 0 0 0
0:00:00.00 170988 N 0 0 0
0:00:00.00 171338 N 0 0 0
0:00:00.00 171707 N 0 0 0
0:00:00.00 172121 N 0 0 0
0:00:00.00 172537 N 0 0 0
0:00:00.00 172986 N 0 0 0
0:00:00.00 173437 N 0 0 0
0:00:00.00 173855 N 0 0 0
0:00:00.00 174284 N 0 0 0
0:00:00.00 174698 N 0 0 0
0:00:00.00 175074 N 0 0 0
0:00:00.00 175447 N 0 0 0
0:00:00.00 175802 N 0 0 0
0:00:00.00 176149 N 0 0 0
0:00:00.00 176499 N 0 0 0
0:00:00.00 176843 N 0 0 0
0:00:00.00 177188 N 0 0 0
0:00:00.00 177564 N 0 0 0
0:00:00.00 178036 N 0 0 0
0:00:00.00 178514 N 0 0 0
0:00:00.00 179016 N 0 0 0
0:00:00.00 179489 N 0 0 0
0:00:00.00 179929 N 0 0 0
0:00:00.00 180403 N 0 0 0
0:00:00.00 180907 N 0 0 0
0:00:00.00 181338 N 0 0 0
0:00:00.00 181813 N 0 0 0
0:00:00.00 182301 N 0 0 0
0:00:00.00 182721 N 0 0 0
0:00:00.00 183170 N 0 0 0
0:00:00.00 183629 N 0 0 0
0:00:00.00 184040 N 0 0 0
0:00:00.00 184448 N 0 0 0
0:00:00.00 184822 N 0 0 0
0:00:00.00 185197 N 0 0 0
0:00:00.00 185565 N 0 0 0
0:00:00.00 185938 N 0 0 0
0:00:00.00 186351 N 0 0 0
0:00:00.00 186843 N 0 0 0
0:00:00.00 187325 N 0 0 0
0:00:00.00 187810 N 0 0 0
0:00:00.00 188265 N 0 0 0
0:00:00.00 188715 N 0 0 0
0:00:00.00 189184 N 0 0 0
0:00:00.00 189642 N 0 0 0
0:00:00.00 190075 N 0 0 0
0:00:00.00 190539 N 0 0 0
0:00:00.00 190958 N 0 0 0
0:00:00.00 191380 N 0 0 0
0:00:00.00 191821 N 0 0 0
0:00:00.00 192229 N 0 0 0
0:00:00.00 192653 N 0 0 0
0:00:00.00 193094 N 0 0 0
0:00:00.00 193500 N 0 0 0
0:00:00.00 193894 N 0 0 0
0:00:00.00 194255 N 0 0 0
0:00:00.00 194612 N 0 0 0
0:00:00.00 194974 N 0 0 0
0:00:00.00 195320 N 0 0 0
0:00:00.00 195684 N 0 0 0
0:00:00.00 196086 N 0 0 0
0:00:00.00 196508 N 0 0 0
0:00:00.00 197035 N 0 0 0
0:00:00.00 197511 N 0 0 0
0:00:00.00 197949 N 0 0 0
0:00:00.00 198341 N 0 0 0
0:00:00.00 198717 N 0 0 0
0:00:00.00 199082 N 0 0 0
0:00:00.00 199433 N 0 0 0
0:00:00.00 199776 N 0 0 0
0:00:00.00 200109 N 0 0 0
0:00:00.00 200458 N 0 0 0
0:00:00.00 200801 N 0 0 0
0:00:00.00 201141 N 0 0 0
0:00:00.00 201495 N 0 0 0
0:00:00.00 201867 N 0 0 0
0:00:00.00 202248 N 0 0 0
0:00:00.00 202645 N 0 0 0
0:00:00.00 203022 N 0 0 0
0:00:00.00 203412 N 0 0 0
0:00:00.00 203830 N 0 0 0
0:00:00.00 204288 N 0 0 0
0:00:00.00 204755 N 0 0 0
0:00:00.00 205256 N 0 0 0
0:00:00.00 205710 N 0 0 0
0:00:00.00 206175 N 0 0 0
0:00:00.00 206670 N 0 0 0
0:00:00.00 207112 N 0 0 0
0:00:00.00 207532 N 0 0 0
0:00:00.00 207968 N 0 0 0
0:00:00.00 208349 N 0 0 0
0:00:00.00 208717 N 0 0 0
0:00:00.00 209094 N 0 0 0
0:00:00.00 209467 N 0 0 0
0:00:00.00 209929 N 0 0 0
0:00:00.00 210474 N 0 0 0
0:00:00.00 210991 N 0 0 0
0:00:00.00 211509 N 0 0 0
0:00:00.00 211983 N 0 0 0
0:00:00.00 212457 N 0 0 0
0:00:00.00 212954 N 0 0 0
0:00:00.00 213398 N 0 0 0
0:00:00.00 213855 N 0 0 0
0:00:00.00 214283 N 0 0 0
0:00:00.00 214702 N 0 0 0
0:00:00.00 215154 N 0 0 0
0:00:00.00 215567 N 0 0 0
0:00:00.00 215936 N 0 0 0
0:00:00.00 216309 N 0 0 0
0:00:00.00 216698 N 0 0 0
0:00:00.00 217141 N 0 0 0
0:00:00.00 217659 N 0 0 0
0:00:00.00 218129 N 0 0 0
0:00:00.00 218627 N 0 0 0
0:00:00.00 219080 N 0 0 0
0:00:00.00 219523 N 0 0 0
0:00:00.00 219999 N 0 0 0
0:00:00.00 220452 N 0 0 0
0:00:00.00 220853 N 0 0 0
0:00:00.00 221243 N 0 0 0
0:00:00.00 221607 N 0 0 0
0:00:00.00 221974 N 0 0 0
0:00:00.00 222360 N 0 0 0
0:00:00.00 222860 N 0 0 0
0:00:00.00 223321 N 0 0 0
0:00:00.00 223802 N 0 0 0
0:00:00.00 224285 N 0 0 0
0:00:00.00 224735 N 0 0 0
0:00:00.00 225181 N 0 0 0
0:00:00.00 225598 N 0 0 0
0:00:00.00 226051 N 0 0 0
0:00:00.00 226512 N 0 0 0
0:00:00.00 226940 N 0 0 0
0:00:00.00 227397 N 0 0 0
0:00:00.00 227848 N 0 0 0
0:00:00.00 228274 N 0 0 0
0:00:00.00 228711 N 0 0 0
0:00:00.00 229138 N 0 0 0
0:00:00.00 229557 N 0 0 0
0:00:00.00 230010 N 0 0 0
0:00:00.00 230426 N 0 0 0
0:00:00.00 230840 N 0 0 0
0:00:00.00 231313 N 0 0 0
0:00:00.00 231722 N 0 0 0
0:00:00.00 232149 N 0 0 0
0:00:00.00 232616 N 0 0 0
0:00:00.00 233030 N 0 0 0
0:00:00.00 233457 N 0 0 0
0:00:00.00 233906 N 0 0 0
0:00:00.00 234338 N 0 0 0
0:00:00.00 234754 N 0 0 0
0:00:00.00 235216 N 0 0 0
0:00:00.00 235655 N 0 0 0
0:00:00.00 236060 N 0 0 0
0:00:00.00 236506 N 0 0 0
0:00:00.00 236954 N 0 0 0
0:00:00.00 237358 N 0 0 0
0:00:00.00 237813 N 0 0 0
0:00:00.00 238262 N 0 0 0
0:00:00.00 238669 N 0 0 0
0:00:00.00 239101 N 0 0 0
0:00:00.00 239546 N 0 0 0
0:00:00.00 239957 N 0 0 0
0:00:00.00 240379 N 0 0 0
0:00:00.00 240763 N 0 0 0
0:00:00.00 241139 N 0 0 0
0:00:00.00 241495 N 0 0 0
0:00:00.00 241849 N 0 0 0
0:00:00.00 242196 N 0 0 0
0:00:00.00 242557 N 0 0 0
0:00:00.00 242937 N 0 0 0
0:00:00.00 243432 N 0 0 0
0:00:00.00 243920 N 0 0 0
0:00:00.00 244409 N 0 0 0
0:00:00.00 244846 N 0 0 0
0:00:00.00 245288 N 0 0 0
0:00:00.00 245765 N 0 0 0
0:00:00.00 246200 N 0 0 0
0:00:00.00 246638 N 0 0 0
0:00:00.00 247108 N 0 0 0
0:00:00.00 247530 N 0 0 0
0:00:00.00 247997 N 0 0 0
0:00:00.00 248486 N 0 0 0
0:00:00.00 248896 N 0 0 0
0:00:00.00 249358 N 0 0 0
0:00:00.00 249827 N 0 0 0
0:00:00.00 250245 N 0 0 0
0:00:00.00 250703 N 0 0 0
0:00:00.00 251192 N 0 0 0
0:00:00.00 251616 N 0 0 0
0:00:00.00 252078 N 0 0 0
0:00:00.00 252518 N 0 0 0
0:00:00.00 252938 N 0 0 0
0:00:00.00 253382 N 0 0 0
0:00:00.00 253816 N 0 0 0
0:00:00.00 254222 N 0 0 0
0:00:00.00 254667 N 0 0 0
0:00:00.00 255109 N 0 0 0
0:00:00.00 255518 N 0 0 0
0:00:00.00 255981 N 0 0 0
0:00:00.00 256431 N 0 0 0
0:00:00.00 256841 N 0 0 0
0:00:00.00 257273 N 0 0 0
0:00:00.00 257739 N 0 0 0
0:00:00.00 258157 N 0 0 0
0:00:00.00 258620 N 0 0 0
0:00:00.00 259061 N 0 0 0
0:00:00.00 259470 N 0 0 0
0:00:00.00 259923 N 0 0 0
0:00:00.00 260339 N 0 0 0
0:00:00.00 260739 N 0 0 0
0:00:00.00 261169 N 0 0 0
0:00:00.00 261571 N 0 0 0
0:00:00.00 261959 N 0 0 0
0:00:00.00 262384 N 0 0 0
0:00:00.00 262796 N 0 0 0
0:00:00.00 263205 N 0 0 0
0:00:00.00 263643 N 0 0 0
0:00:00.00 264077 N 0 0 0
0:00:00.00 264484 N 0 0 0
0:00:00.00 264948 N 0 0 0
0:00:00.00 265399 N 0 0 0
0:00:00.00 265823 N 0 0 0
0:00:00.00 266298 N 0 0 0
0:00:00.00 266757 N 0 0 0
0:00:00.00 267168 N 0 0 0
0:00:00.00 267618 N 0 0 0
0:00:00.00 268049 N 0 0 0
0:00:00.00 268454 N 0 0 0
0:00:00.00 268892 N 0 0 0
0:00:00.00 269324 N 0 0 0
0:00:00.00 269726 N 0 0 0
0:00:00.00 270168 N 0 0 0
0:00:00.00 270653 N 0 0 0
0:00:00.00 271068 N 0 0 0
0:00:00.00 271509 N 0 0 0
0:00:00.00 271963 N 0 0 0
0:00:00.00 272393 N 0 0 0
0:00:00.00 272794 N 0 0 0
0:00:00.00 273250 N 0 0 0
0:00:00.00 273675 N 0 0 0
0:00:00.00 274028 N 0 0 0
0:00:00.00 274395 N 0 0 0
0:00:00.00 274738 N 0 0 0
0:00:00.00 275077 N 0 0 0
0:00:00.00 275428 N 0 0 0
0:00:00.00 275786 N 0 0 0
0:00:00.00 276264 N 0 0 0
0:00:00.00 276649 N 0 0 0
0:00:00.00 277035 N 0 0 0
0:00:00.00 277432 N 0 0 0
0:00:00.00 277880 N 0 0 0
0:00:00.00 278337 N 0 0 0
0:00:00.00 278765 N 0 0 0
0:00:00.00 279218 N 0 0 0
0:00:00.00 279656 N 0 0 0
0:00:00.00 280082 N 0 0 0
0:00:00.00 280522 N 0 0 0
0:00:00.00 280984 N 0 0 0
0:00:00.00 281402 N 0 0 0
0:00:00.00 281893 N 0 0 0
0:00:00.00 282386 N 0 0 0
0:00:00.00 282840 N 0 0 0
0:00:00.00 283330 N 0 0 0
0:00:00.00 283802 N 0 0 0
0:00:00.00 284265 N 0 0 0
0:00:00.00 284739 N 0 0 0
0:00:00.00 285202 N 0 0 0
0:00:00.00 285663 N 0 0 0
0:00:00.00 286102 N 0 0 0
0:00:00.00 286574 N 0 0 0
0:00:00.00 287012 N 0 0 0
0:00:00.00 287483 N 0 0 0
0:00:00.00 287950 N 0 0 0
0:00:00.00 288382 N 0 0 0
0:00:00.00 288814 N 0 0 0
0:00:00.00 289276 N 0 0 0
0:00:00.00 289685 N 0 0 0
0:00:00.00 290084 N 0 0 0
0:00:00.00 290474 N 0 0 0
0:00:00.00 290823 N 0 0 0
0:00:00.00 291179 N 0 0 0
0:00:00.00 291530 N 0 0 0
0:00:00.00 291874 N 0 0 0
0:00:00.00 292251 N 0 0 0
0:00:00.00 292782 N 0 0 0
0:00:00.00 293284 N 0 0 0
0:00:00.00 293796 N 0 0 0
0:00:00.00 294274 N 0 0 0
0:00:00.00 294719 N 0 0 0
0:00:00.00 295185 N 0 0 0
0:00:00.00 295633 N 0 0 0
0:00:00.00 296071 N 0 0 0
0:00:00.00 296527 N 0 0 0
0:00:00.00 296956 N 0 0 0
0:00:00.00 297384 N 0 0 0
0:00:00.00 297868 N 0 0 0
0:00:00.00 298300 N 0 0 0
0:00:00.00 298780 N 0 0 0
0:00:00.00 299258 N 0 0 0
0:00:00.00 299710 N 0 0 0
0:00:00.00 300158 N 0 0 0
0:00:00.00 300626 N 0 0 0
0:00:00.00 301051 N 0 0 0
0:00:00.00 301524 N 0 0 0
0:00:00.00 301977 N 0 0 0
0:00:00.00 302388 N 0 0 0
0:00:00.00 302829 N 0 0 0
0:00:00.00 303276 N 0 0 0
0:00:00.00 303676 N 0 0 0
0:00:00.00 304114 N 0 0 0
0:00:00.00 304553 N 0 0 0
0:00:00.00 304966 N 0 0 0
0:00:00.00 305433 N 0 0 0
0:00:00.00 305895 N 0 0 0
0:00:00.00 306332 N 0 0 0
0:00:00.00 306786 N 0 0 0
0:00:00.00 307256 N 0 0 0
0:00:00.00 307677 N 0 0 0
0:00:00.00 308115 N 0 0 0
0:00:00.00 308547 N 0 0 0
0:00:00.00 308957 N 0 0 0
0:00:00.00 309355 N 0 0 0
0:00:00.00 309806 N 0 0 0
0:00:00.00 310267 N 0 0 0
0:00:00.00 310686 N 0 0 0
0:00:00.00 311062 N 0 0 0
0:00:00.00 311414 N 0 0 0
0:00:00.00 311774 N 0 0 0
0:00:00.00 312151 N 0 0 0
0:00:00.00 312593 N 0 0 0
0:00:00.00 313003 N 0 0 0
0:00:00.00 313473 N 0 0 0
0:00:00.00 313946 N 0 0 0
0:00:00.00 314340 N 0 0 0
0:00:00.00 314759 N 0 0 0
0:00:00.00 315176 N 0 0 0
0:00:00.00 315565 N 0 0 0
0:00:00.00 315977 N 0 0 0
0:00:00.00 316402 N 0 0 0
0:00:00.00 316803 N 0 0 0
0:00:00.00 317253 N 0 0 0
0:00:00.00 317693 N 0 0 0
0:00:00.00 318094 N 0 0 0
0:00:00.00 318559 N 0 0 0
0:00:00.00 319015 N 0 0 0
0:00:00.00 319432 N 0 0 0
0:00:00.00 319882 N 0 0 0
0:00:00.00 320334 N 0 0 0
0:00:00.00 320744 N 0 0 0
0:00:00.00 321210 N 0 0 0
0:00:00.00 321649 N 0 0 0
0:00:00.00 322079 N 0 0 0
0:00:00.00 322531 N 0 0 0
0:00:00.00 322975 N 0 0 0
0:00:00.00 323399 N 0 0 0
0:00:00.00 323894 N 0 0 0
0:00:00.00 324344 N 0 0 0
0:00:00.00 324815 N 0 0 0
0:00:00.00 325284 N 0 0 0
0:00:00.00 325724 N 0 0 0
0:00:00.00 326151 N 0 0 0
0:00:00.00 326646 N 0 0 0
0:00:00.00 327096 N 0 0 0
0:00:00.00 327508 N 0 0 0
0:00:00.00 327985 N 0 0 0
0:00:00.00 328448 N 0 0 0
0:00:00.00 328868 N 0 0 0
0:00:00.00 329321 N 0 0 0
0:00:00.00 329757 N 0 0 0
0:00:00.00 330148 N 0 0 0
0:00:00.00 330579 N 0 0 0
0:00:00.00 331007 N 0 0 0
0:00:00.00 331414 N 0 0 0
0:00:00.00 331870 N 0 0 0
0:00:00.00 332313 N 0 0 0
0:00:00.00 332735 N 0 0 0
0:00:00.00 333204 N 0 0 0
0:00:00.00 333624 N 0 0 0
0:00:00.00 334027 N 0 0 0
0:00:00.00 334470 N 0 0 0
0:00:00.00 334897 N 0 0 0
0:00:00.00 335302 N 0 0 0
0:00:00.00 335760 N 0 0 0
0:00:00.00 336213 N 0 0 0
0:00:00.00 336626 N 0 0 0
0:00:00.00 337097 N 0 0 0
0:00:00.00 337569 N 0 0 0
0:00:00.00 338002 N 0 0 0
0:00:00.00 338465 N 0 0 0
0:00:00.00 338930 N 0 0 0
0:00:00.00 339353 N 0 0 0
0:00:00.00 339823 N 0 0 0
0:00:00.00 340276 N 0 0 0
0:00:00.00 340681 N 0 0 0
0:00:00.00 341117 N 0 0 0
0:00:00.00 341588 N 0 0 0
0:00:00.00 342006 N 0 0 0
0:00:00.00 342418 N 0 0 0
0:00:00.00 342860 N 0 0 0
0:00:00.00 343279 N 0 0 0
0:00:00.00 343686 N 0 0 0
0:00:00.00 344144 N 0 0 0
0:00:00.00 344592 N 0 0 0
0:00:00.00 344995 N 0 0 0
0:00:00.00 345452 N 0 0 0
0:00:00.00 345887 N 0 0 0
0:00:00.00 346286 N 0 0 0
0:00:00.00 346696 N 0 0 0
0:00:00.00 347117 N 0 0 0
0:00:00.00 347501 N 0 0 0
0:00:00.00 347884 N 0 0 0
0:00:00.00 348305 N 0 0 0
0:00:00.00 348728 N 0 0 0
0:00:00.00 349120 N 0 0 0
0:00:00.00 349567 N 0 0 0
0:00:00.00 350025 N 0 0 0
0:00:00.00 350440 N 0 0 0
0:00:00.00 350899 N 0 0 0
0:00:00.00 351366 N 0 0 0
0:00:00.00 351785 N 0 0 0
0:00:00.00 352248 N 0 0 0
0:00:00.00 352718 N 0 0 0
0:00:00.00 353128 N 0 0 0
0:00:00.00 353583 N 0 0 0
0:00:00.00 354039 N 0 0 0
0:00:00.00 354436 N 0 0 0
0:00:00.00 354857 N 0 0 0
0:00:00.00 355303 N 0 0 0
0:00:00.00 355709 N 0 0 0
0:00:00.00 356153 N 0 0 0
0:00:00.00 356626 N 0 0 0
0:00:00.00 357038 N 0 0 0
0:00:00.00 357469 N 0 0 0
0:00:00.00 357910 N 0 0 0
0:00:00.00 358352 N 0 0 0
0:00:00.00 358772 N 0 0 0
0:00:00.00 359231 N 0 0 0
0:00:00.00 359680 N 0 0 0
0:00:00.00 360096 N 0 0 0
0:00:00.00 360555 N 0 0 0
0:00:00.00 361012 N 0 0 0
0:00:00.00 361415 N 0 0 0
0:00:00.00 361838 N 0 0 0
0:00:00.00 362265 N 0 0 0
0:00:00.00 362666 N 0 0 0
0:00:00.00 363077 N 0 0 0
0:00:00.00 363510 N 0 0 0
0:00:00.00 363930 N 0 0 0
0:00:00.00 364320 N 0 0 0
0:00:00.00 364729 N 0 0 0
0:00:00.00 365147 N 0 0 0
0:00:00.00 365541 N 0 0 0
0:00:00.00 365988 N 0 0 0
0:00:00.00 366464 N 0 0 0
0:00:00.00 366909 N 0 0 0
0:00:00.00 367359 N 0 0 0
0:00:00.00 367809 N 0 0 0
0:00:00.00 368216 N 0 0 0
0:00:00.00 368656 N 0 0 0
0:00:00.00 369096 N 0 0 0
0:00:00.00 369509 N 0 0 0
0:00:00.00 369915 N 0 0 0
0:00:00.00 370340 N 0 0 0
0:00:00.00 370767 N 0 0 0
0:00:00.00 371170 N 0 0 0
0:00:00.00 371618 N 0 0 0
0:00:00.00 372051 N 0 0 0
0:00:00.00 372467 N 0 0 0
0:00:00.00 372926 N 0 0 0
0:00:00.00 373364 N 0 0 0
0:00:00.00 373767 N 0 0 0
0:00:00.00 374195 N 0 0 0
0:00:00.00 374629 N 0 0 0
0:00:00.00 375047 N 0 0 0
0:00:00.00 375507 N 0 0 0
0:00:00.00 375974 N 0 0 0
0:00:00.00 376397 N 0 0 0
0:00:00.00 376826 N 0 0 0
0:00:00.00 377239 N 0 0 0
0:00:00.00 377588 N 0 0 0
0:00:00.00 377951 N 0 0 0
0:00:00.00 378299 N 0 0 0
0:00:00.00 378622 N 0 0 0
0:00:00.00 378963 N 0 0 0
0:00:00.00 379299 N 0 0 0
0:00:00.00 379688 N 0 0 0
0:00:00.00 380086 N 0 0 0
0:00:00.00 380602 N 0 0 0
0:00:00.00 381095 N 0 0 0
0:00:00.00 381559 N 0 0 0
0:00:00.00 382053 N 0 0 0
0:00:00.00 382539 N 0 0 0
0:00:00.00 383008 N 0 0 0
0:00:00.00 383497 N 0 0 0
0:00:00.00 383943 N 0 0 0
0:00:00.00 384387 N 0 0 0
0:00:00.00 384831 N 0 0 0
0:00:00.00 385228 N 0 0 0
0:00:00.00 385648 N 0 0 0
0:00:00.00 386075 N 0 0 0
0:00:00.00 386476 N 0 0 0
0:00:00.00 386898 N 0 0 0
0:00:00.00 387320 N 0 0 0
0:00:00.00 387719 N 0 0 0
0:00:00.00 388189 N 0 0 0
0:00:00.00 388616 N 0 0 0
0:00:00.00 389029 N 0 0 0
0:00:00.00 389489 N 0 0 0
0:00:00.00 389966 N 0 0 0
0:00:00.00 390390 N 0 0 0
0:00:00.00 390886 N 0 0 0
0:00:00.00 391360 N 0 0 0
0:00:00.00 391798 N 0 0 0
0:00:00.00 392256 N 0 0 0
0:00:00.00 392710 N 0 0 0
0:00:00.00 393117 N 0 0 0
0:00:00.00 393600 N 0 0 0
0:00:00.00 394065 N 0 0 0
0:00:00.00 394483 N 0 0 0
0:00:00.00 394949 N 0 0 0
0:00:00.00 395378 N 0 0 0
0:00:00.00 395780 N 0 0 0
0:00:00.00 396231 N 0 0 0
0:00:00.00 396664 N 0 0 0
0:00:00.00 397052 N 0 0 0
0:00:00.00 397510 N 0 0 0
0:00:00.00 397955 N 0 0 0
0:00:00.00 398329 N 0 0 0
0:00:00.00 398690 N 0 0 0
0:00:00.00 399047 N 0 0 0
0:00:00.00 399397 N 0 0 0
0:00:00.00 399750 N 0 0 0
0:00:00.00 400148 N 0 0 0
0:00:00.00 400563 N 0 0 0
0:00:00.00 401099 N 0 0 0
0:00:00.00 401592 N 0 0 0
0:00:00.00 402080 N 0 0 0
0:00:00.00 402574 N 0 0 0
0:00:00.00 403038 N 0 0 0
0:00:00.00 403513 N 0 0 0
0:00:00.00 403968 N 0 0 0
0:00:00.00 404385 N 0 0 0
0:00:00.00 404828 N 0 0 0
0:00:00.00 405260 N 0 0 0
0:00:00.00 405665 N 0 0 0
0:00:00.00 406130 N 0 0 0
0:00:00.00 406556 N 0 0 0
0:00:00.00 406937 N 0 0 0
0:00:00.00 407340 N 0 0 0
0:00:00.00 407794 N 0 0 0
0:00:00.00 408203 N 0 0 0
0:00:00.00 408662 N 0 0 0
0:00:00.00 409173 N 0 0 0
0:00:00.00 409622 N 0 0 0
0:00:00.00 410055 N 0 0 0
0:00:00.00 410522 N 0 0 0
0:00:00.00 410945 N 0 0 0
0:00:00.00 411372 N 0 0 0
0:00:00.00 411800 N 0 0 0
0:00:00.00 412182 N 0 0 0
0:00:00.00 412593 N 0 0 0
0:00:00.00 413083 N 0 0 0
0:00:00.00 413544 N 0 0 0
0:00:00.00 413979 N 0 0 0
0:00:00.00 414445 N 0 0 0
0:00:00.00 414878 N 0 0 0
0:00:00.00 415285 N 0 0 0
0:00:00.00 415717 N 0 0 0
0:00:00.00 416170 N 0 0 0
0:00:00.00 416578 N 0 0 0
0:00:00.00 417050 N 0 0 0
0:00:00.00 417473 N 0 0 0
0:00:00.00 417907 N 0 0 0
0:00:00.00 418372 N 0 0 0
0:00:00.00 418799 N 0 0 0
0:00:00.00 419234 N 0 0 0
0:00:00.00 419680 N 0 0 0
0:00:00.00 420097 N 0 0 0
0:00:00.00 420484 N 0 0 0
0:00:00.00 420906 N 0 0 0
0:00:00.00 421359 N 0 0 0
0:00:00.00 421778 N 0 0 0
0:00:00.00 422221 N 0 0 0
0:00:00.00 422671 N 0 0 0
0:00:00.00 423083 N 0 0 0
0:00:00.00 423496 N 0 0 0
0:00:00.00 423920 N 0 0 0
0:00:00.00 424330 N 0 0 0
0:00:00.00 424720 N 0 0 0
0:00:00.00 425140 N 0 0 0
0:00:00.00 425558 N 0 0 0
0:00:00.00 425941 N 0 0 0
0:00:00.00 426375 N 0 0 0
0:00:00.00 426810 N 0 0 0
0:00:00.00 427210 N 0 0 0
0:00:00.00 427639 N 0 0 0
0:00:00.00 428094 N 0 0 0
0:00:00.00 428491 N 0 0 0
0:00:00.00 428913 N 0 0 0
0:00:00.00 429298 N 0 0 0
0:00:00.00 429646 N 0 0 0
0:00:00.00 429999 N 0 0 0
0:00:00.00 430354 N 0 0 0
0:00:00.00 430697 N 0 0 0
0:00:00.00 431123 N 0 0 0
0:00:00.00 431644 N 0 0 0
0:00:00.00 432131 N 0 0 0
0:00:00.00 432626 N 0 0 0
0:00:00.00 433103 N 0 0 0
0:00:00.00 433545 N 0 0 0
0:00:00.00 434025 N 0 0 0
0:00:00.00 434447 N 0 0 0
0:00:00.00 434863 N 0 0 0
0:00:00.00 435298 N 0 0 0
0:00:00.00 435764 N 0 0 0
0:00:00.00 436169 N 0 0 0
0:00:00.00 436631 N 0 0 0
0:00:00.00 437083 N 0 0 0
0:00:00.00 437487 N 0 0 0
0:00:00.00 437925 N 0 0 0
0:00:00.00 438373 N 0 0 0
0:00:00.00 438764 N 0 0 0
0:00:00.00 439177 N 0 0 0
0:00:00.00 439607 N 0 0 0
0:00:00.00 440015 N 0 0 0
0:00:00.00 440425 N 0 0 0
0:00:00.00 440903 N 0 0 0
0:00:00.00 441400 N 0 0 0
0:00:00.00 441836 N 0 0 0
0:00:00.00 442313 N 0 0 0
0:00:00.00 442779 N 0 0 0
0:00:00.00 443207 N 0 0 0
0:00:00.00 443662 N 0 0 0
0:00:00.00 444136 N 0 0 0
0:00:00.00 444537 N 0 0 0
0:00:00.00 444994 N 0 0 0
0:00:00.00 445444 N 0 0 0
0:00:00.00 445847 N 0 0 0
0:00:00.00 446293 N 0 0 0
0:00:00.00 446735 N 0 0 0
0:00:00.00 447138 N 0 0 0
0:00:00.00 447528 N 0 0 0
0:00:00.00 447982 N 0 0 0
0:00:00.00 448449 N 0 0 0
0:00:00.00 448860 N 0 0 0
0:00:00.00 449321 N 0 0 0
0:00:00.00 449783 N 0 0 0
0:00:00.00 450184 N 0 0 0
0:00:00.00 450644 N 0 0 0
0:00:00.00 451099 N 0 0 0
0:00:00.00 451498 N 0 0 0
0:00:00.00 451956 N 0 0 0
0:00:00.00 452401 N 0 0 0
0:00:00.00 452804 N 0 0 0
0:00:00.00 453221 N 0 0 0
0:00:00.00 453695 N 0 0 0
0:00:00.00 454130 N 0 0 0
0:00:00.00 454559 N 0 0 0
0:00:00.00 455006 N 0 0 0
0:00:00.00 455438 N 0 0 0
0:00:00.00 455830 N 0 0 0
0:00:00.00 456263 N 0 0 0
0:00:00.00 456689 N 0 0 0
0:00:00.00 457073 N 0 0 0
0:00:00.00 457489 N 0 0 0
0:00:00.00 457908 N 0 0 0
0:00:00.00 458295 N 0 0 0
0:00:00.00 458693 N 0 0 0
0:00:00.00 459136 N 0 0 0
0:00:00.00 459558 N 0 0 0
0:00:00.00 459971 N 0 0 0
0:00:00.00 460404 N 0 0 0
0:00:00.00 460858 N 0 0 0
0:00:00.00 461264 N 0 0 0
0:00:00.00 461748 N 0 0 0
0:00:00.00 462215 N 0 0 0
0:00:00.00 462628 N 0 0 0
0:00:00.00 463083 N 0 0 0
0:00:00.00 463562 N 0 0 0
0:00:00.00 463996 N 0 0 0
0:00:00.00 464452 N 0 0 0
0:00:00.00 464928 N 0 0 0
0:00:00.00 465362 N 0 0 0
0:00:00.00 465778 N 0 0 0
0:00:00.00 466240 N 0 0 0
0:00:00.00 466695 N 0 0 0
0:00:00.00 467106 N 0 0 0
0:00:00.00 467554 N 0 0 0
0:00:00.00 468002 N 0 0 0
0:00:00.00 468404 N 0 0 0
0:00:00.00 468837 N 0 0 0
0:00:00.00 469272 N 0 0 0
0:00:00.00 469664 N 0 0 0
0:00:00.00 470110 N 0 0 0
0:00:00.00 470562 N 0 0 0
0:00:00.00 470990 N 0 0 0
0:00:00.00 471383 N 0 0 0
0:00:00.00 471823 N 0 0 0
0:00:00.00 472249 N 0 0 0
0:00:00.00 472646 N 0 0 0
0:00:00.00 473087 N 0 0 0
0:00:00.00 473535 N 0 0 0
0:00:00.00 473942 N 0 0 0
0:00:00.00 474366 N 0 0 0
0:00:00.00 474809 N 0 0 0
0:00:00.00 475214 N 0 0 0
0:00:00.00 475623 N 0 0 0
0:00:00.00 476059 N 0 0 0
0:00:00.00 476438 N 0 0 0
0:00:00.00 476801 N 0 0 0
0:00:00.00 477155 N 0 0 0
0:00:00.00 477497 N 0 0 0
0:00:00.00 477845 N 0 0 0
0:00:00.00 478195 N 0 0 0
0:00:00.00 478546 N 0 0 0
0:00:00.00 478891 N 0 0 0
0:00:00.00 479240 N 0 0 0
0:00:00.00 479619 N 0 0 0
0:00:00.00 480144 N 0 0 0
0:00:00.00 480609 N 0 0 0
0:00:00.00 481067 N 0 0 0
0:00:00.00 481570 N 0 0 0
0:00:00.00 482029 N 0 0 0
0:00:00.00 482486 N 0 0 0
0:00:00.00 482992 N 0 0 0
0:00:00.00 483464 N 0 0 0
0:00:00.00 483870 N 0 0 0
0:00:00.00 484252 N 0 0 0
0:00:00.00 484624 N 0 0 0
0:00:00.00 484961 N 0 0 0
0:00:00.00 485308 N 0 0 0
0:00:00.00 485650 N 0 0 0
0:00:00.00 485993 N 0 0 0
0:00:00.00 486356 N 0 0 0
0:00:00.00 486736 N 0 0 0
0:00:00.00 487145 N 0 0 0
0:00:00.00 487675 N 0 0 0
0:00:00.00 488175 N 0 0 0
0:00:00.00 488647 N 0 0 0
0:00:00.00 489157 N 0 0 0
0:00:00.00 489629 N 0 0 0
0:00:00.00 490086 N 0 0 0
0:00:00.00 490561 N 0 0 0
0:00:00.00 491022 N 0 0 0
0:00:00.00 491508 N 0 0 0
0:00:00.00 491984 N 0 0 0
0:00:00.00 492412 N 0 0 0
0:00:00.00 492892 N 0 0 0
0:00:00.00 493356 N 0 0 0
0:00:00.00 493782 N 0 0 0
0:00:00.00 494256 N 0 0 0
0:00:00.00 494687 N 0 0 0
0:00:00.00 495078 N 0 0 0
0:00:00.00 495511 N 0 0 0
0:00:00.00 495948 N 0 0 0
0:00:00.00 496358 N 0 0 0
0:00:00.00 496820 N 0 0 0
0:00:00.00 497281 N 0 0 0
0:00:00.00 497697 N 0 0 0
0:00:00.00 498152 N 0 0 0
0:00:00.00 498583 N 0 0 0
0:00:00.00 498990 N 0 0 0
0:00:00.00 499458 N 0 0 0
0:00:00.00 499928 N 0 0 0
0:00:00.00 500342 N 0 0 0
0:00:00.00 500813 N 0 0 0
0:00:00.00 501263 N 0 0 0
0:00:00.00 501665 N 0 0 0
0:00:00.00 502097 N 0 0 0
0:00:00.00 502495 N 0 0 0
0:00:00.00 502882 N 0 0 0
0:00:00.00 503314 N 0 0 0
0:00:00.00 503795 N 0 0 0
0:00:00.00 504201 N 0 0 0
0:00:00.00 504659 N 0 0 0
0:00:00.00 505120 N 0 0 0
0:00:00.00 505537 N 0 0 0
0:00:00.00 505938 N 0 0 0
0:00:00.00 506317 N 0 0 0
0:00:00.00 506663 N 0 0 0
0:00:00.00 507005 N 0 0 0
0:00:00.00 507344 N 0 0 0
0:00:00.00 507686 N 0 0 0
0:00:00.00 508050 N 0 0 0
0:00:00.00 508558 N 0 0 0
0:00:00.00 509075 N 0 0 0
0:00:00.00 509539 N 0 0 0
0:00:00.00 510047 N 0 0 0
0:00:00.00 510547 N 0 0 0
0:00:00.00 511012 N 0 0 0
0:00:00.00 511481 N 0 0 0
0:00:00.00 511965 N 0 0 0
0:00:00.00 512412 N 0 0 0
0:00:00.00 512868 N 0 0 0
0:00:00.00 513313 N 0 0 0
0:00:00.00 513744 N 0 0 0
0:00:00.00 514155 N 0 0 0
0:00:00.00 514604 N 0 0 0
0:00:00.00 515046 N 0 0 0
0:00:00.00 515452 N 0 0 0
0:00:00.00 515914 N 0 0 0
0:00:00.00 516362 N 0 0 0
0:00:00.00 516779 N 0 0 0
0:00:00.00 517186 N 0 0 0
0:00:00.00 517578 N 0 0 0
0:00:00.00 517953 N 0 0 0
0:00:00.00 518361 N 0 0 0
0:00:00.00 518747 N 0 0 0
0:00:00.00 519176 N 0 0 0
0:00:00.00 519613 N 0 0 0
0:00:00.00 520015 N 0 0 0
0:00:00.00 520410 N 0 0 0
0:00:00.00 520803 N 0 0 0
0:00:00.00 521169 N 0 0 0
0:00:00.00 521536 N 0 0 0
0:00:00.00 521905 N 0 0 0
0:00:00.00 522297 N 0 0 0
0:00:00.00 522664 N 0 0 0
0:00:00.00 523025 N 0 0 0
0:00:00.00 523417 N 0 0 0
0:00:00.00 523795 N 0 0 0
0:00:00.00 524162 N 0 0 0
0:00:00.00 524525 N 0 0 0
0:00:00.00 524903 N 0 0 0
0:00:00.00 525274 N 0 0 0
0:00:00.00 525615 N 0 0 0
0:00:00.00 525978 N 0 0 0
0:00:00.00 526332 N 0 0 0
0:00:00.00 526666 N 0 0 0
0:00:00.00 527020 N 0 0 0
0:00:00.00 527369 N 0 0 0
0:00:00.00 527728 N 0 0 0
0:00:00.00 528088 N 0 0 0
0:00:00.00 528457 N 0 0 0
0:00:00.00 528848 N 0 0 0
0:00:00.00 529224 N 0 0 0
0:00:00.00 529599 N 0 0 0
0:00:00.00 530040 N 0 0 0
0:00:00.00 530506 N 0 0 0
0:00:00.00 530960 N 0 0 0
0:00:00.00 531450 N 0 0 0
0:00:00.00 531916 N 0 0 0
0:00:00.00 532315 N 0 0 0
0:00:00.00 532751 N 0 0 0
0:00:00.00 533186 N 0 0 0
0:00:00.00 533601 N 0 0 0
0:00:00.00 534076 N 0 0 0
0:00:00.00 534532 N 0 0 0
0:00:00.00 534993 N 0 0 0
0:00:00.00 535427 N 0 0 0
0:00:00.00 535829 N 0 0 0
0:00:00.00 536268 N 0 0 0
0:00:00.00 536741 N 0 0 0
0:00:00.00 537232 N 0 0 0
0:00:00.00 537709 N 0 0 0
0:00:00.00 538198 N 0 0 0
0:00:00.00 538581 N 0 0 0
0:00:00.00 538966 N 0 0 0
0:00:00.00 539351 N 0 0 0
0:00:00.00 539723 N 0 0 0
0:00:00.00 540118 N 0 0 0
0:00:00.00 540596 N 0 0 0
0:00:00.00 541091 N 0 0 0
0:00:00.00 541614 N 0 0 0
0:00:00.00 542121 N 0 0 0
0:00:00.00 542593 N 0 0 0
0:00:00.00 543086 N 0 0 0
0:00:00.00 543548 N 0 0 0
0:00:00.00 543967 N 0 0 0
0:00:00.00 544424 N 0 0 0
0:00:00.00 544866 N 0 0 0
0:00:00.00 545273 N 0 0 0
0:00:00.00 545685 N 0 0 0
0:00:00.00 546122 N 0 0 0
0:00:00.00 546483 N 0 0 0
0:00:00.00 546864 N 0 0 0
0:00:00.00 547250 N 0 0 0
0:00:00.00 547607 N 0 0 0
0:00:00.00 547962 N 0 0 0
0:00:00.00 548333 N 0 0 0
0:00:00.00 548701 N 0 0 0
0:00:00.00 549082 N 0 0 0
0:00:00.00 549530 N 0 0 0
0:00:00.00 550000 N 0 0 0
0:00:00.00 550478 N 0 0 0
0:00:00.00 550948 N 0 0 0
0:00:00.00 551389 N 0 0 0
0:00:00.00 551819 N 0 0 0
0:00:00.00 552308 N 0 0 0
0:00:00.00 552775 N 0 0 0
0:00:00.00 553195 N 0 0 0
0:00:00.00 553653 N 0 0 0
0:00:00.00 554076 N 0 0 0
0:00:00.00 554475 N 0 0 0
0:00:00.00 554915 N 0 0 0
0:00:00.00 555354 N 0 0 0
0:00:00.00 555769 N 0 0 0
0:00:00.00 556226 N 0 0 0
0:00:00.00 556708 N 0 0 0
0:00:00.00 557097 N 0 0 0
0:00:00.00 557458 N 0 0 0
0:00:00.00 557821 N 0 0 0
0:00:00.00 558177 N 0 0 0
0:00:00.00 558553 N 0 0 0
0:00:00.00 558951 N 0 0 0
0:00:00.00 559443 N 0 0 0
0:00:00.00 559945 N 0 0 0
0:00:00.00 560449 N 0 0 0
0:00:00.00 560928 N 0 0 0
0:00:00.00 561431 N 0 0 0
0:00:00.00 561904 N 0 0 0
0:00:00.00 562341 N 0 0 0
0:00:00.00 562787 N 0 0 0
0:00:00.00 563249 N 0 0 0
0:00:00.00 563656 N 0 0 0
0:00:00.00 564090 N 0 0 0
0:00:00.00 564539 N 0 0 0
0:00:00.00 564961 N 0 0 0
0:00:00.00 565346 N 0 0 0
0:00:00.00 565718 N 0 0 0
0:00:00.00 566088 N 0 0 0
0:00:00.00 566443 N 0 0 0
0:00:00.00 566819 N 0 0 0
0:00:00.00 567239 N 0 0 0
0:00:00.00 567665 N 0 0 0
0:00:00.00 568197 N 0 0 0
0:00:00.00 568669 N 0 0 0
0:00:00.00 569130 N 0 0 0
0:00:00.00 569617 N 0 0 0
0:00:00.00 570069 N 0 0 0
0:00:00.00 570498 N 0 0 0
0:00:00.00 570956 N 0 0 0
0:00:00.00 571374 N 0 0 0
0:00:00.00 571780 N 0 0 0
0:00:00.00 572239 N 0 0 0
0:00:00.00 572727 N 0 0 0
0:00:00.00 573156 N 0 0 0
0:00:00.00 573637 N 0 0 0
0:00:00.00 574075 N 0 0 0
0:00:00.00 574537 N 0 0 0
0:00:00.00 575000 N 0 0 0
0:00:00.00 575429 N 0 0 0
0:00:00.00 575930 N 0 0 0
0:00:00.00 576417 N 0 0 0
0:00:00.00 576840 N 0 0 0
0:00:00.00 577297 N 0 0 0
0:00:00.00 577738 N 0 0 0
0:00:00.00 578112 N 0 0 0
0:00:00.00 578474 N 0 0 0
0:00:00.00 578842 N 0 0 0
0:00:00.00 579201 N 0 0 0
0:00:00.00 579587 N 0 0 0
0:00:00.00 580105 N 0 0 0
0:00:00.00 580574 N 0 0 0
0:00:00.00 581072 N 0 0 0
0:00:00.00 581536 N 0 0 0
0:00:00.00 581980 N 0 0 0
0:00:00.00 582462 N 0 0 0
0:00:00.00 582891 N 0 0 0
0:00:00.00 583302 N 0 0 0
0:00:00.00 583765 N 0 0 0
0:00:00.00 584216 N 0 0 0
0:00:00.00 584652 N 0 0 0
0:00:00.00 585121 N 0 0 0
0:00:00.00 585578 N 0 0 0
0:00:00.00 585995 N 0 0 0
0:00:00.00 586454 N 0 0 0
0:00:00.00 586881 N 0 0 0
0:00:00.00 587295 N 0 0 0
0:00:00.00 587737 N 0 0 0
0:00:00.00 588157 N 0 0 0
0:00:00.00 588563 N 0 0 0
0:00:00.00 589013 N 0 0 0
0:00:00.00 589434 N 0 0 0
0:00:00.00 589846 N 0 0 0
0:00:00.00 590313 N 0 0 0
0:00:00.00 590757 N 0 0 0
0:00:00.00 591184 N 0 0 0
0:00:00.00 591644 N 0 0 0
0:00:00.00 592103 N 0 0 0
0:00:00.00 592510 N 0 0 0
0:00:00.00 592962 N 0 0 0
0:00:00.00 593375 N 0 0 0
0:00:00.00 593766 N 0 0 0
0:00:00.00 594196 N 0 0 0
0:00:00.00 594621 N 0 0 0
0:00:00.00 595023 N 0 0 0
0:00:00.00 595489 N 0 0 0
0:00:00.00 595969 N 0 0 0
0:00:00.00 596381 N 0 0 0
0:00:00.00 596838 N 0 0 0
0:00:00.00 597316 N 0 0 0
0:00:00.00 597742 N 0 0 0
0:00:00.00 598167 N 0 0 0
0:00:00.00 598637 N 0 0 0
0:00:00.00 599062 N 0 0 0
0:00:00.00 599446 N 0 0 0
0:00:00.00 599853 N 0 0 0
0:00:00.00 600266 N 0 0 0
0:00:00.00 600574 N 0 0 0
0:00:00.00 600924 N 0 0 0
0:00:00.00 601288 N 0 0 0
0:00:00.00 601683 N 0 0 0
0:00:00.00 602231 N 0 0 0
0:00:00.00 602725 N 0 0 0
0:00:00.00 603233 N 0 0 0
0:00:00.00 603738 N 0 0 0
0:00:00.00 604205 N 0 0 0
0:00:00.00 604701 N 0 0 0
0:00:00.00 605180 N 0 0 0
0:00:00.00 605618 N 0 0 0
0:00:00.00 606059 N 0 0 0
0:00:00.00 606505 N 0 0 0
0:00:00.00 606932 N 0 0 0
0:00:00.00 607348 N 0 0 0
0:00:00.00 607790 N 0 0 0
0:00:00.00 608244 N 0 0 0
0:00:00.00 608661 N 0 0 0
0:00:00.00 609130 N 0 0 0
0:00:00.00 609588 N 0 0 0
0:00:00.00 610000 N 0 0 0
0:00:00.00 610432 N 0 0 0
0:00:00.00 610852 N 0 0 0
0:00:00.00 611244 N 0 0 0
0:00:00.00 611673 N 0 0 0
0:00:00.00 612085 N 0 0 0
0:00:00.00 612493 N 0 0 0
0:00:00.00 612947 N 0 0 0
0:00:00.00 613388 N 0 0 0
0:00:00.00 613809 N 0 0 0
0:00:00.00 614263 N 0 0 0
0:00:00.00 614693 N 0 0 0
0:00:00.00 615084 N 0 0 0
0:00:00.00 615520 N 0 0 0
0:00:00.00 615926 N 0 0 0
0:00:00.00 616323 N 0 0 0
0:00:00.00 616748 N 0 0 0
0:00:00.00 617153 N 0 0 0
0:00:00.00 617524 N 0 0 0
0:00:00.00 617885 N 0 0 0
0:00:00.00 618248 N 0 0 0
0:00:00.00 618600 N 0 0 0
0:00:00.00 618977 N 0 0 0
0:00:00.00 619465 N 0 0 0
0:00:00.00 619941 N 0 0 0
0:00:00.00 620440 N 0 0 0
0:00:00.00 620929 N 0 0 0
0:00:00.00 621358 N 0 0 0
0:00:00.00 621829 N 0 0 0
0:00:00.00 622292 N 0 0 0
0:00:00.00 622717 N 0 0 0
0:00:00.00 623150 N 0 0 0
0:00:00.00 623619 N 0 0 0
0:00:00.00 624046 N 0 0 0
0:00:00.00 624447 N 0 0 0
0:00:00.00 624894 N 0 0 0
0:00:00.00 625327 N 0 0 0
0:00:00.00 625730 N 0 0 0
0:00:00.00 626165 N 0 0 0
0:00:00.00 626575 N 0 0 0
0:00:00.00 626976 N 0 0 0
0:00:00.00 627410 N 0 0 0
0:00:00.00 627840 N 0 0 0
0:00:00.00 628256 N 0 0 0
0:00:00.00 628724 N 0 0 0
0:00:00.00 629217 N 0 0 0
0:00:00.00 629660 N 0 0 0
0:00:00.00 630089 N 0 0 0
0:00:00.00 630525 N 0 0 0
0:00:00.00 630940 N 0 0 0
0:00:00.00 631367 N 0 0 0
0:00:00.00 631853 N 0 0 0
0:00:00.00 632310 N 0 0 0
0:00:00.00 632752 N 0 0 0
0:00:00.00 633207 N 0 0 0
0:00:00.00 633648 N 0 0 0
0:00:00.00 634056 N 0 0 0
0:00:00.00 634503 N 0 0 0
0:00:00.00 634950 N 0 0 0
0:00:00.00 635361 N 0 0 0
0:00:00.00 635791 N 0 0 0
0:00:00.00 636226 N 0 0 0
0:00:00.00 636625 N 0 0 0
0:00:00.00 637057 N 0 0 0
0:00:00.00 637518 N 0 0 0
0:00:00.00 637935 N 0 0 0
0:00:00.00 638324 N 0 0 0
0:00:00.00 638746 N 0 0 0
0:00:00.00 639157 N 0 0 0
0:00:00.00 639561 N 0 0 0
0:00:00.00 639975 N 0 0 0
0:00:00.00 640377 N 0 0 0
0:00:00.00 640742 N 0 0 0
0:00:00.00 641079 N 0 0 0
0:00:00.00 641427 N 0 0 0
0:00:00.00 641758 N 0 0 0
0:00:00.00 642099 N 0 0 0
0:00:00.00 642454 N 0 0 0
0:00:00.00 642816 N 0 0 0
0:00:00.00 643221 N 0 0 0
0:00:00.00 643628 N 0 0 0
0:00:00.00 644008 N 0 0 0
0:00:00.00 644402 N 0 0 0
0:00:00.00 644787 N 0 0 0
0:00:00.00 645152 N 0 0 0
0:00:00.00 645506 N 0 0 0
0:00:00.00 645953 N 0 0 0
0:00:00.00 646356 N 0 0 0
0:00:00.00 646738 N 0 0 0
0:00:00.00 647119 N 0 0 0
0:00:00.00 647506 N 0 0 0
0:00:00.00 647877 N 0 0 0
0:00:00.00 648248 N 0 0 0
0:00:00.00 648627 N 0 0 0
0:00:00.00 648999 N 0 0 0
0:00:00.00 649344 N 0 0 0
0:00:00.00 649691 N 0 0 0
