0:00:00.00 13 N 0 0 0
0:00:00.00 90 N 0 0 0
0:00:00.00 175 N 0 0 0
0:00:00.00 247 N 0 0 0
0:00:00.00 671 N 0 0 0
0:00:00.00 1123 N 0 0 0
0:00:00.00 1557 N 0 0 0
0:00:00.00 1994 N 0 0 0
0:00:00.00 2446 N 0 0 0
0:00:00.00 2891 N 0 0 0
0:00:00.00 3310 N 0 0 0
0:00:00.00 3749 N 0 0 0
0:00:00.00 4158 N 0 0 0
0:00:00.00 4599 N 0 0 0
0:00:00.00 5022 N 0 0 0
0:00:00.00 5461 N 0 0 0
0:00:00.00 5882 N 0 0 0
0:00:00.00 6332 N 0 0 0
0:00:00.00 6759 N 0 0 0
0:00:00.00 7204 N 0 0 0
0:00:00.00 7637 N 0 0 0
0:00:00.00 8075 N 0 0 0
0:00:00.00 8505 N 0 0 0
0:00:00.00 8941 N 0 0 0
0:00:00.00 9358 N 0 0 0
0:00:00.00 9797 N 0 0 0
0:00:00.00 10224 N 0 0 0
0:00:00.00 10665 N 0 0 0
0:00:00.00 11090 N 0 0 0
0:00:00.00 11522 N 0 0 0
0:00:00.00 11956 N 0 0 0
0:00:00.00 12389 N 0 0 0
0:00:00.00 12814 N 0 0 0
0:00:00.00 13239 N 0 0 0
0:00:00.00 13675 N 0 0 0
0:00:00.00 14103 N 0 0 0
0:00:00.00 14533 N 0 0 0
0:00:00.00 14985 N 0 0 0
0:00:00.00 15422 N 0 0 0
0:00:00.00 15869 N 0 0 0
0:00:00.00 16321 N 0 0 0
0:00:00.00 16772 N 0 0 0
0:00:00.00 17204 N 0 0 0
0:00:00.00 17656 N 0 0 0
0:00:00.00 18092 N 0 0 0
0:00:00.00 18542 N 0 0 0
0:00:00.00 18988 N 0 0 0
0:00:00.00 19420 N 0 0 0
0:00:00.00 19872 N 0 0 0
0:00:00.00 20322 N 0 0 0
0:00:00.00 20776 N 0 0 0
0:00:00.00 21226 N 0 0 0
0:00:00.00 21656 N 0 0 0
0:00:00.00 22097 N 0 0 0
0:00:00.00 22536 N 0 0 0
0:00:00.00 22993 N 0 0 0
0:00:00.00 23427 N 0 0 0
0:00:00.00 23902 N 0 0 0
0:00:00.00 24367 N 0 0 0
0:00:00.00 24818 N 0 0 0
0:00:00.00 25258 N 0 0 0
0:00:00.00 25693 N 0 0 0
0:00:00.00 26113 N 0 0 0
0:00:00.00 26543 N 0 0 0
0:00:00.00 26959 N 0 0 0
0:00:00.00 27401 N 0 0 0
0:00:00.00 27857 N 0 0 0
0:00:00.00 28282 N 0 0 0
0:00:00.00 28730 N 0 0 0
0:00:00.00 29142 N 0 0 0
0:00:00.00 29579 N 0 0 0
0:00:00.00 30026 N 0 0 0
0:00:00.00 30456 N 0 0 0
0:00:00.00 30890 N 0 0 0
0:00:00.00 31324 N 0 0 0
0:00:00.00 31759 N 0 0 0
0:00:00.00 32200 N 0 0 0
0:00:00.00 32647 N 0 0 0
0:00:00.00 33089 N 0 0 0
0:00:00.00 33521 N 0 0 0
0:00:00.00 33961 N 0 0 0
0:00:00.00 34402 N 0 0 0
0:00:00.00 34846 N 0 0 0
0:00:00.00 35269 N 0 0 0
0:00:00.00 35692 N 0 0 0
0:00:00.00 36130 N 0 0 0
0:00:00.00 36589 N 0 0 0
0:00:00.00 37037 N 0 0 0
0:00:00.00 37483 N 0 0 0
0:00:00.00 37939 N 0 0 0
0:00:00.00 38374 N 0 0 0
0:00:00.00 38830 N 0 0 0
0:00:00.00 39280 N 0 0 0
0:00:00.00 39721 N 0 0 0
0:00:00.00 40178 N 0 0 0
0:00:00.00 40642 N 0 0 0
0:00:00.00 41092 N 0 0 0
0:00:00.00 41521 N 0 0 0
0:00:00.00 41963 N 0 0 0
0:00:00.00 42385 N 0 0 0
0:00:00.00 42827 N 0 0 0
0:00:00.00 43250 N 0 0 0
0:00:00.00 43684 N 0 0 0
0:00:00.00 44113 N 0 0 0
0:00:00.00 44561 N 0 0 0
0:00:00.00 44978 N 0 0 0
0:00:00.00 45427 N 0 0 0
0:00:00.00 45866 N 0 0 0
0:00:00.00 46301 N 0 0 0
0:00:00.00 46750 N 0 0 0
0:00:00.00 47174 N 0 0 0
0:00:00.00 47612 N 0 0 0
0:00:00.00 48060 N 0 0 0
0:00:00.00 48497 N 0 0 0
0:00:00.00 48931 N 0 0 0
0:00:00.00 49351 N 0 0 0
0:00:00.00 49792 N 0 0 0
0:00:00.00 50215 N 0 0 0
0:00:00.00 50650 N 0 0 0
0:00:00.00 51079 N 0 0 0
0:00:00.00 51511 N 0 0 0
0:00:00.00 51955 N 0 0 0
0:00:00.00 52385 N 0 0 0
0:00:00.00 52832 N 0 0 0
0:00:00.00 53248 N 0 0 0
0:00:00.00 53671 N 0 0 0
0:00:00.00 54110 N 0 0 0
0:00:00.00 54538 N 0 0 0
0:00:00.00 54983 N 0 0 0
0:00:00.00 55397 N 0 0 0
0:00:00.00 55836 N 0 0 0
0:00:00.00 56281 N 0 0 0
0:00:00.00 56713 N 0 0 0
0:00:00.00 57148 N 0 0 0
0:00:00.00 57575 N 0 0 0
0:00:00.00 58021 N 0 0 0
0:00:00.00 58439 N 0 0 0
0:00:00.00 58878 N 0 0 0
0:00:00.00 59299 N 0 0 0
0:00:00.00 59728 N 0 0 0
0:00:00.00 60165 N 0 0 0
0:00:00.00 60592 N 0 0 0
0:00:00.00 61022 N 0 0 0
0:00:00.00 61436 N 0 0 0
0:00:00.00 61875 N 0 0 0
0:00:00.00 62305 N 0 0 0
0:00:00.00 62737 N 0 0 0
0:00:00.00 63158 N 0 0 0
0:00:00.00 63578 N 0 0 0
0:00:00.00 64010 N 0 0 0
0:00:00.00 64426 N 0 0 0
0:00:00.00 64872 N 0 0 0
0:00:00.00 65290 N 0 0 0
0:00:00.00 65716 N 0 0 0
0:00:00.00 66150 N 0 0 0
0:00:00.00 66586 N 0 0 0
0:00:00.00 67016 N 0 0 0
0:00:00.00 67448 N 0 0 0
0:00:00.00 67894 N 0 0 0
0:00:00.00 68324 N 0 0 0
0:00:00.00 68767 N 0 0 0
0:00:00.00 69203 N 0 0 0
0:00:00.00 69626 N 0 0 0
0:00:00.00 70074 N 0 0 0
0:00:00.00 70517 N 0 0 0
0:00:00.00 70949 N 0 0 0
0:00:00.00 71388 N 0 0 0
0:00:00.00 71834 N 0 0 0
0:00:00.00 72270 N 0 0 0
0:00:00.00 72720 N 0 0 0
0:00:00.00 73147 N 0 0 0
0:00:00.00 73580 N 0 0 0
0:00:00.00 74009 N 0 0 0
0:00:00.00 74437 N 0 0 0
0:00:00.00 74882 N 0 0 0
0:00:00.00 75310 N 0 0 0
0:00:00.00 75753 N 0 0 0
0:00:00.00 76205 N 0 0 0
0:00:00.00 76667 N 0 0 0
0:00:00.00 77107 N 0 0 0
0:00:00.00 77549 N 0 0 0
0:00:00.00 77994 N 0 0 0
0:00:00.00 78426 N 0 0 0
0:00:00.00 78878 N 0 0 0
0:00:00.00 79313 N 0 0 0
0:00:00.00 79771 N 0 0 0
0:00:00.00 80233 N 0 0 0
0:00:00.00 80681 N 0 0 0
0:00:00.00 81124 N 0 0 0
0:00:00.00 81565 N 0 0 0
0:00:00.00 82012 N 0 0 0
0:00:00.00 82447 N 0 0 0
0:00:00.00 82883 N 0 0 0
0:00:00.00 83320 N 0 0 0
0:00:00.00 83754 N 0 0 0
0:00:00.00 84200 N 0 0 0
0:00:00.00 84641 N 0 0 0
0:00:00.00 85088 N 0 0 0
0:00:00.00 85516 N 0 0 0
0:00:00.00 85952 N 0 0 0
0:00:00.00 86387 N 0 0 0
0:00:00.00 86825 N 0 0 0
0:00:00.00 87259 N 0 0 0
0:00:00.00 87691 N 0 0 0
0:00:00.00 88137 N 0 0 0
0:00:00.00 88582 N 0 0 0
0:00:00.00 89028 N 0 0 0
0:00:00.00 89464 N 0 0 0
0:00:00.00 89888 N 0 0 0
0:00:00.00 90326 N 0 0 0
0:00:00.00 90763 N 0 0 0
0:00:00.00 91181 N 0 0 0
0:00:00.00 91611 N 0 0 0
0:00:00.00 92056 N 0 0 0
0:00:00.00 92475 N 0 0 0
0:00:00.00 92929 N 0 0 0
0:00:00.00 93359 N 0 0 0
0:00:00.00 93782 N 0 0 0
0:00:00.00 94214 N 0 0 0
0:00:00.00 94644 N 0 0 0
0:00:00.00 95067 N 0 0 0
0:00:00.00 95472 N 0 0 0
0:00:00.00 95895 N 0 0 0
0:00:00.00 96304 N 0 0 0
0:00:00.00 96737 N 0 0 0
0:00:00.00 97146 N 0 0 0
0:00:00.00 97580 N 0 0 0
0:00:00.00 98006 N 0 0 0
0:00:00.00 98417 N 0 0 0
0:00:00.00 98833 N 0 0 0
0:00:00.00 99241 N 0 0 0
0:00:00.00 99639 N 0 0 0
0:00:00.00 100048 N 0 0 0
0:00:00.00 100438 N 0 0 0
0:00:00.00 100834 N 0 0 0
0:00:00.00 101210 N 0 0 0
0:00:00.00 101590 N 0 0 0
0:00:00.00 101956 N 0 0 0
0:00:00.00 102326 N 0 0 0
0:00:00.00 102697 N 0 0 0
0:00:00.00 103059 N 0 0 0
0:00:00.00 103417 N 0 0 0
0:00:00.00 103768 N 0 0 0
0:00:00.00 104130 N 0 0 0
0:00:00.00 104477 N 0 0 0
0:00:00.00 104830 N 0 0 0
0:00:00.00 105169 N 0 0 0
0:00:00.00 105505 N 0 0 0
0:00:00.00 105842 N 0 0 0
0:00:00.00 106177 N 0 0 0
0:00:00.00 106511 N 0 0 0
0:00:00.00 106855 N 0 0 0
0:00:00.00 107186 N 0 0 0
0:00:00.00 107534 N 0 0 0
0:00:00.00 107879 N 0 0 0
0:00:00.00 108574 N 0 0 0
0:00:00.00 108936 N 0 0 0
0:00:00.00 109283 N 0 0 0
0:00:00.00 109886 N 0 0 0
0:00:00.00 110250 N 0 0 0
0:00:00.00 110597 N 0 0 0
0:00:00.00 110959 N 0 0 0
0:00:00.00 111319 N 0 0 0
0:00:00.00 111686 N 0 0 0
0:00:00.00 112073 N 0 0 0
0:00:00.00 112448 N 0 0 0
0:00:00.00 112838 N 0 0 0
0:00:00.00 113180 N 0 0 0
0:00:00.00 113539 N 0 0 0
0:00:00.00 113904 N 0 0 0
0:00:00.00 114278 N 0 0 0
0:00:00.00 114646 N 0 0 0
0:00:00.00 115027 N 0 0 0
0:00:00.00 115394 N 0 0 0
0:00:00.00 115774 N 0 0 0
0:00:00.00 116158 N 0 0 0
0:00:00.00 116541 N 0 0 0
0:00:00.00 116928 N 0 0 0
0:00:00.00 117304 N 0 0 0
0:00:00.00 117697 N 0 0 0
0:00:00.00 118096 N 0 0 0
0:00:00.00 118485 N 0 0 0
0:00:00.00 118899 N 0 0 0
0:00:00.00 119304 N 0 0 0
0:00:00.00 119684 N 0 0 0
0:00:00.00 120096 N 0 0 0
0:00:00.00 120467 N 0 0 0
0:00:00.00 120859 N 0 0 0
0:00:00.00 121235 N 0 0 0
0:00:00.00 121622 N 0 0 0
0:00:00.00 122013 N 0 0 0
0:00:00.00 122396 N 0 0 0
0:00:00.00 122782 N 0 0 0
0:00:00.00 123152 N 0 0 0
0:00:00.00 123534 N 0 0 0
0:00:00.00 123925 N 0 0 0
0:00:00.00 124321 N 0 0 0
0:00:00.00 124711 N 0 0 0
0:00:00.00 125105 N 0 0 0
0:00:00.00 125478 N 0 0 0
0:00:00.00 125863 N 0 0 0
0:00:00.00 126241 N 0 0 0
0:00:00.00 126632 N 0 0 0
0:00:00.00 127015 N 0 0 0
0:00:00.00 127388 N 0 0 0
0:00:00.00 127780 N 0 0 0
0:00:00.00 128160 N 0 0 0
0:00:00.00 128542 N 0 0 0
0:00:00.00 128930 N 0 0 0
0:00:00.00 129314 N 0 0 0
0:00:00.00 129690 N 0 0 0
0:00:00.00 130070 N 0 0 0
0:00:00.00 130446 N 0 0 0
0:00:00.00 130829 N 0 0 0
0:00:00.00 131209 N 0 0 0
0:00:00.00 131593 N 0 0 0
0:00:00.00 131994 N 0 0 0
0:00:00.00 132377 N 0 0 0
0:00:00.00 132784 N 0 0 0
0:00:00.00 133160 N 0 0 0
0:00:00.00 133560 N 0 0 0
0:00:00.00 133947 N 0 0 0
0:00:00.00 134356 N 0 0 0
0:00:00.00 134750 N 0 0 0
0:00:00.00 135164 N 0 0 0
0:00:00.00 135567 N 0 0 0
0:00:00.00 135965 N 0 0 0
0:00:00.00 136375 N 0 0 0
0:00:00.00 136760 N 0 0 0
0:00:00.00 137178 N 0 0 0
0:00:00.00 137563 N 0 0 0
0:00:00.00 137957 N 0 0 0
0:00:00.00 138355 N 0 0 0
0:00:00.00 138755 N 0 0 0
0:00:00.00 139149 N 0 0 0
0:00:00.00 139531 N 0 0 0
0:00:00.00 139903 N 0 0 0
0:00:00.00 140303 N 0 0 0
0:00:00.00 140704 N 0 0 0
0:00:00.00 141107 N 0 0 0
0:00:00.00 141505 N 0 0 0
0:00:00.00 141901 N 0 0 0
0:00:00.00 142301 N 0 0 0
0:00:00.00 142690 N 0 0 0
0:00:00.00 143100 N 0 0 0
0:00:00.00 143494 N 0 0 0
0:00:00.00 143912 N 0 0 0
0:00:00.00 144317 N 0 0 0
0:00:00.00 144749 N 0 0 0
0:00:00.00 145154 N 0 0 0
0:00:00.00 145570 N 0 0 0
0:00:00.00 145966 N 0 0 0
0:00:00.00 146392 N 0 0 0
0:00:00.00 146799 N 0 0 0
0:00:00.00 147220 N 0 0 0
0:00:00.00 147620 N 0 0 0
0:00:00.00 148028 N 0 0 0
0:00:00.00 148417 N 0 0 0
0:00:00.00 148824 N 0 0 0
0:00:00.00 149213 N 0 0 0
0:00:00.00 149618 N 0 0 0
0:00:00.00 150012 N 0 0 0
0:00:00.00 150417 N 0 0 0
0:00:00.00 150845 N 0 0 0
0:00:00.00 151250 N 0 0 0
0:00:00.00 151652 N 0 0 0
0:00:00.00 152050 N 0 0 0
0:00:00.00 152447 N 0 0 0
0:00:00.00 152827 N 0 0 0
0:00:00.00 153209 N 0 0 0
0:00:00.00 153598 N 0 0 0
0:00:00.00 153992 N 0 0 0
0:00:00.00 154375 N 0 0 0
0:00:00.00 154773 N 0 0 0
0:00:00.00 155160 N 0 0 0
0:00:00.00 155565 N 0 0 0
0:00:00.00 155961 N 0 0 0
0:00:00.00 156371 N 0 0 0
0:00:00.00 156782 N 0 0 0
0:00:00.00 157180 N 0 0 0
0:00:00.00 157572 N 0 0 0
0:00:00.00 157984 N 0 0 0
0:00:00.00 158393 N 0 0 0
0:00:00.00 158800 N 0 0 0
0:00:00.00 159199 N 0 0 0
0:00:00.00 159597 N 0 0 0
0:00:00.00 160006 N 0 0 0
0:00:00.00 160349 N 0 0 0
0:00:00.00 160819 N 0 0 0
0:00:00.00 161240 N 0 0 0
0:00:00.00 161656 N 0 0 0
0:00:00.00 162072 N 0 0 0
0:00:00.00 162486 N 0 0 0
0:00:00.00 162895 N 0 0 0
0:00:00.00 163300 N 0 0 0
0:00:00.00 163701 N 0 0 0
0:00:00.00 164113 N 0 0 0
0:00:00.00 164506 N 0 0 0
0:00:00.00 164927 N 0 0 0
0:00:00.00 165332 N 0 0 0
0:00:00.00 165755 N 0 0 0
0:00:00.00 166183 N 0 0 0
0:00:00.00 166608 N 0 0 0
0:00:00.00 167031 N 0 0 0
0:00:00.00 167459 N 0 0 0
0:00:00.00 167863 N 0 0 0
0:00:00.00 168287 N 0 0 0
0:00:00.00 168698 N 0 0 0
0:00:00.00 169135 N 0 0 0
0:00:00.00 169538 N 0 0 0
0:00:00.00 169963 N 0 0 0
0:00:00.00 170372 N 0 0 0
0:00:00.00 170791 N 0 0 0
0:00:00.00 171194 N 0 0 0
0:00:00.00 171617 N 0 0 0
0:00:00.00 172021 N 0 0 0
0:00:00.00 172433 N 0 0 0
0:00:00.00 172834 N 0 0 0
0:00:00.00 173243 N 0 0 0
0:00:00.00 173637 N 0 0 0
0:00:00.00 174035 N 0 0 0
0:00:00.00 174429 N 0 0 0
0:00:00.00 174823 N 0 0 0
0:00:00.00 175223 N 0 0 0
0:00:00.00 175604 N 0 0 0
0:00:00.00 176000 N 0 0 0
0:00:00.00 176380 N 0 0 0
0:00:00.00 176769 N 0 0 0
0:00:00.00 177154 N 0 0 0
0:00:00.00 177559 N 0 0 0
0:00:00.00 177961 N 0 0 0
0:00:00.00 178380 N 0 0 0
0:00:00.00 178801 N 0 0 0
0:00:00.00 179210 N 0 0 0
0:00:00.00 179624 N 0 0 0
0:00:00.00 180043 N 0 0 0
0:00:00.00 180468 N 0 0 0
0:00:00.00 180898 N 0 0 0
0:00:00.00 181323 N 0 0 0
0:00:00.00 181737 N 0 0 0
0:00:00.00 182174 N 0 0 0
0:00:00.00 182592 N 0 0 0
0:00:00.00 183033 N 0 0 0
0:00:00.00 183461 N 0 0 0
0:00:00.00 183899 N 0 0 0
0:00:00.00 184325 N 0 0 0
0:00:00.00 184768 N 0 0 0
0:00:00.00 185198 N 0 0 0
0:00:00.00 185641 N 0 0 0
0:00:00.00 186070 N 0 0 0
0:00:00.00 186500 N 0 0 0
0:00:00.00 186914 N 0 0 0
0:00:00.00 187331 N 0 0 0
0:00:00.00 187747 N 0 0 0
0:00:00.00 188185 N 0 0 0
0:00:00.00 188606 N 0 0 0
0:00:00.00 189054 N 0 0 0
0:00:00.00 189482 N 0 0 0
0:00:00.00 189893 N 0 0 0
0:00:00.00 190319 N 0 0 0
0:00:00.00 190724 N 0 0 0
0:00:00.00 191124 N 0 0 0
0:00:00.00 191502 N 0 0 0
0:00:00.00 191893 N 0 0 0
0:00:00.00 192317 N 0 0 0
0:00:00.00 192713 N 0 0 0
0:00:00.00 193122 N 0 0 0
0:00:00.00 193518 N 0 0 0
0:00:00.00 193916 N 0 0 0
0:00:00.00 194305 N 0 0 0
0:00:00.00 194657 N 0 0 0
0:00:00.00 195050 N 0 0 0
0:00:00.00 195424 N 0 0 0
0:00:00.00 195788 N 0 0 0
0:00:00.00 196169 N 0 0 0
0:00:00.00 196533 N 0 0 0
0:00:00.00 196911 N 0 0 0
0:00:00.00 197282 N 0 0 0
0:00:00.00 197644 N 0 0 0
0:00:00.00 198029 N 0 0 0
0:00:00.00 198407 N 0 0 0
0:00:00.00 198756 N 0 0 0
0:00:00.00 199130 N 0 0 0
0:00:00.00 199535 N 0 0 0
0:00:00.00 199859 N 0 0 0
0:00:00.00 200223 N 0 0 0
0:00:00.00 200599 N 0 0 0
0:00:00.00 200966 N 0 0 0
0:00:00.00 201357 N 0 0 0
0:00:00.00 201751 N 0 0 0
0:00:00.00 202145 N 0 0 0
0:00:00.00 202550 N 0 0 0
0:00:00.00 202948 N 0 0 0
0:00:00.00 203348 N 0 0 0
0:00:00.00 203756 N 0 0 0
0:00:00.00 204158 N 0 0 0
0:00:00.00 204568 N 0 0 0
0:00:00.00 204977 N 0 0 0
0:00:00.00 205385 N 0 0 0
0:00:00.00 205799 N 0 0 0
0:00:00.00 206204 N 0 0 0
0:00:00.00 206618 N 0 0 0
0:00:00.00 207020 N 0 0 0
0:00:00.00 207419 N 0 0 0
0:00:00.00 207817 N 0 0 0
0:00:00.00 208220 N 0 0 0
0:00:00.00 208629 N 0 0 0
0:00:00.00 209029 N 0 0 0
0:00:00.00 209430 N 0 0 0
0:00:00.00 209821 N 0 0 0
0:00:00.00 210236 N 0 0 0
0:00:00.00 210636 N 0 0 0
0:00:00.00 211046 N 0 0 0
0:00:00.00 211437 N 0 0 0
0:00:00.00 211837 N 0 0 0
0:00:00.00 212236 N 0 0 0
0:00:00.00 212632 N 0 0 0
0:00:00.00 213025 N 0 0 0
0:00:00.00 213406 N 0 0 0
0:00:00.00 213804 N 0 0 0
0:00:00.00 214211 N 0 0 0
0:00:00.00 214609 N 0 0 0
0:00:00.00 215010 N 0 0 0
0:00:00.00 215410 N 0 0 0
0:00:00.00 215784 N 0 0 0
0:00:00.00 216191 N 0 0 0
0:00:00.00 216574 N 0 0 0
0:00:00.00 216988 N 0 0 0
0:00:00.00 217373 N 0 0 0
0:00:00.00 217768 N 0 0 0
0:00:00.00 218164 N 0 0 0
0:00:00.00 218554 N 0 0 0
0:00:00.00 218952 N 0 0 0
0:00:00.00 219339 N 0 0 0
0:00:00.00 219724 N 0 0 0
0:00:00.00 220484 N 0 0 0
0:00:00.00 220876 N 0 0 0
0:00:00.00 221265 N 0 0 0
0:00:00.00 221555 N 0 0 0
0:00:00.00 222008 N 0 0 0
0:00:00.00 222408 N 0 0 0
0:00:00.00 222817 N 0 0 0
0:00:00.00 223200 N 0 0 0
0:00:00.00 223589 N 0 0 0
0:00:00.00 223969 N 0 0 0
0:00:00.00 224366 N 0 0 0
0:00:00.00 224755 N 0 0 0
0:00:00.00 225158 N 0 0 0
0:00:00.00 225545 N 0 0 0
0:00:00.00 225938 N 0 0 0
0:00:00.00 226330 N 0 0 0
0:00:00.00 226732 N 0 0 0
0:00:00.00 227128 N 0 0 0
0:00:00.00 227543 N 0 0 0
0:00:00.00 227927 N 0 0 0
0:00:00.00 228317 N 0 0 0
0:00:00.00 228731 N 0 0 0
0:00:00.00 229144 N 0 0 0
0:00:00.00 229552 N 0 0 0
0:00:00.00 229959 N 0 0 0
0:00:00.00 230366 N 0 0 0
0:00:00.00 230755 N 0 0 0
0:00:00.00 231156 N 0 0 0
0:00:00.00 231534 N 0 0 0
0:00:00.00 231932 N 0 0 0
0:00:00.00 232322 N 0 0 0
0:00:00.00 232724 N 0 0 0
0:00:00.00 233122 N 0 0 0
0:00:00.00 233503 N 0 0 0
0:00:00.00 233897 N 0 0 0
0:00:00.00 234281 N 0 0 0
0:00:00.00 234682 N 0 0 0
0:00:00.00 235076 N 0 0 0
0:00:00.00 235474 N 0 0 0
0:00:00.00 235856 N 0 0 0
0:00:00.00 236261 N 0 0 0
0:00:00.00 236648 N 0 0 0
0:00:00.00 237060 N 0 0 0
0:00:00.00 237451 N 0 0 0
0:00:00.00 237850 N 0 0 0
0:00:00.00 238250 N 0 0 0
0:00:00.00 238657 N 0 0 0
0:00:00.00 239058 N 0 0 0
0:00:00.00 239459 N 0 0 0
0:00:00.00 239861 N 0 0 0
0:00:00.00 240275 N 0 0 0
0:00:00.00 240687 N 0 0 0
0:00:00.00 241097 N 0 0 0
0:00:00.00 241502 N 0 0 0
0:00:00.00 241920 N 0 0 0
0:00:00.00 242338 N 0 0 0
0:00:00.00 242759 N 0 0 0
0:00:00.00 243173 N 0 0 0
0:00:00.00 243585 N 0 0 0
0:00:00.00 244017 N 0 0 0
0:00:00.00 244447 N 0 0 0
0:00:00.00 244877 N 0 0 0
0:00:00.00 245284 N 0 0 0
0:00:00.00 245696 N 0 0 0
0:00:00.00 246116 N 0 0 0
0:00:00.00 246510 N 0 0 0
0:00:00.00 246915 N 0 0 0
0:00:00.00 247286 N 0 0 0
0:00:00.00 247682 N 0 0 0
0:00:00.00 248071 N 0 0 0
0:00:00.00 248456 N 0 0 0
0:00:00.00 248868 N 0 0 0
0:00:00.00 249248 N 0 0 0
0:00:00.00 249649 N 0 0 0
0:00:00.00 250051 N 0 0 0
0:00:00.00 250447 N 0 0 0
0:00:00.00 250855 N 0 0 0
0:00:00.00 251231 N 0 0 0
0:00:00.00 251629 N 0 0 0
0:00:00.00 252013 N 0 0 0
0:00:00.00 252403 N 0 0 0
0:00:00.00 252801 N 0 0 0
0:00:00.00 253181 N 0 0 0
0:00:00.00 253571 N 0 0 0
0:00:00.00 253975 N 0 0 0
0:00:00.00 254385 N 0 0 0
0:00:00.00 254779 N 0 0 0
0:00:00.00 255177 N 0 0 0
0:00:00.00 255559 N 0 0 0
0:00:00.00 255953 N 0 0 0
0:00:00.00 256342 N 0 0 0
0:00:00.00 256745 N 0 0 0
0:00:00.00 257143 N 0 0 0
0:00:00.00 257553 N 0 0 0
0:00:00.00 257953 N 0 0 0
0:00:00.00 258374 N 0 0 0
0:00:00.00 258791 N 0 0 0
0:00:00.00 259205 N 0 0 0
0:00:00.00 259610 N 0 0 0
0:00:00.00 260035 N 0 0 0
0:00:00.00 260429 N 0 0 0
0:00:00.00 260845 N 0 0 0
0:00:00.00 261234 N 0 0 0
0:00:00.00 261639 N 0 0 0
0:00:00.00 262049 N 0 0 0
0:00:00.00 262451 N 0 0 0
0:00:00.00 262859 N 0 0 0
0:00:00.00 263250 N 0 0 0
0:00:00.00 263648 N 0 0 0
0:00:00.00 264047 N 0 0 0
0:00:00.00 264451 N 0 0 0
0:00:00.00 264854 N 0 0 0
0:00:00.00 265259 N 0 0 0
0:00:00.00 265660 N 0 0 0
0:00:00.00 266078 N 0 0 0
0:00:00.00 266467 N 0 0 0
0:00:00.00 266882 N 0 0 0
0:00:00.00 267269 N 0 0 0
0:00:00.00 267671 N 0 0 0
0:00:00.00 268072 N 0 0 0
0:00:00.00 268470 N 0 0 0
0:00:00.00 268880 N 0 0 0
0:00:00.00 269285 N 0 0 0
0:00:00.00 269690 N 0 0 0
0:00:00.00 270097 N 0 0 0
0:00:00.00 270508 N 0 0 0
0:00:00.00 270916 N 0 0 0
0:00:00.00 271327 N 0 0 0
0:00:00.00 271721 N 0 0 0
0:00:00.00 272142 N 0 0 0
0:00:00.00 272545 N 0 0 0
0:00:00.00 272968 N 0 0 0
0:00:00.00 273368 N 0 0 0
0:00:00.00 273771 N 0 0 0
0:00:00.00 274180 N 0 0 0
0:00:00.00 274599 N 0 0 0
0:00:00.00 275024 N 0 0 0
0:00:00.00 275427 N 0 0 0
0:00:00.00 275839 N 0 0 0
0:00:00.00 276248 N 0 0 0
0:00:00.00 276658 N 0 0 0
0:00:00.00 277067 N 0 0 0
0:00:00.00 277470 N 0 0 0
0:00:00.00 277879 N 0 0 0
0:00:00.00 278285 N 0 0 0
0:00:00.00 278692 N 0 0 0
0:00:00.00 279103 N 0 0 0
0:00:00.00 279499 N 0 0 0
0:00:00.00 279905 N 0 0 0
0:00:00.00 280301 N 0 0 0
0:00:00.00 280708 N 0 0 0
0:00:00.00 281101 N 0 0 0
0:00:00.00 281493 N 0 0 0
0:00:00.00 281884 N 0 0 0
0:00:00.00 282301 N 0 0 0
0:00:00.00 282713 N 0 0 0
0:00:00.00 283122 N 0 0 0
0:00:00.00 283525 N 0 0 0
0:00:00.00 283932 N 0 0 0
0:00:00.00 284351 N 0 0 0
0:00:00.00 284762 N 0 0 0
0:00:00.00 285176 N 0 0 0
0:00:00.00 285575 N 0 0 0
0:00:00.00 285997 N 0 0 0
0:00:00.00 286402 N 0 0 0
0:00:00.00 286821 N 0 0 0
0:00:00.00 287221 N 0 0 0
0:00:00.00 287660 N 0 0 0
0:00:00.00 288092 N 0 0 0
0:00:00.00 288506 N 0 0 0
0:00:00.00 288914 N 0 0 0
0:00:00.00 289325 N 0 0 0
0:00:00.00 289724 N 0 0 0
0:00:00.00 290131 N 0 0 0
0:00:00.00 290534 N 0 0 0
0:00:00.00 290957 N 0 0 0
0:00:00.00 291368 N 0 0 0
0:00:00.00 291764 N 0 0 0
0:00:00.00 292192 N 0 0 0
0:00:00.00 292606 N 0 0 0
0:00:00.00 293035 N 0 0 0
0:00:00.00 293440 N 0 0 0
0:00:00.00 293843 N 0 0 0
0:00:00.00 294242 N 0 0 0
0:00:00.00 294664 N 0 0 0
0:00:00.00 295069 N 0 0 0
0:00:00.00 295493 N 0 0 0
0:00:00.00 295906 N 0 0 0
0:00:00.00 296185 N 0 0 0
0:00:00.00 296723 N 0 0 0
0:00:00.00 297139 N 0 0 0
0:00:00.00 297556 N 0 0 0
0:00:00.00 297983 N 0 0 0
0:00:00.00 298377 N 0 0 0
0:00:00.00 298795 N 0 0 0
0:00:00.00 299189 N 0 0 0
0:00:00.00 299596 N 0 0 0
0:00:00.00 300011 N 0 0 0
0:00:00.00 300415 N 0 0 0
0:00:00.00 300850 N 0 0 0
0:00:00.00 301279 N 0 0 0
0:00:00.00 301703 N 0 0 0
0:00:00.00 302123 N 0 0 0
0:00:00.00 302546 N 0 0 0
0:00:00.00 302953 N 0 0 0
0:00:00.00 303363 N 0 0 0
0:00:00.00 303750 N 0 0 0
0:00:00.00 304153 N 0 0 0
0:00:00.00 304544 N 0 0 0
0:00:00.00 304942 N 0 0 0
0:00:00.00 305338 N 0 0 0
0:00:00.00 305728 N 0 0 0
0:00:00.00 306151 N 0 0 0
0:00:00.00 306547 N 0 0 0
0:00:00.00 306974 N 0 0 0
0:00:00.00 307372 N 0 0 0
0:00:00.00 307782 N 0 0 0
0:00:00.00 308196 N 0 0 0
0:00:00.00 308612 N 0 0 0
0:00:00.00 309028 N 0 0 0
0:00:00.00 309427 N 0 0 0
0:00:00.00 309832 N 0 0 0
0:00:00.00 310252 N 0 0 0
0:00:00.00 310676 N 0 0 0
0:00:00.00 311096 N 0 0 0
0:00:00.00 311504 N 0 0 0
0:00:00.00 311913 N 0 0 0
0:00:00.00 312316 N 0 0 0
0:00:00.00 312743 N 0 0 0
0:00:00.00 313146 N 0 0 0
0:00:00.00 313565 N 0 0 0
0:00:00.00 313978 N 0 0 0
0:00:00.00 314401 N 0 0 0
0:00:00.00 314822 N 0 0 0
0:00:00.00 315243 N 0 0 0
0:00:00.00 315650 N 0 0 0
0:00:00.00 316067 N 0 0 0
0:00:00.00 316490 N 0 0 0
0:00:00.00 316917 N 0 0 0
0:00:00.00 317338 N 0 0 0
0:00:00.00 317743 N 0 0 0
0:00:00.00 318177 N 0 0 0
0:00:00.00 318596 N 0 0 0
0:00:00.00 319025 N 0 0 0
0:00:00.00 319428 N 0 0 0
0:00:00.00 319860 N 0 0 0
0:00:00.00 320267 N 0 0 0
0:00:00.00 320695 N 0 0 0
0:00:00.00 321102 N 0 0 0
0:00:00.00 321521 N 0 0 0
0:00:00.00 321937 N 0 0 0
0:00:00.00 322351 N 0 0 0
0:00:00.00 322789 N 0 0 0
0:00:00.00 323195 N 0 0 0
0:00:00.00 323604 N 0 0 0
0:00:00.00 324036 N 0 0 0
0:00:00.00 324459 N 0 0 0
0:00:00.00 324880 N 0 0 0
0:00:00.00 325291 N 0 0 0
0:00:00.00 325703 N 0 0 0
0:00:00.00 326140 N 0 0 0
0:00:00.00 326560 N 0 0 0
0:00:00.00 326981 N 0 0 0
0:00:00.00 327398 N 0 0 0
0:00:00.00 327829 N 0 0 0
0:00:00.00 328239 N 0 0 0
0:00:00.00 328666 N 0 0 0
0:00:00.00 329063 N 0 0 0
0:00:00.00 329470 N 0 0 0
0:00:00.00 329886 N 0 0 0
0:00:00.00 330282 N 0 0 0
0:00:00.00 330696 N 0 0 0
0:00:00.00 331092 N 0 0 0
0:00:00.00 331488 N 0 0 0
0:00:00.00 331875 N 0 0 0
0:00:00.00 332282 N 0 0 0
0:00:00.00 332683 N 0 0 0
0:00:00.00 333081 N 0 0 0
0:00:00.00 333466 N 0 0 0
0:00:00.00 333851 N 0 0 0
0:00:00.00 334255 N 0 0 0
0:00:00.00 334683 N 0 0 0
0:00:00.00 335088 N 0 0 0
0:00:00.00 335511 N 0 0 0
0:00:00.00 335920 N 0 0 0
0:00:00.00 336334 N 0 0 0
0:00:00.00 336746 N 0 0 0
0:00:00.00 337163 N 0 0 0
0:00:00.00 337568 N 0 0 0
0:00:00.00 337934 N 0 0 0
0:00:00.00 338384 N 0 0 0
0:00:00.00 338825 N 0 0 0
0:00:00.00 339246 N 0 0 0
0:00:00.00 339689 N 0 0 0
0:00:00.00 340123 N 0 0 0
0:00:00.00 340547 N 0 0 0
0:00:00.00 340967 N 0 0 0
0:00:00.00 341383 N 0 0 0
0:00:00.00 341795 N 0 0 0
0:00:00.00 342211 N 0 0 0
0:00:00.00 342634 N 0 0 0
0:00:00.00 343033 N 0 0 0
0:00:00.00 343451 N 0 0 0
0:00:00.00 343867 N 0 0 0
0:00:00.00 344286 N 0 0 0
0:00:00.00 344702 N 0 0 0
0:00:00.00 345123 N 0 0 0
0:00:00.00 345544 N 0 0 0
0:00:00.00 345973 N 0 0 0
0:00:00.00 346372 N 0 0 0
0:00:00.00 346804 N 0 0 0
0:00:00.00 347209 N 0 0 0
0:00:00.00 347618 N 0 0 0
0:00:00.00 348034 N 0 0 0
0:00:00.00 348466 N 0 0 0
0:00:00.00 348874 N 0 0 0
0:00:00.00 349290 N 0 0 0
0:00:00.00 349700 N 0 0 0
0:00:00.00 350120 N 0 0 0
0:00:00.00 350541 N 0 0 0
0:00:00.00 350962 N 0 0 0
0:00:00.00 351373 N 0 0 0
0:00:00.00 351808 N 0 0 0
0:00:00.00 352219 N 0 0 0
0:00:00.00 352661 N 0 0 0
0:00:00.00 353099 N 0 0 0
0:00:00.00 353527 N 0 0 0
0:00:00.00 353956 N 0 0 0
0:00:00.00 354375 N 0 0 0
0:00:00.00 354800 N 0 0 0
0:00:00.00 355212 N 0 0 0
0:00:00.00 355619 N 0 0 0
0:00:00.00 356033 N 0 0 0
0:00:00.00 356452 N 0 0 0
0:00:00.00 356872 N 0 0 0
0:00:00.00 357296 N 0 0 0
0:00:00.00 357716 N 0 0 0
0:00:00.00 358133 N 0 0 0
0:00:00.00 358558 N 0 0 0
0:00:00.00 358961 N 0 0 0
0:00:00.00 359757 N 0 0 0
0:00:00.00 360167 N 0 0 0
0:00:00.00 360607 N 0 0 0
0:00:00.00 361019 N 0 0 0
0:00:00.00 361438 N 0 0 0
0:00:00.00 361861 N 0 0 0
0:00:00.00 362272 N 0 0 0
0:00:00.00 362687 N 0 0 0
0:00:00.00 363109 N 0 0 0
0:00:00.00 363521 N 0 0 0
0:00:00.00 363933 N 0 0 0
0:00:00.00 364329 N 0 0 0
0:00:00.00 364739 N 0 0 0
0:00:00.00 365137 N 0 0 0
0:00:00.00 365546 N 0 0 0
0:00:00.00 365963 N 0 0 0
0:00:00.00 366386 N 0 0 0
0:00:00.00 366804 N 0 0 0
0:00:00.00 367231 N 0 0 0
0:00:00.00 367648 N 0 0 0
0:00:00.00 368078 N 0 0 0
0:00:00.00 368494 N 0 0 0
0:00:00.00 368915 N 0 0 0
0:00:00.00 369331 N 0 0 0
0:00:00.00 369763 N 0 0 0
0:00:00.00 370183 N 0 0 0
0:00:00.00 370622 N 0 0 0
0:00:00.00 371034 N 0 0 0
0:00:00.00 371459 N 0 0 0
0:00:00.00 371884 N 0 0 0
0:00:00.00 372287 N 0 0 0
0:00:00.00 372719 N 0 0 0
0:00:00.00 373135 N 0 0 0
0:00:00.00 373540 N 0 0 0
0:00:00.00 373972 N 0 0 0
0:00:00.00 374407 N 0 0 0
0:00:00.00 374827 N 0 0 0
0:00:00.00 375233 N 0 0 0
0:00:00.00 375658 N 0 0 0
0:00:00.00 375959 N 0 0 0
0:00:00.00 376483 N 0 0 0
0:00:00.00 376880 N 0 0 0
0:00:00.00 377195 N 0 0 0
0:00:00.00 377716 N 0 0 0
0:00:00.00 378112 N 0 0 0
0:00:00.00 378461 N 0 0 0
0:00:00.00 378961 N 0 0 0
0:00:00.00 379375 N 0 0 0
0:00:00.00 379652 N 0 0 0
0:00:00.00 380189 N 0 0 0
0:00:00.00 380615 N 0 0 0
0:00:00.00 381026 N 0 0 0
0:00:00.00 381429 N 0 0 0
0:00:00.00 381802 N 0 0 0
0:00:00.00 382153 N 0 0 0
0:00:00.00 382516 N 0 0 0
0:00:00.00 382862 N 0 0 0
0:00:00.00 383222 N 0 0 0
0:00:00.00 383578 N 0 0 0
0:00:00.00 384138 N 0 0 0
0:00:00.00 384482 N 0 0 0
0:00:00.00 384975 N 0 0 0
0:00:00.00 385367 N 0 0 0
0:00:00.00 385785 N 0 0 0
0:00:00.00 386185 N 0 0 0
0:00:00.00 386635 N 0 0 0
0:00:00.00 387054 N 0 0 0
0:00:00.00 387470 N 0 0 0
0:00:00.00 387882 N 0 0 0
0:00:00.00 388305 N 0 0 0
0:00:00.00 388726 N 0 0 0
0:00:00.00 389140 N 0 0 0
0:00:00.00 389542 N 0 0 0
0:00:00.00 389974 N 0 0 0
0:00:00.00 390388 N 0 0 0
0:00:00.00 390823 N 0 0 0
0:00:00.00 391239 N 0 0 0
0:00:00.00 391712 N 0 0 0
0:00:00.00 392155 N 0 0 0
0:00:00.00 392596 N 0 0 0
0:00:00.00 393010 N 0 0 0
0:00:00.00 393430 N 0 0 0
0:00:00.00 393838 N 0 0 0
0:00:00.00 394258 N 0 0 0
0:00:00.00 394684 N 0 0 0
0:00:00.00 395107 N 0 0 0
0:00:00.00 395525 N 0 0 0
0:00:00.00 395953 N 0 0 0
0:00:00.00 396369 N 0 0 0
0:00:00.00 396785 N 0 0 0
0:00:00.00 397188 N 0 0 0
0:00:00.00 397602 N 0 0 0
0:00:00.00 398009 N 0 0 0
0:00:00.00 398434 N 0 0 0
0:00:00.00 398840 N 0 0 0
0:00:00.00 399249 N 0 0 0
0:00:00.00 399676 N 0 0 0
0:00:00.00 400073 N 0 0 0
0:00:00.00 400502 N 0 0 0
0:00:00.00 400900 N 0 0 0
0:00:00.00 401332 N 0 0 0
0:00:00.00 401764 N 0 0 0
0:00:00.00 402179 N 0 0 0
0:00:00.00 402611 N 0 0 0
0:00:00.00 403033 N 0 0 0
0:00:00.00 403461 N 0 0 0
0:00:00.00 403893 N 0 0 0
0:00:00.00 404334 N 0 0 0
0:00:00.00 404762 N 0 0 0
0:00:00.00 405193 N 0 0 0
0:00:00.00 405617 N 0 0 0
0:00:00.00 406039 N 0 0 0
0:00:00.00 406481 N 0 0 0
0:00:00.00 406897 N 0 0 0
0:00:00.00 407317 N 0 0 0
0:00:00.00 407738 N 0 0 0
0:00:00.00 408161 N 0 0 0
0:00:00.00 408593 N 0 0 0
0:00:00.00 409019 N 0 0 0
0:00:00.00 409455 N 0 0 0
0:00:00.00 409894 N 0 0 0
0:00:00.00 410332 N 0 0 0
0:00:00.00 410756 N 0 0 0
0:00:00.00 411205 N 0 0 0
0:00:00.00 411651 N 0 0 0
0:00:00.00 412076 N 0 0 0
0:00:00.00 412519 N 0 0 0
0:00:00.00 412947 N 0 0 0
0:00:00.00 413357 N 0 0 0
0:00:00.00 413784 N 0 0 0
0:00:00.00 414196 N 0 0 0
0:00:00.00 414634 N 0 0 0
0:00:00.00 415046 N 0 0 0
0:00:00.00 415471 N 0 0 0
0:00:00.00 415888 N 0 0 0
0:00:00.00 416317 N 0 0 0
0:00:00.00 416727 N 0 0 0
0:00:00.00 417154 N 0 0 0
0:00:00.00 417568 N 0 0 0
0:00:00.00 417982 N 0 0 0
0:00:00.00 418388 N 0 0 0
0:00:00.00 418797 N 0 0 0
0:00:00.00 419195 N 0 0 0
0:00:00.00 419611 N 0 0 0
0:00:00.00 420008 N 0 0 0
0:00:00.00 420422 N 0 0 0
0:00:00.00 420827 N 0 0 0
0:00:00.00 421225 N 0 0 0
0:00:00.00 421634 N 0 0 0
0:00:00.00 422041 N 0 0 0
0:00:00.00 422473 N 0 0 0
0:00:00.00 422894 N 0 0 0
0:00:00.00 423319 N 0 0 0
0:00:00.00 423738 N 0 0 0
0:00:00.00 424168 N 0 0 0
0:00:00.00 424597 N 0 0 0
0:00:00.00 425029 N 0 0 0
0:00:00.00 425450 N 0 0 0
0:00:00.00 425876 N 0 0 0
0:00:00.00 426310 N 0 0 0
0:00:00.00 426737 N 0 0 0
0:00:00.00 427151 N 0 0 0
0:00:00.00 427585 N 0 0 0
0:00:00.00 427993 N 0 0 0
0:00:00.00 428438 N 0 0 0
0:00:00.00 428850 N 0 0 0
0:00:00.00 429264 N 0 0 0
0:00:00.00 429676 N 0 0 0
0:00:00.00 430094 N 0 0 0
0:00:00.00 430501 N 0 0 0
0:00:00.00 430918 N 0 0 0
0:00:00.00 431312 N 0 0 0
0:00:00.00 431728 N 0 0 0
0:00:00.00 432137 N 0 0 0
0:00:00.00 432551 N 0 0 0
0:00:00.00 432938 N 0 0 0
0:00:00.00 433334 N 0 0 0
0:00:00.00 433744 N 0 0 0
0:00:00.00 434167 N 0 0 0
0:00:00.00 434574 N 0 0 0
0:00:00.00 434995 N 0 0 0
0:00:00.00 435406 N 0 0 0
0:00:00.00 435830 N 0 0 0
0:00:00.00 436252 N 0 0 0
0:00:00.00 436673 N 0 0 0
0:00:00.00 437083 N 0 0 0
0:00:00.00 437517 N 0 0 0
0:00:00.00 437918 N 0 0 0
0:00:00.00 438347 N 0 0 0
0:00:00.00 438754 N 0 0 0
0:00:00.00 439007 N 0 0 0
0:00:00.00 439483 N 0 0 0
0:00:00.00 439916 N 0 0 0
0:00:00.00 440356 N 0 0 0
0:00:00.00 440777 N 0 0 0
0:00:00.00 441196 N 0 0 0
0:00:00.00 441614 N 0 0 0
0:00:00.00 442040 N 0 0 0
0:00:00.00 442454 N 0 0 0
0:00:00.00 442867 N 0 0 0
0:00:00.00 443273 N 0 0 0
0:00:00.00 443698 N 0 0 0
0:00:00.00 444118 N 0 0 0
0:00:00.00 444550 N 0 0 0
0:00:00.00 444956 N 0 0 0
0:00:00.00 445381 N 0 0 0
0:00:00.00 445795 N 0 0 0
0:00:00.00 446224 N 0 0 0
0:00:00.00 446623 N 0 0 0
0:00:00.00 447046 N 0 0 0
0:00:00.00 447466 N 0 0 0
0:00:00.00 447887 N 0 0 0
0:00:00.00 448312 N 0 0 0
0:00:00.00 448731 N 0 0 0
0:00:00.00 449129 N 0 0 0
0:00:00.00 449561 N 0 0 0
0:00:00.00 449960 N 0 0 0
0:00:00.00 450387 N 0 0 0
0:00:00.00 450790 N 0 0 0
0:00:00.00 451193 N 0 0 0
0:00:00.00 451604 N 0 0 0
0:00:00.00 452009 N 0 0 0
0:00:00.00 452425 N 0 0 0
0:00:00.00 452821 N 0 0 0
0:00:00.00 453233 N 0 0 0
0:00:00.00 453649 N 0 0 0
0:00:00.00 454068 N 0 0 0
0:00:00.00 454478 N 0 0 0
0:00:00.00 454889 N 0 0 0
0:00:00.00 455296 N 0 0 0
0:00:00.00 455717 N 0 0 0
0:00:00.00 456134 N 0 0 0
0:00:00.00 456556 N 0 0 0
0:00:00.00 456970 N 0 0 0
0:00:00.00 457402 N 0 0 0
0:00:00.00 457814 N 0 0 0
0:00:00.00 458248 N 0 0 0
0:00:00.00 458658 N 0 0 0
0:00:00.00 459074 N 0 0 0
0:00:00.00 459484 N 0 0 0
0:00:00.00 459909 N 0 0 0
0:00:00.00 460341 N 0 0 0
0:00:00.00 460775 N 0 0 0
0:00:00.00 461198 N 0 0 0
0:00:00.00 461630 N 0 0 0
0:00:00.00 462053 N 0 0 0
0:00:00.00 462481 N 0 0 0
0:00:00.00 462895 N 0 0 0
0:00:00.00 463325 N 0 0 0
0:00:00.00 463723 N 0 0 0
0:00:00.00 464155 N 0 0 0
0:00:00.00 464573 N 0 0 0
0:00:00.00 464996 N 0 0 0
0:00:00.00 465422 N 0 0 0
0:00:00.00 465858 N 0 0 0
0:00:00.00 466283 N 0 0 0
0:00:00.00 466704 N 0 0 0
0:00:00.00 467114 N 0 0 0
0:00:00.00 467539 N 0 0 0
0:00:00.00 467971 N 0 0 0
0:00:00.00 468380 N 0 0 0
0:00:00.00 468799 N 0 0 0
0:00:00.00 469219 N 0 0 0
0:00:00.00 469631 N 0 0 0
0:00:00.00 470041 N 0 0 0
0:00:00.00 470453 N 0 0 0
0:00:00.00 470864 N 0 0 0
0:00:00.00 471280 N 0 0 0
0:00:00.00 471688 N 0 0 0
0:00:00.00 472102 N 0 0 0
0:00:00.00 472509 N 0 0 0
0:00:00.00 472912 N 0 0 0
0:00:00.00 473315 N 0 0 0
0:00:00.00 473708 N 0 0 0
0:00:00.00 474104 N 0 0 0
0:00:00.00 474469 N 0 0 0
0:00:00.00 474829 N 0 0 0
0:00:00.00 475180 N 0 0 0
0:00:00.00 475542 N 0 0 0
0:00:00.00 475916 N 0 0 0
0:00:00.00 476275 N 0 0 0
0:00:00.00 476642 N 0 0 0
0:00:00.00 477011 N 0 0 0
0:00:00.00 477385 N 0 0 0
0:00:00.00 477765 N 0 0 0
0:00:00.00 478148 N 0 0 0
0:00:00.00 478525 N 0 0 0
0:00:00.00 478924 N 0 0 0
0:00:00.00 479311 N 0 0 0
0:00:00.00 479695 N 0 0 0
0:00:00.00 480083 N 0 0 0
0:00:00.00 480474 N 0 0 0
0:00:00.00 480865 N 0 0 0
0:00:00.00 481266 N 0 0 0
0:00:00.00 481664 N 0 0 0
0:00:00.00 482080 N 0 0 0
0:00:00.00 482503 N 0 0 0
0:00:00.00 482909 N 0 0 0
0:00:00.00 483340 N 0 0 0
0:00:00.00 483746 N 0 0 0
0:00:00.00 484160 N 0 0 0
0:00:00.00 484551 N 0 0 0
0:00:00.00 484943 N 0 0 0
0:00:00.00 485332 N 0 0 0
0:00:00.00 485723 N 0 0 0
0:00:00.00 486112 N 0 0 0
0:00:00.00 486506 N 0 0 0
0:00:00.00 486886 N 0 0 0
0:00:00.00 487282 N 0 0 0
0:00:00.00 487665 N 0 0 0
0:00:00.00 488059 N 0 0 0
0:00:00.00 488457 N 0 0 0
0:00:00.00 488839 N 0 0 0
0:00:00.00 489247 N 0 0 0
0:00:00.00 489632 N 0 0 0
0:00:00.00 490046 N 0 0 0
0:00:00.00 490432 N 0 0 0
0:00:00.00 490833 N 0 0 0
0:00:00.00 491233 N 0 0 0
0:00:00.00 491620 N 0 0 0
0:00:00.00 492019 N 0 0 0
0:00:00.00 492412 N 0 0 0
0:00:00.00 492797 N 0 0 0
0:00:00.00 493184 N 0 0 0
0:00:00.00 493567 N 0 0 0
0:00:00.00 493965 N 0 0 0
0:00:00.00 494366 N 0 0 0
0:00:00.00 494757 N 0 0 0
0:00:00.00 495169 N 0 0 0
0:00:00.00 495563 N 0 0 0
0:00:00.00 495959 N 0 0 0
0:00:00.00 496373 N 0 0 0
0:00:00.00 496768 N 0 0 0
0:00:00.00 497187 N 0 0 0
0:00:00.00 497567 N 0 0 0
0:00:00.00 497972 N 0 0 0
0:00:00.00 498352 N 0 0 0
0:00:00.00 498744 N 0 0 0
0:00:00.00 499140 N 0 0 0
0:00:00.00 499527 N 0 0 0
0:00:00.00 499923 N 0 0 0
0:00:00.00 500308 N 0 0 0
0:00:00.00 500699 N 0 0 0
0:00:00.00 501086 N 0 0 0
0:00:00.00 501466 N 0 0 0
0:00:00.00 501849 N 0 0 0
0:00:00.00 502231 N 0 0 0
0:00:00.00 502603 N 0 0 0
0:00:00.00 502978 N 0 0 0
0:00:00.00 503356 N 0 0 0
0:00:00.00 503732 N 0 0 0
0:00:00.00 504113 N 0 0 0
0:00:00.00 504491 N 0 0 0
0:00:00.00 504875 N 0 0 0
0:00:00.00 505271 N 0 0 0
0:00:00.00 505580 N 0 0 0
0:00:00.00 506050 N 0 0 0
0:00:00.00 506425 N 0 0 0
0:00:00.00 506671 N 0 0 0
0:00:00.00 507172 N 0 0 0
0:00:00.00 507544 N 0 0 0
0:00:00.00 507841 N 0 0 0
0:00:00.00 508334 N 0 0 0
0:00:00.00 508702 N 0 0 0
0:00:00.00 509047 N 0 0 0
0:00:00.00 509472 N 0 0 0
0:00:00.00 509863 N 0 0 0
0:00:00.00 510233 N 0 0 0
0:00:00.00 510613 N 0 0 0
0:00:00.00 510989 N 0 0 0
0:00:00.00 511375 N 0 0 0
0:00:00.00 511758 N 0 0 0
0:00:00.00 512141 N 0 0 0
0:00:00.00 512525 N 0 0 0
0:00:00.00 512917 N 0 0 0
0:00:00.00 513301 N 0 0 0
0:00:00.00 513698 N 0 0 0
0:00:00.00 514078 N 0 0 0
0:00:00.00 514454 N 0 0 0
0:00:00.00 514823 N 0 0 0
0:00:00.00 515209 N 0 0 0
0:00:00.00 515588 N 0 0 0
0:00:00.00 515979 N 0 0 0
0:00:00.00 516348 N 0 0 0
0:00:00.00 516730 N 0 0 0
0:00:00.00 517113 N 0 0 0
0:00:00.00 517496 N 0 0 0
0:00:00.00 517878 N 0 0 0
0:00:00.00 518258 N 0 0 0
0:00:00.00 518625 N 0 0 0
0:00:00.00 519010 N 0 0 0
0:00:00.00 519368 N 0 0 0
0:00:00.00 519755 N 0 0 0
0:00:00.00 520121 N 0 0 0
0:00:00.00 520501 N 0 0 0
0:00:00.00 520884 N 0 0 0
0:00:00.00 521271 N 0 0 0
0:00:00.00 521662 N 0 0 0
0:00:00.00 522043 N 0 0 0
0:00:00.00 522425 N 0 0 0
0:00:00.00 522801 N 0 0 0
0:00:00.00 523183 N 0 0 0
0:00:00.00 523568 N 0 0 0
0:00:00.00 523949 N 0 0 0
0:00:00.00 524329 N 0 0 0
0:00:00.00 524711 N 0 0 0
0:00:00.00 525101 N 0 0 0
0:00:00.00 525492 N 0 0 0
0:00:00.00 525884 N 0 0 0
0:00:00.00 526266 N 0 0 0
0:00:00.00 526640 N 0 0 0
0:00:00.00 527026 N 0 0 0
0:00:00.00 527395 N 0 0 0
0:00:00.00 527774 N 0 0 0
0:00:00.00 528143 N 0 0 0
0:00:00.00 528518 N 0 0 0
0:00:00.00 528910 N 0 0 0
0:00:00.00 529294 N 0 0 0
0:00:00.00 529684 N 0 0 0
0:00:00.00 530066 N 0 0 0
0:00:00.00 530447 N 0 0 0
0:00:00.00 530836 N 0 0 0
0:00:00.00 531221 N 0 0 0
0:00:00.00 531608 N 0 0 0
0:00:00.00 531985 N 0 0 0
0:00:00.00 532355 N 0 0 0
0:00:00.00 532730 N 0 0 0
0:00:00.00 533119 N 0 0 0
0:00:00.00 533507 N 0 0 0
0:00:00.00 533900 N 0 0 0
0:00:00.00 534281 N 0 0 0
0:00:00.00 534658 N 0 0 0
0:00:00.00 535041 N 0 0 0
0:00:00.00 535424 N 0 0 0
0:00:00.00 535815 N 0 0 0
0:00:00.00 536193 N 0 0 0
0:00:00.00 536553 N 0 0 0
0:00:00.00 536935 N 0 0 0
0:00:00.00 537293 N 0 0 0
0:00:00.00 537680 N 0 0 0
0:00:00.00 538045 N 0 0 0
0:00:00.00 538420 N 0 0 0
0:00:00.00 538787 N 0 0 0
0:00:00.00 539158 N 0 0 0
0:00:00.00 539537 N 0 0 0
0:00:00.00 539906 N 0 0 0
0:00:00.00 540259 N 0 0 0
0:00:00.00 540608 N 0 0 0
0:00:00.00 540983 N 0 0 0
0:00:00.00 541355 N 0 0 0
0:00:00.00 541719 N 0 0 0
0:00:00.00 542072 N 0 0 0
0:00:00.00 542430 N 0 0 0
0:00:00.00 542799 N 0 0 0
0:00:00.00 543152 N 0 0 0
0:00:00.00 543461 N 0 0 0
0:00:00.00 543827 N 0 0 0
0:00:00.00 544178 N 0 0 0
0:00:00.00 544534 N 0 0 0
0:00:00.00 544907 N 0 0 0
0:00:00.00 545272 N 0 0 0
0:00:00.00 545629 N 0 0 0
0:00:00.00 545972 N 0 0 0
0:00:00.00 546323 N 0 0 0
0:00:00.00 546685 N 0 0 0
0:00:00.00 547040 N 0 0 0
0:00:00.00 547403 N 0 0 0
0:00:00.00 547783 N 0 0 0
0:00:00.00 548163 N 0 0 0
0:00:00.00 548546 N 0 0 0
0:00:00.00 548951 N 0 0 0
0:00:00.00 549355 N 0 0 0
0:00:00.00 549756 N 0 0 0
0:00:00.00 550143 N 0 0 0
0:00:00.00 550544 N 0 0 0
0:00:00.00 550946 N 0 0 0
0:00:00.00 551365 N 0 0 0
0:00:00.00 551772 N 0 0 0
0:00:00.00 552177 N 0 0 0
0:00:00.00 552580 N 0 0 0
0:00:00.00 552991 N 0 0 0
0:00:00.00 553396 N 0 0 0
0:00:00.00 553792 N 0 0 0
0:00:00.00 554175 N 0 0 0
0:00:00.00 554573 N 0 0 0
0:00:00.00 554963 N 0 0 0
0:00:00.00 555367 N 0 0 0
0:00:00.00 555770 N 0 0 0
0:00:00.00 556153 N 0 0 0
0:00:00.00 556547 N 0 0 0
0:00:00.00 556931 N 0 0 0
0:00:00.00 557329 N 0 0 0
0:00:00.00 557719 N 0 0 0
0:00:00.00 558097 N 0 0 0
0:00:00.00 558484 N 0 0 0
0:00:00.00 558857 N 0 0 0
0:00:00.00 559237 N 0 0 0
0:00:00.00 559624 N 0 0 0
0:00:00.00 560007 N 0 0 0
0:00:00.00 560383 N 0 0 0
0:00:00.00 560770 N 0 0 0
0:00:00.00 561141 N 0 0 0
0:00:00.00 561528 N 0 0 0
0:00:00.00 561920 N 0 0 0
0:00:00.00 562304 N 0 0 0
0:00:00.00 562700 N 0 0 0
0:00:00.00 563074 N 0 0 0
0:00:00.00 563470 N 0 0 0
0:00:00.00 563850 N 0 0 0
0:00:00.00 564235 N 0 0 0
0:00:00.00 564631 N 0 0 0
0:00:00.00 565013 N 0 0 0
0:00:00.00 565286 N 0 0 0
0:00:00.00 565796 N 0 0 0
0:00:00.00 566190 N 0 0 0
0:00:00.00 566597 N 0 0 0
0:00:00.00 566980 N 0 0 0
0:00:00.00 567374 N 0 0 0
0:00:00.00 567751 N 0 0 0
0:00:00.00 568138 N 0 0 0
0:00:00.00 568523 N 0 0 0
0:00:00.00 568908 N 0 0 0
0:00:00.00 569297 N 0 0 0
0:00:00.00 569680 N 0 0 0
0:00:00.00 570060 N 0 0 0
0:00:00.00 570431 N 0 0 0
0:00:00.00 570794 N 0 0 0
0:00:00.00 571149 N 0 0 0
0:00:00.00 571514 N 0 0 0
0:00:00.00 571865 N 0 0 0
0:00:00.00 572231 N 0 0 0
0:00:00.00 572627 N 0 0 0
0:00:00.00 573025 N 0 0 0
0:00:00.00 573435 N 0 0 0
0:00:00.00 573822 N 0 0 0
0:00:00.00 574200 N 0 0 0
0:00:00.00 574596 N 0 0 0
0:00:00.00 574969 N 0 0 0
0:00:00.00 575359 N 0 0 0
0:00:00.00 575717 N 0 0 0
0:00:00.00 576094 N 0 0 0
0:00:00.00 576470 N 0 0 0
0:00:00.00 576824 N 0 0 0
0:00:00.00 577193 N 0 0 0
0:00:00.00 577548 N 0 0 0
0:00:00.00 577915 N 0 0 0
0:00:00.00 578297 N 0 0 0
0:00:00.00 578680 N 0 0 0
0:00:00.00 579065 N 0 0 0
0:00:00.00 579434 N 0 0 0
0:00:00.00 579791 N 0 0 0
0:00:00.00 580167 N 0 0 0
0:00:00.00 580541 N 0 0 0
0:00:00.00 580909 N 0 0 0
0:00:00.00 581297 N 0 0 0
0:00:00.00 581666 N 0 0 0
0:00:00.00 582052 N 0 0 0
0:00:00.00 582428 N 0 0 0
0:00:00.00 582815 N 0 0 0
0:00:00.00 583204 N 0 0 0
0:00:00.00 583587 N 0 0 0
0:00:00.00 583952 N 0 0 0
0:00:00.00 584327 N 0 0 0
0:00:00.00 584685 N 0 0 0
0:00:00.00 585049 N 0 0 0
0:00:00.00 585423 N 0 0 0
0:00:00.00 585779 N 0 0 0
0:00:00.00 586130 N 0 0 0
0:00:00.00 586507 N 0 0 0
0:00:00.00 586870 N 0 0 0
0:00:00.00 587248 N 0 0 0
0:00:00.00 587612 N 0 0 0
0:00:00.00 587966 N 0 0 0
0:00:00.00 588330 N 0 0 0
0:00:00.00 588686 N 0 0 0
0:00:00.00 589059 N 0 0 0
0:00:00.00 589424 N 0 0 0
0:00:00.00 589810 N 0 0 0
0:00:00.00 590186 N 0 0 0
0:00:00.00 590576 N 0 0 0
0:00:00.00 590956 N 0 0 0
0:00:00.00 591336 N 0 0 0
0:00:00.00 591734 N 0 0 0
0:00:00.00 592114 N 0 0 0
0:00:00.00 592508 N 0 0 0
0:00:00.00 592882 N 0 0 0
0:00:00.00 593276 N 0 0 0
0:00:00.00 593649 N 0 0 0
0:00:00.00 594018 N 0 0 0
0:00:00.00 594394 N 0 0 0
0:00:00.00 594761 N 0 0 0
0:00:00.00 595134 N 0 0 0
0:00:00.00 595480 N 0 0 0
0:00:00.00 595854 N 0 0 0
0:00:00.00 596214 N 0 0 0
0:00:00.00 596570 N 0 0 0
0:00:00.00 596929 N 0 0 0
0:00:00.00 597271 N 0 0 0
0:00:00.00 597620 N 0 0 0
0:00:00.00 597947 N 0 0 0
0:00:00.00 598306 N 0 0 0
0:00:00.00 598653 N 0 0 0
0:00:00.00 599009 N 0 0 0
0:00:00.00 599243 N 0 0 0
0:00:00.00 599652 N 0 0 0
0:00:00.00 600023 N 0 0 0
0:00:00.00 600395 N 0 0 0
0:00:00.00 600741 N 0 0 0
0:00:00.00 601094 N 0 0 0
0:00:00.00 601412 N 0 0 0
0:00:00.00 601754 N 0 0 0
0:00:00.00 602104 N 0 0 0
0:00:00.00 602433 N 0 0 0
0:00:00.00 602788 N 0 0 0
0:00:00.00 603124 N 0 0 0
0:00:00.00 603472 N 0 0 0
0:00:00.00 603821 N 0 0 0
0:00:00.00 604183 N 0 0 0
0:00:00.00 604532 N 0 0 0
0:00:00.00 604885 N 0 0 0
0:00:00.00 605237 N 0 0 0
0:00:00.00 605590 N 0 0 0
0:00:00.00 605948 N 0 0 0
0:00:00.00 606308 N 0 0 0
0:00:00.00 606661 N 0 0 0
0:00:00.00 607030 N 0 0 0
0:00:00.00 607390 N 0 0 0
0:00:00.00 607741 N 0 0 0
0:00:00.00 608105 N 0 0 0
0:00:00.00 608454 N 0 0 0
0:00:00.00 608810 N 0 0 0
0:00:00.00 609165 N 0 0 0
0:00:00.00 609496 N 0 0 0
0:00:00.00 609836 N 0 0 0
0:00:00.00 610200 N 0 0 0
0:00:00.00 610546 N 0 0 0
0:00:00.00 610898 N 0 0 0
0:00:00.00 611239 N 0 0 0
0:00:00.00 611590 N 0 0 0
0:00:00.00 611928 N 0 0 0
0:00:00.00 612277 N 0 0 0
0:00:00.00 612610 N 0 0 0
0:00:00.00 612954 N 0 0 0
0:00:00.00 613294 N 0 0 0
0:00:00.00 613651 N 0 0 0
0:00:00.00 613991 N 0 0 0
0:00:00.00 614342 N 0 0 0
0:00:00.00 614686 N 0 0 0
0:00:00.00 615035 N 0 0 0
0:00:00.00 615384 N 0 0 0
0:00:00.00 615724 N 0 0 0
0:00:00.00 616081 N 0 0 0
0:00:00.00 616415 N 0 0 0
0:00:00.00 616626 N 0 0 0
0:00:00.00 617081 N 0 0 0
0:00:00.00 617443 N 0 0 0
0:00:00.00 617794 N 0 0 0
0:00:00.00 618138 N 0 0 0
0:00:00.00 618482 N 0 0 0
0:00:00.00 618840 N 0 0 0
0:00:00.00 619182 N 0 0 0
0:00:00.00 619517 N 0 0 0
0:00:00.00 619850 N 0 0 0
0:00:00.00 620199 N 0 0 0
0:00:00.00 620543 N 0 0 0
0:00:00.00 620901 N 0 0 0
0:00:00.00 621270 N 0 0 0
0:00:00.00 621628 N 0 0 0
0:00:00.00 621995 N 0 0 0
0:00:00.00 622366 N 0 0 0
0:00:00.00 622732 N 0 0 0
0:00:00.00 623101 N 0 0 0
0:00:00.00 623457 N 0 0 0
0:00:00.00 623831 N 0 0 0
0:00:00.00 624184 N 0 0 0
0:00:00.00 624537 N 0 0 0
0:00:00.00 624928 N 0 0 0
0:00:00.00 625293 N 0 0 0
0:00:00.00 625642 N 0 0 0
0:00:00.00 626022 N 0 0 0
0:00:00.00 626386 N 0 0 0
0:00:00.00 626756 N 0 0 0
0:00:00.00 627111 N 0 0 0
0:00:00.00 627476 N 0 0 0
0:00:00.00 627860 N 0 0 0
0:00:00.00 628240 N 0 0 0
0:00:00.00 628639 N 0 0 0
0:00:00.00 629053 N 0 0 0
0:00:00.00 629469 N 0 0 0
0:00:00.00 629899 N 0 0 0
0:00:00.00 630297 N 0 0 0
0:00:00.00 630715 N 0 0 0
0:00:00.00 631111 N 0 0 0
0:00:00.00 631510 N 0 0 0
0:00:00.00 631908 N 0 0 0
0:00:00.00 632295 N 0 0 0
0:00:00.00 632705 N 0 0 0
0:00:00.00 633083 N 0 0 0
0:00:00.00 633470 N 0 0 0
0:00:00.00 633877 N 0 0 0
0:00:00.00 634244 N 0 0 0
0:00:00.00 634637 N 0 0 0
0:00:00.00 635027 N 0 0 0
0:00:00.00 635407 N 0 0 0
0:00:00.00 635794 N 0 0 0
0:00:00.00 636158 N 0 0 0
0:00:00.00 636534 N 0 0 0
0:00:00.00 636901 N 0 0 0
0:00:00.00 637268 N 0 0 0
0:00:00.00 637637 N 0 0 0
0:00:00.00 638008 N 0 0 0
0:00:00.00 638365 N 0 0 0
0:00:00.00 638761 N 0 0 0
0:00:00.00 639130 N 0 0 0
0:00:00.00 639486 N 0 0 0
0:00:00.00 639853 N 0 0 0
0:00:00.00 640228 N 0 0 0
0:00:00.00 640606 N 0 0 0
0:00:00.00 640962 N 0 0 0
0:00:00.00 641326 N 0 0 0
0:00:00.00 641687 N 0 0 0
0:00:00.00 642051 N 0 0 0
0:00:00.00 642440 N 0 0 0
0:00:00.00 642803 N 0 0 0
0:00:00.00 643158 N 0 0 0
0:00:00.00 643531 N 0 0 0
0:00:00.00 643910 N 0 0 0
0:00:00.00 644274 N 0 0 0
0:00:00.00 644650 N 0 0 0
0:00:00.00 645034 N 0 0 0
0:00:00.00 645401 N 0 0 0
0:00:00.00 645772 N 0 0 0
0:00:00.00 646146 N 0 0 0
0:00:00.00 646544 N 0 0 0
0:00:00.00 646915 N 0 0 0
0:00:00.00 647296 N 0 0 0
0:00:00.00 647683 N 0 0 0
0:00:00.00 648047 N 0 0 0
0:00:00.00 648421 N 0 0 0
0:00:00.00 648788 N 0 0 0
0:00:00.00 649148 N 0 0 0
0:00:00.00 649514 N 0 0 0
0:00:00.00 649881 N 0 0 0
