0:00:00.00 487 N 0 0 0
0:00:00.00 688 N 0 0 0
0:00:00.00 964 N 0 0 0
0:00:00.00 1146 N 0 0 0
0:00:00.00 1433 N 0 0 0
0:00:00.00 1609 N 0 0 0
0:00:00.00 1882 N 0 0 0
0:00:00.00 2071 N 0 0 0
0:00:00.00 2331 N 0 0 0
0:00:00.00 2506 N 0 0 0
0:00:00.00 2785 N 0 0 0
0:00:00.00 2987 N 0 0 0
0:00:00.00 3300 N 0 0 0
0:00:00.00 3483 N 0 0 0
0:00:00.00 3975 N 0 0 0
0:00:00.00 4416 N 0 0 0
0:00:00.00 4646 N 0 0 0
0:00:00.00 4881 N 0 0 0
0:00:00.00 5135 N 0 0 0
0:00:00.00 5382 N 0 0 0
0:00:00.00 5606 N 0 0 0
0:00:00.00 5822 N 0 0 0
0:00:00.00 6088 N 0 0 0
0:00:00.00 6284 N 0 0 0
0:00:00.00 6547 N 0 0 0
0:00:00.00 6718 N 0 0 0
0:00:00.00 7077 N 0 0 0
0:00:00.00 7259 N 0 0 0
0:00:00.00 7462 N 0 0 0
0:00:00.00 7899 N 0 0 0
0:00:00.00 8074 N 0 0 0
0:00:00.00 8394 N 0 0 0
0:00:00.00 8576 N 0 0 0
0:00:00.00 8728 N 0 0 0
0:00:00.00 9170 N 0 0 0
0:00:00.00 9383 N 0 0 0
0:00:00.00 9711 N 0 0 0
0:00:00.00 9963 N 0 0 0
0:00:00.00 10197 N 0 0 0
0:00:00.00 10437 N 0 0 0
0:00:00.00 10674 N 0 0 0
0:00:00.00 10901 N 0 0 0
0:00:00.00 11132 N 0 0 0
0:00:00.00 11362 N 0 0 0
0:00:00.00 11617 N 0 0 0
0:00:00.00 11858 N 0 0 0
0:00:00.00 12159 N 0 0 0
0:00:00.00 12363 N 0 0 0
0:00:00.00 12721 N 0 0 0
0:00:00.00 12900 N 0 0 0
0:00:00.00 13054 N 0 0 0
0:00:00.00 13523 N 0 0 0
0:00:00.00 13732 N 0 0 0
0:00:00.00 14101 N 0 0 0
0:00:00.00 14361 N 0 0 0
0:00:00.00 14548 N 0 0 0
0:00:00.00 14903 N 0 0 0
0:00:00.00 15084 N 0 0 0
0:00:00.00 15411 N 0 0 0
0:00:00.00 15595 N 0 0 0
0:00:00.00 15928 N 0 0 0
0:00:00.00 16389 N 0 0 0
0:00:00.00 16695 N 0 0 0
0:00:00.00 16879 N 0 0 0
0:00:00.00 17164 N 0 0 0
0:00:00.00 17336 N 0 0 0
0:00:00.00 17666 N 0 0 0
0:00:00.00 17859 N 0 0 0
0:00:00.00 18200 N 0 0 0
0:00:00.00 18382 N 0 0 0
0:00:00.00 18697 N 0 0 0
0:00:00.00 18940 N 0 0 0
0:00:00.00 19134 N 0 0 0
0:00:00.00 19433 N 0 0 0
0:00:00.00 19608 N 0 0 0
0:00:00.00 19915 N 0 0 0
0:00:00.00 20097 N 0 0 0
0:00:00.00 20431 N 0 0 0
0:00:00.00 20640 N 0 0 0
0:00:00.00 20954 N 0 0 0
0:00:00.00 21120 N 0 0 0
0:00:00.00 21391 N 0 0 0
0:00:00.00 21573 N 0 0 0
0:00:00.00 21873 N 0 0 0
0:00:00.00 22057 N 0 0 0
0:00:00.00 22389 N 0 0 0
0:00:00.00 22646 N 0 0 0
0:00:00.00 22880 N 0 0 0
0:00:00.00 23122 N 0 0 0
0:00:00.00 23348 N 0 0 0
0:00:00.00 23602 N 0 0 0
0:00:00.00 23857 N 0 0 0
0:00:00.00 24098 N 0 0 0
0:00:00.00 24341 N 0 0 0
0:00:00.00 24596 N 0 0 0
0:00:00.00 24824 N 0 0 0
0:00:00.00 25103 N 0 0 0
0:00:00.00 25312 N 0 0 0
0:00:00.00 25627 N 0 0 0
0:00:00.00 25795 N 0 0 0
0:00:00.00 25995 N 0 0 0
0:00:00.00 26388 N 0 0 0
0:00:00.00 26593 N 0 0 0
0:00:00.00 26919 N 0 0 0
0:00:00.00 27108 N 0 0 0
0:00:00.00 27474 N 0 0 0
0:00:00.00 27651 N 0 0 0
0:00:00.00 28018 N 0 0 0
0:00:00.00 28202 N 0 0 0
0:00:00.00 28559 N 0 0 0
0:00:00.00 28746 N 0 0 0
0:00:00.00 29109 N 0 0 0
0:00:00.00 29311 N 0 0 0
0:00:00.00 29662 N 0 0 0
0:00:00.00 29896 N 0 0 0
0:00:00.00 30124 N 0 0 0
0:00:00.00 30287 N 0 0 0
0:00:00.00 30597 N 0 0 0
0:00:00.00 30787 N 0 0 0
0:00:00.00 31129 N 0 0 0
0:00:00.00 31321 N 0 0 0
0:00:00.00 31615 N 0 0 0
0:00:00.00 31793 N 0 0 0
0:00:00.00 32095 N 0 0 0
0:00:00.00 32285 N 0 0 0
0:00:00.00 32599 N 0 0 0
0:00:00.00 32769 N 0 0 0
0:00:00.00 33100 N 0 0 0
0:00:00.00 33367 N 0 0 0
0:00:00.00 33638 N 0 0 0
0:00:00.00 33909 N 0 0 0
0:00:00.00 34159 N 0 0 0
0:00:00.00 34408 N 0 0 0
0:00:00.00 34661 N 0 0 0
0:00:00.00 34946 N 0 0 0
0:00:00.00 35234 N 0 0 0
0:00:00.00 35532 N 0 0 0
0:00:00.00 35884 N 0 0 0
0:00:00.00 36086 N 0 0 0
0:00:00.00 36446 N 0 0 0
0:00:00.00 36629 N 0 0 0
0:00:00.00 36995 N 0 0 0
0:00:00.00 37183 N 0 0 0
0:00:00.00 37557 N 0 0 0
0:00:00.00 37787 N 0 0 0
0:00:00.00 38127 N 0 0 0
0:00:00.00 38318 N 0 0 0
0:00:00.00 38636 N 0 0 0
0:00:00.00 38810 N 0 0 0
0:00:00.00 39130 N 0 0 0
0:00:00.00 39318 N 0 0 0
0:00:00.00 39485 N 0 0 0
0:00:00.00 39802 N 0 0 0
0:00:00.00 40200 N 0 0 0
0:00:00.00 40377 N 0 0 0
0:00:00.00 40689 N 0 0 0
0:00:00.00 40888 N 0 0 0
0:00:00.00 41165 N 0 0 0
0:00:00.00 41354 N 0 0 0
0:00:00.00 41733 N 0 0 0
0:00:00.00 41927 N 0 0 0
0:00:00.00 42278 N 0 0 0
0:00:00.00 42543 N 0 0 0
0:00:00.00 42734 N 0 0 0
0:00:00.00 43033 N 0 0 0
0:00:00.00 43211 N 0 0 0
0:00:00.00 43516 N 0 0 0
0:00:00.00 43720 N 0 0 0
0:00:00.00 44064 N 0 0 0
0:00:00.00 44260 N 0 0 0
0:00:00.00 44569 N 0 0 0
0:00:00.00 44755 N 0 0 0
0:00:00.00 45060 N 0 0 0
0:00:00.00 45244 N 0 0 0
0:00:00.00 45570 N 0 0 0
0:00:00.00 45758 N 0 0 0
0:00:00.00 46085 N 0 0 0
0:00:00.00 46259 N 0 0 0
0:00:00.00 46836 N 0 0 0
0:00:00.00 47032 N 0 0 0
0:00:00.00 47544 N 0 0 0
0:00:00.00 47857 N 0 0 0
0:00:00.00 48042 N 0 0 0
0:00:00.00 48375 N 0 0 0
0:00:00.00 48710 N 0 0 0
0:00:00.00 49016 N 0 0 0
0:00:00.00 49274 N 0 0 0
0:00:00.00 49553 N 0 0 0
0:00:00.00 49834 N 0 0 0
0:00:00.00 50113 N 0 0 0
0:00:00.00 50385 N 0 0 0
0:00:00.00 50661 N 0 0 0
0:00:00.00 50927 N 0 0 0
0:00:00.00 51197 N 0 0 0
0:00:00.00 51462 N 0 0 0
0:00:00.00 51708 N 0 0 0
0:00:00.00 51954 N 0 0 0
0:00:00.00 52201 N 0 0 0
0:00:00.00 52487 N 0 0 0
0:00:00.00 52784 N 0 0 0
0:00:00.00 53063 N 0 0 0
0:00:00.00 53300 N 0 0 0
0:00:00.00 53541 N 0 0 0
0:00:00.00 53789 N 0 0 0
0:00:00.00 54037 N 0 0 0
0:00:00.00 54289 N 0 0 0
0:00:00.00 54555 N 0 0 0
0:00:00.00 54824 N 0 0 0
0:00:00.00 55070 N 0 0 0
0:00:00.00 55329 N 0 0 0
0:00:00.00 55604 N 0 0 0
0:00:00.00 55846 N 0 0 0
0:00:00.00 56080 N 0 0 0
0:00:00.00 56321 N 0 0 0
0:00:00.00 56571 N 0 0 0
0:00:00.00 56821 N 0 0 0
0:00:00.00 57097 N 0 0 0
0:00:00.00 57375 N 0 0 0
0:00:00.00 57619 N 0 0 0
0:00:00.00 57858 N 0 0 0
0:00:00.00 58096 N 0 0 0
0:00:00.00 58352 N 0 0 0
0:00:00.00 58608 N 0 0 0
0:00:00.00 58878 N 0 0 0
0:00:00.00 59141 N 0 0 0
0:00:00.00 59401 N 0 0 0
0:00:00.00 59649 N 0 0 0
0:00:00.00 59905 N 0 0 0
0:00:00.00 60162 N 0 0 0
0:00:00.00 60403 N 0 0 0
0:00:00.00 60647 N 0 0 0
0:00:00.00 60883 N 0 0 0
0:00:00.00 61149 N 0 0 0
0:00:00.00 61437 N 0 0 0
0:00:00.00 61706 N 0 0 0
0:00:00.00 61947 N 0 0 0
0:00:00.00 62182 N 0 0 0
0:00:00.00 62425 N 0 0 0
0:00:00.00 62671 N 0 0 0
0:00:00.00 62921 N 0 0 0
0:00:00.00 63181 N 0 0 0
0:00:00.00 63445 N 0 0 0
0:00:00.00 63634 N 0 0 0
0:00:00.00 63864 N 0 0 0
0:00:00.00 64209 N 0 0 0
0:00:00.00 64394 N 0 0 0
0:00:00.00 64631 N 0 0 0
0:00:00.00 64937 N 0 0 0
0:00:00.00 65113 N 0 0 0
0:00:00.00 65442 N 0 0 0
0:00:00.00 65636 N 0 0 0
0:00:00.00 65989 N 0 0 0
0:00:00.00 66172 N 0 0 0
0:00:00.00 66187 N 0 0 0
0:00:00.00 66479 N 0 0 0
0:00:00.00 66647 N 0 0 0
0:00:00.00 66954 N 0 0 0
0:00:00.00 67154 N 0 0 0
0:00:00.00 67472 N 0 0 0
0:00:00.00 67667 N 0 0 0
0:00:00.00 67998 N 0 0 0
0:00:00.00 68190 N 0 0 0
0:00:00.00 68514 N 0 0 0
0:00:00.00 68700 N 0 0 0
0:00:00.00 69036 N 0 0 0
0:00:00.00 69212 N 0 0 0
0:00:00.00 69532 N 0 0 0
0:00:00.00 69753 N 0 0 0
0:00:00.00 70101 N 0 0 0
0:00:00.00 70306 N 0 0 0
0:00:00.00 70618 N 0 0 0
0:00:00.00 70797 N 0 0 0
0:00:00.00 71087 N 0 0 0
0:00:00.00 71261 N 0 0 0
0:00:00.00 71577 N 0 0 0
0:00:00.00 71808 N 0 0 0
0:00:00.00 71817 N 0 0 0
0:00:00.00 72319 N 0 0 0
0:00:00.00 72613 N 0 0 0
0:00:00.00 72804 N 0 0 0
0:00:00.00 73126 N 0 0 0
0:00:00.00 73308 N 0 0 0
0:00:00.00 73599 N 0 0 0
0:00:00.00 73787 N 0 0 0
0:00:00.00 74094 N 0 0 0
0:00:00.00 74282 N 0 0 0
0:00:00.00 74597 N 0 0 0
0:00:00.00 74854 N 0 0 0
0:00:00.00 75318 N 0 0 0
0:00:00.00 75517 N 0 0 0
0:00:00.00 75785 N 0 0 0
0:00:00.00 76059 N 0 0 0
0:00:00.00 76333 N 0 0 0
0:00:00.00 76583 N 0 0 0
0:00:00.00 76841 N 0 0 0
0:00:00.00 77100 N 0 0 0
0:00:00.00 77346 N 0 0 0
0:00:00.00 77567 N 0 0 0
0:00:00.00 77856 N 0 0 0
0:00:00.00 78042 N 0 0 0
0:00:00.00 78374 N 0 0 0
0:00:00.00 78564 N 0 0 0
0:00:00.00 78948 N 0 0 0
0:00:00.00 79132 N 0 0 0
0:00:00.00 79451 N 0 0 0
0:00:00.00 79657 N 0 0 0
0:00:00.00 79935 N 0 0 0
0:00:00.00 80175 N 0 0 0
0:00:00.00 80439 N 0 0 0
0:00:00.00 80684 N 0 0 0
0:00:00.00 81170 N 0 0 0
0:00:00.00 81459 N 0 0 0
0:00:00.00 81651 N 0 0 0
0:00:00.00 81962 N 0 0 0
0:00:00.00 82143 N 0 0 0
0:00:00.00 82428 N 0 0 0
0:00:00.00 82612 N 0 0 0
0:00:00.00 82765 N 0 0 0
0:00:00.00 83182 N 0 0 0
0:00:00.00 83370 N 0 0 0
0:00:00.00 83667 N 0 0 0
0:00:00.00 83909 N 0 0 0
0:00:00.00 84126 N 0 0 0
0:00:00.00 84351 N 0 0 0
0:00:00.00 84595 N 0 0 0
0:00:00.00 84846 N 0 0 0
0:00:00.00 85098 N 0 0 0
0:00:00.00 85323 N 0 0 0
0:00:00.00 85548 N 0 0 0
0:00:00.00 85791 N 0 0 0
0:00:00.00 85982 N 0 0 0
0:00:00.00 86230 N 0 0 0
0:00:00.00 86474 N 0 0 0
0:00:00.00 86694 N 0 0 0
0:00:00.00 86928 N 0 0 0
0:00:00.00 87161 N 0 0 0
0:00:00.00 87341 N 0 0 0
0:00:00.00 87667 N 0 0 0
0:00:00.00 87848 N 0 0 0
0:00:00.00 88136 N 0 0 0
0:00:00.00 88356 N 0 0 0
0:00:00.00 88572 N 0 0 0
0:00:00.00 88801 N 0 0 0
0:00:00.00 89038 N 0 0 0
0:00:00.00 89286 N 0 0 0
0:00:00.00 89550 N 0 0 0
0:00:00.00 89784 N 0 0 0
0:00:00.00 90009 N 0 0 0
0:00:00.00 90229 N 0 0 0
0:00:00.00 90464 N 0 0 0
0:00:00.00 90704 N 0 0 0
0:00:00.00 90940 N 0 0 0
0:00:00.00 91173 N 0 0 0
0:00:00.00 91408 N 0 0 0
0:00:00.00 91664 N 0 0 0
0:00:00.00 91898 N 0 0 0
0:00:00.00 92140 N 0 0 0
0:00:00.00 92384 N 0 0 0
0:00:00.00 92580 N 0 0 0
0:00:00.00 92835 N 0 0 0
0:00:00.00 93033 N 0 0 0
0:00:00.00 93288 N 0 0 0
0:00:00.00 93509 N 0 0 0
0:00:00.00 93819 N 0 0 0
0:00:00.00 94046 N 0 0 0
0:00:00.00 94293 N 0 0 0
0:00:00.00 94517 N 0 0 0
0:00:00.00 94736 N 0 0 0
0:00:00.00 94966 N 0 0 0
0:00:00.00 95197 N 0 0 0
0:00:00.00 95403 N 0 0 0
0:00:00.00 95676 N 0 0 0
0:00:00.00 95914 N 0 0 0
0:00:00.00 96153 N 0 0 0
0:00:00.00 96355 N 0 0 0
0:00:00.00 96638 N 0 0 0
0:00:00.00 96817 N 0 0 0
0:00:00.00 97073 N 0 0 0
0:00:00.00 97290 N 0 0 0
0:00:00.00 97512 N 0 0 0
0:00:00.00 97735 N 0 0 0
0:00:00.00 97984 N 0 0 0
0:00:00.00 98234 N 0 0 0
0:00:00.00 98470 N 0 0 0
0:00:00.00 98660 N 0 0 0
0:00:00.00 98907 N 0 0 0
0:00:00.00 99124 N 0 0 0
0:00:00.00 99362 N 0 0 0
0:00:00.00 99593 N 0 0 0
0:00:00.00 99833 N 0 0 0
0:00:00.00 99999 N 0 0 0
0:00:00.00 100290 N 0 0 0
0:00:00.00 100529 N 0 0 0
0:00:00.00 100748 N 0 0 0
0:00:00.00 100948 N 0 0 0
0:00:00.00 101213 N 0 0 0
0:00:00.00 101385 N 0 0 0
0:00:00.00 101648 N 0 0 0
0:00:00.00 101859 N 0 0 0
0:00:00.00 102084 N 0 0 0
0:00:00.00 102353 N 0 0 0
0:00:00.00 102593 N 0 0 0
0:00:00.00 102825 N 0 0 0
0:00:00.00 103033 N 0 0 0
0:00:00.00 103238 N 0 0 0
0:00:00.00 103452 N 0 0 0
0:00:00.00 103659 N 0 0 0
0:00:00.00 103879 N 0 0 0
0:00:00.00 104094 N 0 0 0
0:00:00.00 104336 N 0 0 0
0:00:00.00 104533 N 0 0 0
0:00:00.00 104787 N 0 0 0
0:00:00.00 105015 N 0 0 0
0:00:00.00 105252 N 0 0 0
0:00:00.00 105467 N 0 0 0
0:00:00.00 105681 N 0 0 0
0:00:00.00 105862 N 0 0 0
0:00:00.00 106086 N 0 0 0
0:00:00.00 106263 N 0 0 0
0:00:00.00 106528 N 0 0 0
0:00:00.00 106772 N 0 0 0
0:00:00.00 107016 N 0 0 0
0:00:00.00 107236 N 0 0 0
0:00:00.00 107453 N 0 0 0
0:00:00.00 107657 N 0 0 0
0:00:00.00 107867 N 0 0 0
0:00:00.00 108095 N 0 0 0
0:00:00.00 108322 N 0 0 0
0:00:00.00 108532 N 0 0 0
0:00:00.00 108780 N 0 0 0
0:00:00.00 109015 N 0 0 0
0:00:00.00 109245 N 0 0 0
0:00:00.00 109457 N 0 0 0
0:00:00.00 109682 N 0 0 0
0:00:00.00 109877 N 0 0 0
0:00:00.00 110122 N 0 0 0
0:00:00.00 110335 N 0 0 0
0:00:00.00 110542 N 0 0 0
0:00:00.00 110724 N 0 0 0
0:00:00.00 111001 N 0 0 0
0:00:00.00 111222 N 0 0 0
0:00:00.00 111480 N 0 0 0
0:00:00.00 111493 N 0 0 0
0:00:00.00 111700 N 0 0 0
0:00:00.00 111902 N 0 0 0
0:00:00.00 112102 N 0 0 0
0:00:00.00 112306 N 0 0 0
0:00:00.00 112509 N 0 0 0
0:00:00.00 112737 N 0 0 0
0:00:00.00 112969 N 0 0 0
0:00:00.00 113207 N 0 0 0
0:00:00.00 113403 N 0 0 0
0:00:00.00 113638 N 0 0 0
0:00:00.00 113833 N 0 0 0
0:00:00.00 114094 N 0 0 0
0:00:00.00 114286 N 0 0 0
0:00:00.00 114521 N 0 0 0
0:00:00.00 114720 N 0 0 0
0:00:00.00 114934 N 0 0 0
0:00:00.00 115142 N 0 0 0
0:00:00.00 115213 N 0 0 0
0:00:00.00 115225 N 0 0 0
0:00:00.00 115376 N 0 0 0
0:00:00.00 115613 N 0 0 0
0:00:00.00 115840 N 0 0 0
0:00:00.00 116038 N 0 0 0
0:00:00.00 116262 N 0 0 0
0:00:00.00 116435 N 0 0 0
0:00:00.00 116662 N 0 0 0
0:00:00.00 116859 N 0 0 0
0:00:00.00 117121 N 0 0 0
0:00:00.00 117310 N 0 0 0
0:00:00.00 117580 N 0 0 0
0:00:00.00 117806 N 0 0 0
0:00:00.00 118017 N 0 0 0
0:00:00.00 118211 N 0 0 0
0:00:00.00 118444 N 0 0 0
0:00:00.00 118623 N 0 0 0
0:00:00.00 118881 N 0 0 0
0:00:00.00 119097 N 0 0 0
0:00:00.00 119325 N 0 0 0
0:00:00.00 119538 N 0 0 0
0:00:00.00 119786 N 0 0 0
0:00:00.00 120014 N 0 0 0
0:00:00.00 120254 N 0 0 0
0:00:00.00 120442 N 0 0 0
0:00:00.00 120673 N 0 0 0
0:00:00.00 120878 N 0 0 0
0:00:00.00 121097 N 0 0 0
0:00:00.00 121277 N 0 0 0
0:00:00.00 121286 N 0 0 0
0:00:00.00 121548 N 0 0 0
0:00:00.00 121757 N 0 0 0
0:00:00.00 122042 N 0 0 0
0:00:00.00 122268 N 0 0 0
0:00:00.00 122485 N 0 0 0
0:00:00.00 122697 N 0 0 0
0:00:00.00 122942 N 0 0 0
0:00:00.00 123126 N 0 0 0
0:00:00.00 123390 N 0 0 0
0:00:00.00 123612 N 0 0 0
0:00:00.00 123839 N 0 0 0
0:00:00.00 124077 N 0 0 0
0:00:00.00 124323 N 0 0 0
0:00:00.00 124539 N 0 0 0
0:00:00.00 124788 N 0 0 0
0:00:00.00 124974 N 0 0 0
0:00:00.00 125222 N 0 0 0
0:00:00.00 125442 N 0 0 0
0:00:00.00 125685 N 0 0 0
0:00:00.00 125923 N 0 0 0
0:00:00.00 126171 N 0 0 0
0:00:00.00 126412 N 0 0 0
0:00:00.00 126641 N 0 0 0
0:00:00.00 126863 N 0 0 0
0:00:00.00 127078 N 0 0 0
0:00:00.00 127275 N 0 0 0
0:00:00.00 127542 N 0 0 0
0:00:00.00 127733 N 0 0 0
0:00:00.00 128009 N 0 0 0
0:00:00.00 128202 N 0 0 0
0:00:00.00 128490 N 0 0 0
0:00:00.00 128741 N 0 0 0
0:00:00.00 128982 N 0 0 0
0:00:00.00 129215 N 0 0 0
0:00:00.00 129418 N 0 0 0
0:00:00.00 129636 N 0 0 0
0:00:00.00 129870 N 0 0 0
0:00:00.00 130087 N 0 0 0
0:00:00.00 130339 N 0 0 0
0:00:00.00 130585 N 0 0 0
0:00:00.00 130843 N 0 0 0
0:00:00.00 131041 N 0 0 0
0:00:00.00 131285 N 0 0 0
0:00:00.00 131465 N 0 0 0
0:00:00.00 131754 N 0 0 0
0:00:00.00 131989 N 0 0 0
0:00:00.00 132236 N 0 0 0
0:00:00.00 132469 N 0 0 0
0:00:00.00 132704 N 0 0 0
0:00:00.00 132929 N 0 0 0
0:00:00.00 133096 N 0 0 0
0:00:00.00 133419 N 0 0 0
0:00:00.00 133618 N 0 0 0
0:00:00.00 133878 N 0 0 0
0:00:00.00 134111 N 0 0 0
0:00:00.00 134337 N 0 0 0
0:00:00.00 134599 N 0 0 0
0:00:00.00 134883 N 0 0 0
0:00:00.00 135132 N 0 0 0
0:00:00.00 135362 N 0 0 0
0:00:00.00 135583 N 0 0 0
0:00:00.00 135819 N 0 0 0
0:00:00.00 136034 N 0 0 0
0:00:00.00 136272 N 0 0 0
0:00:00.00 136521 N 0 0 0
0:00:00.00 136762 N 0 0 0
0:00:00.00 137014 N 0 0 0
0:00:00.00 137244 N 0 0 0
0:00:00.00 137480 N 0 0 0
0:00:00.00 137725 N 0 0 0
0:00:00.00 137949 N 0 0 0
0:00:00.00 138173 N 0 0 0
0:00:00.00 138394 N 0 0 0
0:00:00.00 138625 N 0 0 0
0:00:00.00 138869 N 0 0 0
0:00:00.00 139124 N 0 0 0
0:00:00.00 139383 N 0 0 0
0:00:00.00 139638 N 0 0 0
0:00:00.00 139878 N 0 0 0
0:00:00.00 140105 N 0 0 0
0:00:00.00 140332 N 0 0 0
0:00:00.00 140585 N 0 0 0
0:00:00.00 140802 N 0 0 0
0:00:00.00 141084 N 0 0 0
0:00:00.00 141243 N 0 0 0
0:00:00.00 141571 N 0 0 0
0:00:00.00 141771 N 0 0 0
0:00:00.00 142044 N 0 0 0
0:00:00.00 142225 N 0 0 0
0:00:00.00 142533 N 0 0 0
0:00:00.00 142738 N 0 0 0
0:00:00.00 142969 N 0 0 0
0:00:00.00 143159 N 0 0 0
0:00:00.00 143636 N 0 0 0
0:00:00.00 143829 N 0 0 0
0:00:00.00 143989 N 0 0 0
0:00:00.00 144408 N 0 0 0
0:00:00.00 144593 N 0 0 0
0:00:00.00 144927 N 0 0 0
0:00:00.00 145204 N 0 0 0
0:00:00.00 145485 N 0 0 0
0:00:00.00 145760 N 0 0 0
0:00:00.00 146011 N 0 0 0
0:00:00.00 146268 N 0 0 0
0:00:00.00 146442 N 0 0 0
0:00:00.00 146757 N 0 0 0
0:00:00.00 146939 N 0 0 0
0:00:00.00 147216 N 0 0 0
0:00:00.00 147402 N 0 0 0
0:00:00.00 147712 N 0 0 0
0:00:00.00 147916 N 0 0 0
0:00:00.00 148219 N 0 0 0
0:00:00.00 148475 N 0 0 0
0:00:00.00 148710 N 0 0 0
0:00:00.00 148928 N 0 0 0
0:00:00.00 149158 N 0 0 0
0:00:00.00 149408 N 0 0 0
0:00:00.00 149647 N 0 0 0
0:00:00.00 149900 N 0 0 0
0:00:00.00 150128 N 0 0 0
0:00:00.00 150373 N 0 0 0
0:00:00.00 150612 N 0 0 0
0:00:00.00 150849 N 0 0 0
0:00:00.00 151096 N 0 0 0
0:00:00.00 151345 N 0 0 0
0:00:00.00 151595 N 0 0 0
0:00:00.00 151845 N 0 0 0
0:00:00.00 152117 N 0 0 0
0:00:00.00 152400 N 0 0 0
0:00:00.00 152663 N 0 0 0
0:00:00.00 152921 N 0 0 0
0:00:00.00 153150 N 0 0 0
0:00:00.00 153339 N 0 0 0
0:00:00.00 153613 N 0 0 0
0:00:00.00 153824 N 0 0 0
0:00:00.00 154260 N 0 0 0
0:00:00.00 154458 N 0 0 0
0:00:00.00 154799 N 0 0 0
0:00:00.00 155009 N 0 0 0
0:00:00.00 155314 N 0 0 0
0:00:00.00 155504 N 0 0 0
0:00:00.00 155822 N 0 0 0
0:00:00.00 155995 N 0 0 0
0:00:00.00 156317 N 0 0 0
0:00:00.00 156518 N 0 0 0
0:00:00.00 156838 N 0 0 0
0:00:00.00 157022 N 0 0 0
0:00:00.00 157323 N 0 0 0
0:00:00.00 157511 N 0 0 0
0:00:00.00 157777 N 0 0 0
0:00:00.00 157959 N 0 0 0
0:00:00.00 158294 N 0 0 0
0:00:00.00 158493 N 0 0 0
0:00:00.00 158812 N 0 0 0
0:00:00.00 158990 N 0 0 0
0:00:00.00 159270 N 0 0 0
0:00:00.00 159455 N 0 0 0
0:00:00.00 159753 N 0 0 0
0:00:00.00 159924 N 0 0 0
0:00:00.00 160251 N 0 0 0
0:00:00.00 160514 N 0 0 0
0:00:00.00 160720 N 0 0 0
0:00:00.00 160921 N 0 0 0
0:00:00.00 161381 N 0 0 0
0:00:00.00 161559 N 0 0 0
0:00:00.00 161902 N 0 0 0
0:00:00.00 162159 N 0 0 0
0:00:00.00 162417 N 0 0 0
0:00:00.00 162690 N 0 0 0
0:00:00.00 162972 N 0 0 0
0:00:00.00 163235 N 0 0 0
0:00:00.00 163487 N 0 0 0
0:00:00.00 163720 N 0 0 0
0:00:00.00 163923 N 0 0 0
0:00:00.00 164222 N 0 0 0
0:00:00.00 164410 N 0 0 0
0:00:00.00 164731 N 0 0 0
0:00:00.00 164915 N 0 0 0
0:00:00.00 165246 N 0 0 0
0:00:00.00 165434 N 0 0 0
0:00:00.00 165751 N 0 0 0
0:00:00.00 165935 N 0 0 0
0:00:00.00 166244 N 0 0 0
0:00:00.00 166488 N 0 0 0
0:00:00.00 166730 N 0 0 0
0:00:00.00 167003 N 0 0 0
0:00:00.00 167286 N 0 0 0
0:00:00.00 167556 N 0 0 0
0:00:00.00 167747 N 0 0 0
0:00:00.00 168030 N 0 0 0
0:00:00.00 168222 N 0 0 0
0:00:00.00 168499 N 0 0 0
0:00:00.00 168686 N 0 0 0
0:00:00.00 169009 N 0 0 0
0:00:00.00 169196 N 0 0 0
0:00:00.00 169388 N 0 0 0
0:00:00.00 169911 N 0 0 0
0:00:00.00 170275 N 0 0 0
0:00:00.00 170528 N 0 0 0
0:00:00.00 170755 N 0 0 0
0:00:00.00 171001 N 0 0 0
0:00:00.00 171267 N 0 0 0
0:00:00.00 171533 N 0 0 0
0:00:00.00 171815 N 0 0 0
0:00:00.00 172055 N 0 0 0
0:00:00.00 172343 N 0 0 0
0:00:00.00 172522 N 0 0 0
0:00:00.00 172857 N 0 0 0
0:00:00.00 173060 N 0 0 0
0:00:00.00 173435 N 0 0 0
0:00:00.00 173645 N 0 0 0
0:00:00.00 174029 N 0 0 0
0:00:00.00 174225 N 0 0 0
0:00:00.00 174598 N 0 0 0
0:00:00.00 174777 N 0 0 0
0:00:00.00 174786 N 0 0 0
0:00:00.00 175151 N 0 0 0
0:00:00.00 175355 N 0 0 0
0:00:00.00 175698 N 0 0 0
0:00:00.00 175915 N 0 0 0
0:00:00.00 176300 N 0 0 0
0:00:00.00 176574 N 0 0 0
0:00:00.00 176800 N 0 0 0
0:00:00.00 177033 N 0 0 0
0:00:00.00 177272 N 0 0 0
0:00:00.00 177514 N 0 0 0
0:00:00.00 177775 N 0 0 0
0:00:00.00 178045 N 0 0 0
0:00:00.00 178264 N 0 0 0
0:00:00.00 178526 N 0 0 0
0:00:00.00 178762 N 0 0 0
0:00:00.00 178971 N 0 0 0
0:00:00.00 179258 N 0 0 0
0:00:00.00 179496 N 0 0 0
0:00:00.00 179741 N 0 0 0
0:00:00.00 179957 N 0 0 0
0:00:00.00 180257 N 0 0 0
0:00:00.00 180447 N 0 0 0
0:00:00.00 180767 N 0 0 0
0:00:00.00 180968 N 0 0 0
0:00:00.00 181259 N 0 0 0
0:00:00.00 181428 N 0 0 0
0:00:00.00 181721 N 0 0 0
0:00:00.00 181917 N 0 0 0
0:00:00.00 181926 N 0 0 0
0:00:00.00 182273 N 0 0 0
0:00:00.00 182478 N 0 0 0
0:00:00.00 182787 N 0 0 0
0:00:00.00 183035 N 0 0 0
0:00:00.00 183212 N 0 0 0
0:00:00.00 183508 N 0 0 0
0:00:00.00 183702 N 0 0 0
0:00:00.00 184005 N 0 0 0
0:00:00.00 184206 N 0 0 0
0:00:00.00 184524 N 0 0 0
0:00:00.00 184729 N 0 0 0
0:00:00.00 185050 N 0 0 0
0:00:00.00 185235 N 0 0 0
0:00:00.00 185500 N 0 0 0
0:00:00.00 185739 N 0 0 0
0:00:00.00 185975 N 0 0 0
0:00:00.00 186212 N 0 0 0
0:00:00.00 186480 N 0 0 0
0:00:00.00 186771 N 0 0 0
0:00:00.00 186984 N 0 0 0
0:00:00.00 187277 N 0 0 0
0:00:00.00 187425 N 0 0 0
0:00:00.00 187441 N 0 0 0
0:00:00.00 187827 N 0 0 0
0:00:00.00 188017 N 0 0 0
0:00:00.00 188367 N 0 0 0
0:00:00.00 188551 N 0 0 0
0:00:00.00 188880 N 0 0 0
0:00:00.00 189231 N 0 0 0
0:00:00.00 189521 N 0 0 0
0:00:00.00 189811 N 0 0 0
0:00:00.00 190081 N 0 0 0
0:00:00.00 190337 N 0 0 0
0:00:00.00 190621 N 0 0 0
0:00:00.00 190942 N 0 0 0
0:00:00.00 191237 N 0 0 0
0:00:00.00 191506 N 0 0 0
0:00:00.00 191773 N 0 0 0
0:00:00.00 192038 N 0 0 0
0:00:00.00 192299 N 0 0 0
0:00:00.00 192569 N 0 0 0
0:00:00.00 192852 N 0 0 0
0:00:00.00 193125 N 0 0 0
0:00:00.00 193381 N 0 0 0
0:00:00.00 193645 N 0 0 0
0:00:00.00 193920 N 0 0 0
0:00:00.00 194170 N 0 0 0
0:00:00.00 194419 N 0 0 0
0:00:00.00 194661 N 0 0 0
0:00:00.00 194919 N 0 0 0
0:00:00.00 195179 N 0 0 0
0:00:00.00 195469 N 0 0 0
0:00:00.00 195754 N 0 0 0
0:00:00.00 196002 N 0 0 0
0:00:00.00 196245 N 0 0 0
0:00:00.00 196486 N 0 0 0
0:00:00.00 196757 N 0 0 0
0:00:00.00 197027 N 0 0 0
0:00:00.00 197301 N 0 0 0
0:00:00.00 197545 N 0 0 0
0:00:00.00 197794 N 0 0 0
0:00:00.00 198044 N 0 0 0
0:00:00.00 198289 N 0 0 0
0:00:00.00 198537 N 0 0 0
0:00:00.00 198794 N 0 0 0
0:00:00.00 199039 N 0 0 0
0:00:00.00 199289 N 0 0 0
0:00:00.00 199567 N 0 0 0
0:00:00.00 199869 N 0 0 0
0:00:00.00 200131 N 0 0 0
0:00:00.00 200383 N 0 0 0
0:00:00.00 200625 N 0 0 0
0:00:00.00 200864 N 0 0 0
0:00:00.00 201098 N 0 0 0
0:00:00.00 201360 N 0 0 0
0:00:00.00 201653 N 0 0 0
0:00:00.00 201919 N 0 0 0
0:00:00.00 202181 N 0 0 0
0:00:00.00 202437 N 0 0 0
0:00:00.00 202960 N 0 0 0
0:00:00.00 203151 N 0 0 0
0:00:00.00 203462 N 0 0 0
0:00:00.00 203661 N 0 0 0
0:00:00.00 203980 N 0 0 0
0:00:00.00 204186 N 0 0 0
0:00:00.00 204517 N 0 0 0
0:00:00.00 204739 N 0 0 0
0:00:00.00 205011 N 0 0 0
0:00:00.00 205184 N 0 0 0
0:00:00.00 205478 N 0 0 0
0:00:00.00 205685 N 0 0 0
0:00:00.00 206016 N 0 0 0
0:00:00.00 206224 N 0 0 0
0:00:00.00 206513 N 0 0 0
0:00:00.00 206696 N 0 0 0
0:00:00.00 206977 N 0 0 0
0:00:00.00 207162 N 0 0 0
0:00:00.00 207457 N 0 0 0
0:00:00.00 207652 N 0 0 0
0:00:00.00 207892 N 0 0 0
0:00:00.00 208194 N 0 0 0
0:00:00.00 208410 N 0 0 0
0:00:00.00 208919 N 0 0 0
0:00:00.00 209212 N 0 0 0
0:00:00.00 209388 N 0 0 0
0:00:00.00 209652 N 0 0 0
0:00:00.00 209841 N 0 0 0
0:00:00.00 210162 N 0 0 0
0:00:00.00 210369 N 0 0 0
0:00:00.00 210703 N 0 0 0
0:00:00.00 210888 N 0 0 0
0:00:00.00 211174 N 0 0 0
0:00:00.00 211359 N 0 0 0
0:00:00.00 211667 N 0 0 0
0:00:00.00 211854 N 0 0 0
0:00:00.00 212176 N 0 0 0
0:00:00.00 212389 N 0 0 0
0:00:00.00 212398 N 0 0 0
0:00:00.00 212660 N 0 0 0
0:00:00.00 212869 N 0 0 0
0:00:00.00 213204 N 0 0 0
0:00:00.00 213387 N 0 0 0
0:00:00.00 213716 N 0 0 0
0:00:00.00 213904 N 0 0 0
0:00:00.00 214195 N 0 0 0
0:00:00.00 214401 N 0 0 0
0:00:00.00 214782 N 0 0 0
0:00:00.00 215024 N 0 0 0
0:00:00.00 215324 N 0 0 0
0:00:00.00 215513 N 0 0 0
0:00:00.00 215806 N 0 0 0
0:00:00.00 215979 N 0 0 0
0:00:00.00 216301 N 0 0 0
0:00:00.00 216555 N 0 0 0
0:00:00.00 217121 N 0 0 0
0:00:00.00 217133 N 0 0 0
0:00:00.00 217168 N 0 0 0
0:00:00.00 217288 N 0 0 0
0:00:00.00 217467 N 0 0 0
0:00:00.00 217896 N 0 0 0
0:00:00.00 218092 N 0 0 0
0:00:00.00 218379 N 0 0 0
0:00:00.00 218630 N 0 0 0
0:00:00.00 218883 N 0 0 0
0:00:00.00 219158 N 0 0 0
0:00:00.00 219375 N 0 0 0
0:00:00.00 219683 N 0 0 0
0:00:00.00 219865 N 0 0 0
0:00:00.00 219981 N 0 0 0
0:00:00.00 220134 N 0 0 0
0:00:00.00 220311 N 0 0 0
0:00:00.00 220639 N 0 0 0
0:00:00.00 220845 N 0 0 0
0:00:00.00 220866 N 0 0 0
0:00:00.00 221177 N 0 0 0
0:00:00.00 221366 N 0 0 0
0:00:00.00 221666 N 0 0 0
0:00:00.00 221858 N 0 0 0
0:00:00.00 222151 N 0 0 0
0:00:00.00 222393 N 0 0 0
0:00:00.00 222638 N 0 0 0
0:00:00.00 222870 N 0 0 0
0:00:00.00 223130 N 0 0 0
0:00:00.00 223380 N 0 0 0
0:00:00.00 223653 N 0 0 0
0:00:00.00 223910 N 0 0 0
0:00:00.00 224155 N 0 0 0
0:00:00.00 224380 N 0 0 0
0:00:00.00 224391 N 0 0 0
0:00:00.00 224615 N 0 0 0
0:00:00.00 224850 N 0 0 0
0:00:00.00 225105 N 0 0 0
0:00:00.00 225384 N 0 0 0
0:00:00.00 225661 N 0 0 0
0:00:00.00 225895 N 0 0 0
0:00:00.00 226162 N 0 0 0
0:00:00.00 226354 N 0 0 0
0:00:00.00 226681 N 0 0 0
0:00:00.00 226858 N 0 0 0
0:00:00.00 227024 N 0 0 0
0:00:00.00 227196 N 0 0 0
0:00:00.00 227617 N 0 0 0
0:00:00.00 227840 N 0 0 0
0:00:00.00 228235 N 0 0 0
0:00:00.00 228247 N 0 0 0
0:00:00.00 228744 N 0 0 0
0:00:00.00 228977 N 0 0 0
0:00:00.00 229207 N 0 0 0
0:00:00.00 229465 N 0 0 0
0:00:00.00 229741 N 0 0 0
0:00:00.00 230012 N 0 0 0
0:00:00.00 230244 N 0 0 0
0:00:00.00 230480 N 0 0 0
0:00:00.00 230719 N 0 0 0
0:00:00.00 230905 N 0 0 0
0:00:00.00 231170 N 0 0 0
0:00:00.00 231362 N 0 0 0
0:00:00.00 231665 N 0 0 0
0:00:00.00 231887 N 0 0 0
0:00:00.00 232156 N 0 0 0
0:00:00.00 232376 N 0 0 0
0:00:00.00 232655 N 0 0 0
0:00:00.00 232890 N 0 0 0
0:00:00.00 233122 N 0 0 0
0:00:00.00 233315 N 0 0 0
0:00:00.00 233553 N 0 0 0
0:00:00.00 233751 N 0 0 0
0:00:00.00 234034 N 0 0 0
0:00:00.00 234240 N 0 0 0
0:00:00.00 234433 N 0 0 0
0:00:00.00 234779 N 0 0 0
0:00:00.00 234979 N 0 0 0
0:00:00.00 235218 N 0 0 0
0:00:00.00 235448 N 0 0 0
0:00:00.00 235697 N 0 0 0
0:00:00.00 235910 N 0 0 0
0:00:00.00 236194 N 0 0 0
0:00:00.00 236382 N 0 0 0
0:00:00.00 236662 N 0 0 0
0:00:00.00 236892 N 0 0 0
0:00:00.00 237121 N 0 0 0
0:00:00.00 237320 N 0 0 0
0:00:00.00 237584 N 0 0 0
0:00:00.00 237776 N 0 0 0
0:00:00.00 238022 N 0 0 0
0:00:00.00 238256 N 0 0 0
0:00:00.00 238515 N 0 0 0
0:00:00.00 238729 N 0 0 0
0:00:00.00 238900 N 0 0 0
0:00:00.00 239232 N 0 0 0
0:00:00.00 239455 N 0 0 0
0:00:00.00 239671 N 0 0 0
0:00:00.00 239853 N 0 0 0
0:00:00.00 240120 N 0 0 0
0:00:00.00 240317 N 0 0 0
0:00:00.00 240612 N 0 0 0
0:00:00.00 240857 N 0 0 0
0:00:00.00 241077 N 0 0 0
0:00:00.00 241265 N 0 0 0
0:00:00.00 241538 N 0 0 0
0:00:00.00 241771 N 0 0 0
0:00:00.00 241982 N 0 0 0
0:00:00.00 242166 N 0 0 0
0:00:00.00 242436 N 0 0 0
0:00:00.00 242685 N 0 0 0
0:00:00.00 242919 N 0 0 0
0:00:00.00 243127 N 0 0 0
0:00:00.00 243401 N 0 0 0
0:00:00.00 243582 N 0 0 0
0:00:00.00 243850 N 0 0 0
0:00:00.00 244056 N 0 0 0
0:00:00.00 244277 N 0 0 0
0:00:00.00 244484 N 0 0 0
0:00:00.00 244779 N 0 0 0
0:00:00.00 244983 N 0 0 0
0:00:00.00 245261 N 0 0 0
0:00:00.00 245489 N 0 0 0
0:00:00.00 245719 N 0 0 0
0:00:00.00 245896 N 0 0 0
0:00:00.00 246132 N 0 0 0
0:00:00.00 246318 N 0 0 0
0:00:00.00 246606 N 0 0 0
0:00:00.00 246854 N 0 0 0
0:00:00.00 247080 N 0 0 0
0:00:00.00 247298 N 0 0 0
0:00:00.00 247586 N 0 0 0
0:00:00.00 247780 N 0 0 0
0:00:00.00 248043 N 0 0 0
0:00:00.00 248247 N 0 0 0
0:00:00.00 248453 N 0 0 0
0:00:00.00 248651 N 0 0 0
0:00:00.00 248904 N 0 0 0
0:00:00.00 249105 N 0 0 0
0:00:00.00 249647 N 0 0 0
0:00:00.00 249871 N 0 0 0
0:00:00.00 250083 N 0 0 0
0:00:00.00 250306 N 0 0 0
0:00:00.00 250543 N 0 0 0
0:00:00.00 250764 N 0 0 0
0:00:00.00 250979 N 0 0 0
0:00:00.00 251221 N 0 0 0
0:00:00.00 251426 N 0 0 0
0:00:00.00 251704 N 0 0 0
0:00:00.00 251885 N 0 0 0
0:00:00.00 252148 N 0 0 0
0:00:00.00 252388 N 0 0 0
0:00:00.00 252606 N 0 0 0
0:00:00.00 252829 N 0 0 0
0:00:00.00 253035 N 0 0 0
0:00:00.00 253266 N 0 0 0
0:00:00.00 253506 N 0 0 0
0:00:00.00 253787 N 0 0 0
0:00:00.00 254030 N 0 0 0
0:00:00.00 254250 N 0 0 0
0:00:00.00 254468 N 0 0 0
0:00:00.00 254687 N 0 0 0
0:00:00.00 254873 N 0 0 0
0:00:00.00 255128 N 0 0 0
0:00:00.00 255357 N 0 0 0
0:00:00.00 255629 N 0 0 0
0:00:00.00 255832 N 0 0 0
0:00:00.00 256094 N 0 0 0
0:00:00.00 256296 N 0 0 0
0:00:00.00 256575 N 0 0 0
0:00:00.00 256815 N 0 0 0
0:00:00.00 257051 N 0 0 0
0:00:00.00 257238 N 0 0 0
0:00:00.00 257493 N 0 0 0
0:00:00.00 257681 N 0 0 0
0:00:00.00 257974 N 0 0 0
0:00:00.00 258203 N 0 0 0
0:00:00.00 258491 N 0 0 0
0:00:00.00 258718 N 0 0 0
0:00:00.00 258943 N 0 0 0
0:00:00.00 259118 N 0 0 0
0:00:00.00 259387 N 0 0 0
0:00:00.00 259585 N 0 0 0
0:00:00.00 259908 N 0 0 0
0:00:00.00 260180 N 0 0 0
0:00:00.00 260414 N 0 0 0
0:00:00.00 260626 N 0 0 0
0:00:00.00 260878 N 0 0 0
0:00:00.00 261067 N 0 0 0
0:00:00.00 261346 N 0 0 0
0:00:00.00 261538 N 0 0 0
0:00:00.00 261831 N 0 0 0
0:00:00.00 262072 N 0 0 0
0:00:00.00 262323 N 0 0 0
0:00:00.00 262569 N 0 0 0
0:00:00.00 262842 N 0 0 0
0:00:00.00 263040 N 0 0 0
0:00:00.00 263301 N 0 0 0
0:00:00.00 263473 N 0 0 0
0:00:00.00 263762 N 0 0 0
0:00:00.00 264003 N 0 0 0
0:00:00.00 264263 N 0 0 0
0:00:00.00 264534 N 0 0 0
0:00:00.00 264777 N 0 0 0
0:00:00.00 265013 N 0 0 0
0:00:00.00 265237 N 0 0 0
0:00:00.00 265481 N 0 0 0
0:00:00.00 265730 N 0 0 0
0:00:00.00 265976 N 0 0 0
0:00:00.00 266207 N 0 0 0
0:00:00.00 266460 N 0 0 0
0:00:00.00 266720 N 0 0 0
0:00:00.00 266881 N 0 0 0
0:00:00.00 266896 N 0 0 0
0:00:00.00 267213 N 0 0 0
0:00:00.00 267415 N 0 0 0
0:00:00.00 267431 N 0 0 0
0:00:00.00 267704 N 0 0 0
0:00:00.00 267908 N 0 0 0
0:00:00.00 268168 N 0 0 0
0:00:00.00 268397 N 0 0 0
0:00:00.00 268704 N 0 0 0
0:00:00.00 268915 N 0 0 0
0:00:00.00 269237 N 0 0 0
0:00:00.00 269417 N 0 0 0
0:00:00.00 269714 N 0 0 0
0:00:00.00 269886 N 0 0 0
0:00:00.00 270188 N 0 0 0
0:00:00.00 270389 N 0 0 0
0:00:00.00 270734 N 0 0 0
0:00:00.00 270995 N 0 0 0
0:00:00.00 271243 N 0 0 0
0:00:00.00 271506 N 0 0 0
0:00:00.00 271759 N 0 0 0
0:00:00.00 271978 N 0 0 0
0:00:00.00 272206 N 0 0 0
0:00:00.00 272438 N 0 0 0
0:00:00.00 272685 N 0 0 0
0:00:00.00 272925 N 0 0 0
0:00:00.00 273188 N 0 0 0
0:00:00.00 273456 N 0 0 0
0:00:00.00 273690 N 0 0 0
0:00:00.00 273922 N 0 0 0
0:00:00.00 274141 N 0 0 0
0:00:00.00 274380 N 0 0 0
0:00:00.00 274641 N 0 0 0
0:00:00.00 274904 N 0 0 0
0:00:00.00 275167 N 0 0 0
0:00:00.00 275422 N 0 0 0
0:00:00.00 275672 N 0 0 0
0:00:00.00 275900 N 0 0 0
0:00:00.00 276143 N 0 0 0
0:00:00.00 276395 N 0 0 0
0:00:00.00 276633 N 0 0 0
0:00:00.00 276877 N 0 0 0
0:00:00.00 277094 N 0 0 0
0:00:00.00 277387 N 0 0 0
0:00:00.00 277679 N 0 0 0
0:00:00.00 277926 N 0 0 0
0:00:00.00 278190 N 0 0 0
0:00:00.00 278425 N 0 0 0
0:00:00.00 278640 N 0 0 0
0:00:00.00 278891 N 0 0 0
0:00:00.00 279159 N 0 0 0
0:00:00.00 279432 N 0 0 0
0:00:00.00 279714 N 0 0 0
0:00:00.00 279971 N 0 0 0
0:00:00.00 280214 N 0 0 0
0:00:00.00 280473 N 0 0 0
0:00:00.00 280682 N 0 0 0
0:00:00.00 280989 N 0 0 0
0:00:00.00 281194 N 0 0 0
0:00:00.00 281483 N 0 0 0
0:00:00.00 281715 N 0 0 0
0:00:00.00 281985 N 0 0 0
0:00:00.00 282254 N 0 0 0
0:00:00.00 282509 N 0 0 0
0:00:00.00 282738 N 0 0 0
0:00:00.00 282959 N 0 0 0
0:00:00.00 283166 N 0 0 0
0:00:00.00 283433 N 0 0 0
0:00:00.00 283686 N 0 0 0
0:00:00.00 283966 N 0 0 0
0:00:00.00 284158 N 0 0 0
0:00:00.00 284437 N 0 0 0
0:00:00.00 284619 N 0 0 0
0:00:00.00 284895 N 0 0 0
0:00:00.00 285083 N 0 0 0
0:00:00.00 285098 N 0 0 0
0:00:00.00 285388 N 0 0 0
0:00:00.00 285574 N 0 0 0
0:00:00.00 285898 N 0 0 0
0:00:00.00 286415 N 0 0 0
0:00:00.00 286637 N 0 0 0
0:00:00.00 286914 N 0 0 0
0:00:00.00 287095 N 0 0 0
0:00:00.00 287359 N 0 0 0
0:00:00.00 287540 N 0 0 0
0:00:00.00 287835 N 0 0 0
0:00:00.00 288044 N 0 0 0
0:00:00.00 288380 N 0 0 0
0:00:00.00 288606 N 0 0 0
0:00:00.00 288867 N 0 0 0
0:00:00.00 289041 N 0 0 0
0:00:00.00 289316 N 0 0 0
0:00:00.00 289511 N 0 0 0
0:00:00.00 289670 N 0 0 0
0:00:00.00 290071 N 0 0 0
0:00:00.00 290262 N 0 0 0
0:00:00.00 290271 N 0 0 0
0:00:00.00 290562 N 0 0 0
0:00:00.00 290802 N 0 0 0
0:00:00.00 291037 N 0 0 0
0:00:00.00 291270 N 0 0 0
0:00:00.00 291504 N 0 0 0
0:00:00.00 291725 N 0 0 0
0:00:00.00 291953 N 0 0 0
0:00:00.00 292171 N 0 0 0
0:00:00.00 292442 N 0 0 0
0:00:00.00 292675 N 0 0 0
0:00:00.00 292960 N 0 0 0
0:00:00.00 293142 N 0 0 0
0:00:00.00 293398 N 0 0 0
0:00:00.00 293622 N 0 0 0
0:00:00.00 293835 N 0 0 0
0:00:00.00 294032 N 0 0 0
0:00:00.00 294521 N 0 0 0
0:00:00.00 294809 N 0 0 0
0:00:00.00 295033 N 0 0 0
0:00:00.00 295256 N 0 0 0
0:00:00.00 295491 N 0 0 0
0:00:00.00 295727 N 0 0 0
0:00:00.00 295950 N 0 0 0
0:00:00.00 296171 N 0 0 0
0:00:00.00 296396 N 0 0 0
0:00:00.00 296631 N 0 0 0
0:00:00.00 296874 N 0 0 0
0:00:00.00 297120 N 0 0 0
0:00:00.00 297337 N 0 0 0
0:00:00.00 297597 N 0 0 0
0:00:00.00 297789 N 0 0 0
0:00:00.00 298023 N 0 0 0
0:00:00.00 298232 N 0 0 0
0:00:00.00 298465 N 0 0 0
0:00:00.00 298699 N 0 0 0
0:00:00.00 298981 N 0 0 0
0:00:00.00 299228 N 0 0 0
0:00:00.00 299443 N 0 0 0
0:00:00.00 299656 N 0 0 0
0:00:00.00 299873 N 0 0 0
0:00:00.00 300088 N 0 0 0
0:00:00.00 300307 N 0 0 0
0:00:00.00 300543 N 0 0 0
0:00:00.00 300757 N 0 0 0
0:00:00.00 300987 N 0 0 0
0:00:00.00 301209 N 0 0 0
0:00:00.00 301413 N 0 0 0
0:00:00.00 301692 N 0 0 0
0:00:00.00 301913 N 0 0 0
0:00:00.00 302135 N 0 0 0
0:00:00.00 302310 N 0 0 0
0:00:00.00 302537 N 0 0 0
0:00:00.00 302754 N 0 0 0
0:00:00.00 302966 N 0 0 0
0:00:00.00 303184 N 0 0 0
0:00:00.00 303441 N 0 0 0
0:00:00.00 303667 N 0 0 0
0:00:00.00 303883 N 0 0 0
0:00:00.00 304068 N 0 0 0
0:00:00.00 304279 N 0 0 0
0:00:00.00 304495 N 0 0 0
0:00:00.00 304726 N 0 0 0
0:00:00.00 304922 N 0 0 0
0:00:00.00 305162 N 0 0 0
0:00:00.00 305376 N 0 0 0
0:00:00.00 305594 N 0 0 0
0:00:00.00 305805 N 0 0 0
0:00:00.00 306018 N 0 0 0
0:00:00.00 306230 N 0 0 0
0:00:00.00 306450 N 0 0 0
0:00:00.00 306650 N 0 0 0
0:00:00.00 306855 N 0 0 0
0:00:00.00 307052 N 0 0 0
0:00:00.00 307263 N 0 0 0
0:00:00.00 307498 N 0 0 0
0:00:00.00 307742 N 0 0 0
0:00:00.00 307960 N 0 0 0
0:00:00.00 308179 N 0 0 0
0:00:00.00 308375 N 0 0 0
0:00:00.00 308564 N 0 0 0
0:00:00.00 308765 N 0 0 0
0:00:00.00 308957 N 0 0 0
0:00:00.00 309168 N 0 0 0
0:00:00.00 309397 N 0 0 0
0:00:00.00 309625 N 0 0 0
0:00:00.00 309855 N 0 0 0
0:00:00.00 310066 N 0 0 0
0:00:00.00 310271 N 0 0 0
0:00:00.00 310489 N 0 0 0
0:00:00.00 310716 N 0 0 0
0:00:00.00 310919 N 0 0 0
0:00:00.00 311132 N 0 0 0
0:00:00.00 311325 N 0 0 0
0:00:00.00 311532 N 0 0 0
0:00:00.00 311760 N 0 0 0
0:00:00.00 311974 N 0 0 0
0:00:00.00 312207 N 0 0 0
0:00:00.00 312437 N 0 0 0
0:00:00.00 312646 N 0 0 0
0:00:00.00 312852 N 0 0 0
0:00:00.00 313046 N 0 0 0
0:00:00.00 313240 N 0 0 0
0:00:00.00 313456 N 0 0 0
0:00:00.00 313695 N 0 0 0
0:00:00.00 313922 N 0 0 0
0:00:00.00 314164 N 0 0 0
0:00:00.00 314372 N 0 0 0
0:00:00.00 314580 N 0 0 0
0:00:00.00 314802 N 0 0 0
0:00:00.00 314996 N 0 0 0
0:00:00.00 315210 N 0 0 0
0:00:00.00 315426 N 0 0 0
0:00:00.00 315627 N 0 0 0
0:00:00.00 315857 N 0 0 0
0:00:00.00 316075 N 0 0 0
0:00:00.00 316298 N 0 0 0
0:00:00.00 316539 N 0 0 0
0:00:00.00 316778 N 0 0 0
0:00:00.00 316992 N 0 0 0
0:00:00.00 317209 N 0 0 0
0:00:00.00 317405 N 0 0 0
0:00:00.00 317601 N 0 0 0
0:00:00.00 317818 N 0 0 0
0:00:00.00 318032 N 0 0 0
0:00:00.00 318271 N 0 0 0
0:00:00.00 318524 N 0 0 0
0:00:00.00 318758 N 0 0 0
0:00:00.00 318982 N 0 0 0
0:00:00.00 319182 N 0 0 0
0:00:00.00 319386 N 0 0 0
0:00:00.00 319608 N 0 0 0
0:00:00.00 319831 N 0 0 0
0:00:00.00 320053 N 0 0 0
0:00:00.00 320280 N 0 0 0
0:00:00.00 320503 N 0 0 0
0:00:00.00 320719 N 0 0 0
0:00:00.00 320940 N 0 0 0
0:00:00.00 321165 N 0 0 0
0:00:00.00 321379 N 0 0 0
0:00:00.00 321603 N 0 0 0
0:00:00.00 321807 N 0 0 0
0:00:00.00 322019 N 0 0 0
0:00:00.00 322217 N 0 0 0
0:00:00.00 322448 N 0 0 0
0:00:00.00 322668 N 0 0 0
0:00:00.00 322957 N 0 0 0
0:00:00.00 323178 N 0 0 0
0:00:00.00 323393 N 0 0 0
0:00:00.00 323603 N 0 0 0
0:00:00.00 323812 N 0 0 0
0:00:00.00 323986 N 0 0 0
0:00:00.00 324232 N 0 0 0
0:00:00.00 324468 N 0 0 0
0:00:00.00 324702 N 0 0 0
0:00:00.00 324933 N 0 0 0
0:00:00.00 325155 N 0 0 0
0:00:00.00 325381 N 0 0 0
0:00:00.00 325612 N 0 0 0
0:00:00.00 325840 N 0 0 0
0:00:00.00 326055 N 0 0 0
0:00:00.00 326263 N 0 0 0
0:00:00.00 326473 N 0 0 0
0:00:00.00 326690 N 0 0 0
0:00:00.00 326914 N 0 0 0
0:00:00.00 327156 N 0 0 0
0:00:00.00 327389 N 0 0 0
0:00:00.00 327633 N 0 0 0
0:00:00.00 327846 N 0 0 0
0:00:00.00 328063 N 0 0 0
0:00:00.00 328264 N 0 0 0
0:00:00.00 328486 N 0 0 0
0:00:00.00 328735 N 0 0 0
0:00:00.00 328945 N 0 0 0
0:00:00.00 329208 N 0 0 0
0:00:00.00 329399 N 0 0 0
0:00:00.00 329661 N 0 0 0
0:00:00.00 329887 N 0 0 0
0:00:00.00 330101 N 0 0 0
0:00:00.00 330323 N 0 0 0
0:00:00.00 330561 N 0 0 0
0:00:00.00 330752 N 0 0 0
0:00:00.00 331022 N 0 0 0
0:00:00.00 331249 N 0 0 0
0:00:00.00 331502 N 0 0 0
0:00:00.00 331723 N 0 0 0
0:00:00.00 332002 N 0 0 0
0:00:00.00 332210 N 0 0 0
0:00:00.00 332422 N 0 0 0
0:00:00.00 332601 N 0 0 0
0:00:00.00 332871 N 0 0 0
0:00:00.00 333092 N 0 0 0
0:00:00.00 333337 N 0 0 0
0:00:00.00 333602 N 0 0 0
0:00:00.00 333837 N 0 0 0
0:00:00.00 334045 N 0 0 0
0:00:00.00 334268 N 0 0 0
0:00:00.00 334456 N 0 0 0
0:00:00.00 334735 N 0 0 0
0:00:00.00 334958 N 0 0 0
0:00:00.00 335194 N 0 0 0
0:00:00.00 335425 N 0 0 0
0:00:00.00 335670 N 0 0 0
0:00:00.00 335922 N 0 0 0
0:00:00.00 336145 N 0 0 0
0:00:00.00 336390 N 0 0 0
0:00:00.00 336628 N 0 0 0
0:00:00.00 336836 N 0 0 0
0:00:00.00 337074 N 0 0 0
0:00:00.00 337261 N 0 0 0
0:00:00.00 337530 N 0 0 0
0:00:00.00 337751 N 0 0 0
0:00:00.00 338072 N 0 0 0
0:00:00.00 338280 N 0 0 0
0:00:00.00 338554 N 0 0 0
0:00:00.00 338777 N 0 0 0
0:00:00.00 339008 N 0 0 0
0:00:00.00 339228 N 0 0 0
0:00:00.00 339472 N 0 0 0
0:00:00.00 339740 N 0 0 0
0:00:00.00 339990 N 0 0 0
0:00:00.00 340243 N 0 0 0
0:00:00.00 340424 N 0 0 0
0:00:00.00 340612 N 0 0 0
0:00:00.00 340961 N 0 0 0
0:00:00.00 341141 N 0 0 0
0:00:00.00 341427 N 0 0 0
0:00:00.00 341649 N 0 0 0
0:00:00.00 341878 N 0 0 0
0:00:00.00 342123 N 0 0 0
0:00:00.00 342319 N 0 0 0
0:00:00.00 342622 N 0 0 0
0:00:00.00 342832 N 0 0 0
0:00:00.00 343082 N 0 0 0
0:00:00.00 343295 N 0 0 0
0:00:00.00 343513 N 0 0 0
0:00:00.00 343762 N 0 0 0
0:00:00.00 344018 N 0 0 0
0:00:00.00 344274 N 0 0 0
0:00:00.00 344521 N 0 0 0
0:00:00.00 344746 N 0 0 0
0:00:00.00 344995 N 0 0 0
0:00:00.00 345188 N 0 0 0
0:00:00.00 345451 N 0 0 0
0:00:00.00 345641 N 0 0 0
0:00:00.00 345927 N 0 0 0
0:00:00.00 346117 N 0 0 0
0:00:00.00 346404 N 0 0 0
0:00:00.00 346608 N 0 0 0
0:00:00.00 346934 N 0 0 0
0:00:00.00 347120 N 0 0 0
0:00:00.00 347407 N 0 0 0
0:00:00.00 347591 N 0 0 0
0:00:00.00 347846 N 0 0 0
0:00:00.00 348038 N 0 0 0
0:00:00.00 348330 N 0 0 0
0:00:00.00 348533 N 0 0 0
0:00:00.00 348842 N 0 0 0
0:00:00.00 349030 N 0 0 0
0:00:00.00 349318 N 0 0 0
0:00:00.00 349494 N 0 0 0
0:00:00.00 349772 N 0 0 0
0:00:00.00 349969 N 0 0 0
0:00:00.00 350256 N 0 0 0
0:00:00.00 350459 N 0 0 0
0:00:00.00 350724 N 0 0 0
0:00:00.00 350923 N 0 0 0
0:00:00.00 351205 N 0 0 0
0:00:00.00 351404 N 0 0 0
0:00:00.00 351692 N 0 0 0
0:00:00.00 351883 N 0 0 0
0:00:00.00 352155 N 0 0 0
0:00:00.00 352330 N 0 0 0
0:00:00.00 352624 N 0 0 0
0:00:00.00 352908 N 0 0 0
0:00:00.00 353181 N 0 0 0
0:00:00.00 353441 N 0 0 0
0:00:00.00 353660 N 0 0 0
0:00:00.00 353883 N 0 0 0
0:00:00.00 354110 N 0 0 0
0:00:00.00 354295 N 0 0 0
0:00:00.00 354584 N 0 0 0
0:00:00.00 354799 N 0 0 0
0:00:00.00 355092 N 0 0 0
0:00:00.00 355294 N 0 0 0
0:00:00.00 355311 N 0 0 0
0:00:00.00 355602 N 0 0 0
0:00:00.00 355798 N 0 0 0
0:00:00.00 356116 N 0 0 0
0:00:00.00 356366 N 0 0 0
0:00:00.00 356555 N 0 0 0
0:00:00.00 356827 N 0 0 0
0:00:00.00 357051 N 0 0 0
0:00:00.00 357365 N 0 0 0
0:00:00.00 357570 N 0 0 0
0:00:00.00 357947 N 0 0 0
0:00:00.00 358123 N 0 0 0
0:00:00.00 358419 N 0 0 0
0:00:00.00 358599 N 0 0 0
0:00:00.00 358910 N 0 0 0
0:00:00.00 359186 N 0 0 0
0:00:00.00 359468 N 0 0 0
0:00:00.00 359713 N 0 0 0
0:00:00.00 359947 N 0 0 0
0:00:00.00 360163 N 0 0 0
0:00:00.00 360399 N 0 0 0
0:00:00.00 360604 N 0 0 0
0:00:00.00 360888 N 0 0 0
0:00:00.00 361073 N 0 0 0
0:00:00.00 361228 N 0 0 0
0:00:00.00 361611 N 0 0 0
0:00:00.00 361822 N 0 0 0
0:00:00.00 362143 N 0 0 0
0:00:00.00 362337 N 0 0 0
0:00:00.00 362594 N 0 0 0
0:00:00.00 362761 N 0 0 0
0:00:00.00 363043 N 0 0 0
0:00:00.00 363232 N 0 0 0
0:00:00.00 363531 N 0 0 0
0:00:00.00 363736 N 0 0 0
0:00:00.00 364070 N 0 0 0
0:00:00.00 364257 N 0 0 0
0:00:00.00 364527 N 0 0 0
0:00:00.00 364703 N 0 0 0
0:00:00.00 365004 N 0 0 0
0:00:00.00 365203 N 0 0 0
0:00:00.00 365502 N 0 0 0
0:00:00.00 365686 N 0 0 0
0:00:00.00 365987 N 0 0 0
0:00:00.00 366193 N 0 0 0
0:00:00.00 366478 N 0 0 0
0:00:00.00 366665 N 0 0 0
0:00:00.00 366962 N 0 0 0
0:00:00.00 367141 N 0 0 0
0:00:00.00 367404 N 0 0 0
0:00:00.00 367577 N 0 0 0
0:00:00.00 367907 N 0 0 0
0:00:00.00 368132 N 0 0 0
0:00:00.00 368451 N 0 0 0
0:00:00.00 368638 N 0 0 0
0:00:00.00 368919 N 0 0 0
0:00:00.00 369102 N 0 0 0
0:00:00.00 369368 N 0 0 0
0:00:00.00 369557 N 0 0 0
0:00:00.00 369876 N 0 0 0
0:00:00.00 370079 N 0 0 0
0:00:00.00 370401 N 0 0 0
0:00:00.00 370586 N 0 0 0
0:00:00.00 370896 N 0 0 0
0:00:00.00 371101 N 0 0 0
0:00:00.00 371401 N 0 0 0
0:00:00.00 371587 N 0 0 0
0:00:00.00 371883 N 0 0 0
0:00:00.00 372072 N 0 0 0
0:00:00.00 372405 N 0 0 0
0:00:00.00 372610 N 0 0 0
0:00:00.00 372930 N 0 0 0
0:00:00.00 373131 N 0 0 0
0:00:00.00 373277 N 0 0 0
0:00:00.00 373706 N 0 0 0
0:00:00.00 373898 N 0 0 0
0:00:00.00 374354 N 0 0 0
0:00:00.00 374586 N 0 0 0
0:00:00.00 374916 N 0 0 0
0:00:00.00 375169 N 0 0 0
0:00:00.00 375412 N 0 0 0
0:00:00.00 375662 N 0 0 0
0:00:00.00 375884 N 0 0 0
0:00:00.00 376160 N 0 0 0
0:00:00.00 376431 N 0 0 0
0:00:00.00 376681 N 0 0 0
0:00:00.00 376953 N 0 0 0
0:00:00.00 377245 N 0 0 0
0:00:00.00 377494 N 0 0 0
0:00:00.00 377742 N 0 0 0
0:00:00.00 377980 N 0 0 0
0:00:00.00 378235 N 0 0 0
0:00:00.00 378494 N 0 0 0
0:00:00.00 378789 N 0 0 0
0:00:00.00 379040 N 0 0 0
0:00:00.00 379323 N 0 0 0
0:00:00.00 379703 N 0 0 0
0:00:00.00 379898 N 0 0 0
0:00:00.00 380295 N 0 0 0
0:00:00.00 380486 N 0 0 0
0:00:00.00 380915 N 0 0 0
0:00:00.00 381118 N 0 0 0
0:00:00.00 381525 N 0 0 0
0:00:00.00 381719 N 0 0 0
0:00:00.00 382089 N 0 0 0
0:00:00.00 382302 N 0 0 0
0:00:00.00 382620 N 0 0 0
0:00:00.00 382802 N 0 0 0
0:00:00.00 383169 N 0 0 0
0:00:00.00 383440 N 0 0 0
0:00:00.00 383448 N 0 0 0
0:00:00.00 383762 N 0 0 0
0:00:00.00 383952 N 0 0 0
0:00:00.00 384244 N 0 0 0
0:00:00.00 384438 N 0 0 0
0:00:00.00 384749 N 0 0 0
0:00:00.00 384945 N 0 0 0
0:00:00.00 385314 N 0 0 0
0:00:00.00 385514 N 0 0 0
0:00:00.00 385685 N 0 0 0
0:00:00.00 386083 N 0 0 0
0:00:00.00 386287 N 0 0 0
0:00:00.00 386609 N 0 0 0
0:00:00.00 386804 N 0 0 0
0:00:00.00 387114 N 0 0 0
0:00:00.00 387306 N 0 0 0
0:00:00.00 387637 N 0 0 0
0:00:00.00 387842 N 0 0 0
0:00:00.00 388176 N 0 0 0
0:00:00.00 388364 N 0 0 0
0:00:00.00 388660 N 0 0 0
0:00:00.00 388834 N 0 0 0
0:00:00.00 389162 N 0 0 0
0:00:00.00 389382 N 0 0 0
0:00:00.00 389742 N 0 0 0
0:00:00.00 389940 N 0 0 0
0:00:00.00 390259 N 0 0 0
0:00:00.00 390454 N 0 0 0
0:00:00.00 390763 N 0 0 0
0:00:00.00 390946 N 0 0 0
0:00:00.00 391286 N 0 0 0
0:00:00.00 391481 N 0 0 0
0:00:00.00 391829 N 0 0 0
0:00:00.00 392026 N 0 0 0
0:00:00.00 392399 N 0 0 0
0:00:00.00 392598 N 0 0 0
0:00:00.00 392924 N 0 0 0
0:00:00.00 393101 N 0 0 0
0:00:00.00 393434 N 0 0 0
0:00:00.00 393654 N 0 0 0
0:00:00.00 393997 N 0 0 0
0:00:00.00 394231 N 0 0 0
0:00:00.00 394572 N 0 0 0
0:00:00.00 394762 N 0 0 0
0:00:00.00 394915 N 0 0 0
0:00:00.00 395354 N 0 0 0
0:00:00.00 395556 N 0 0 0
0:00:00.00 395930 N 0 0 0
0:00:00.00 396124 N 0 0 0
0:00:00.00 396327 N 0 0 0
0:00:00.00 396904 N 0 0 0
0:00:00.00 397090 N 0 0 0
0:00:00.00 397522 N 0 0 0
0:00:00.00 397718 N 0 0 0
0:00:00.00 398083 N 0 0 0
0:00:00.00 398316 N 0 0 0
0:00:00.00 398644 N 0 0 0
0:00:00.00 399038 N 0 0 0
0:00:00.00 399220 N 0 0 0
0:00:00.00 399576 N 0 0 0
0:00:00.00 399752 N 0 0 0
0:00:00.00 400144 N 0 0 0
0:00:00.00 400362 N 0 0 0
0:00:00.00 400772 N 0 0 0
0:00:00.00 400986 N 0 0 0
0:00:00.00 401310 N 0 0 0
0:00:00.00 401551 N 0 0 0
0:00:00.00 401840 N 0 0 0
0:00:00.00 402029 N 0 0 0
0:00:00.00 402348 N 0 0 0
0:00:00.00 402554 N 0 0 0
0:00:00.00 402727 N 0 0 0
0:00:00.00 403149 N 0 0 0
0:00:00.00 403355 N 0 0 0
0:00:00.00 403659 N 0 0 0
0:00:00.00 403844 N 0 0 0
0:00:00.00 404125 N 0 0 0
0:00:00.00 404331 N 0 0 0
0:00:00.00 404686 N 0 0 0
0:00:00.00 404897 N 0 0 0
0:00:00.00 405215 N 0 0 0
0:00:00.00 405461 N 0 0 0
0:00:00.00 405658 N 0 0 0
0:00:00.00 405930 N 0 0 0
0:00:00.00 406129 N 0 0 0
0:00:00.00 406429 N 0 0 0
0:00:00.00 406618 N 0 0 0
0:00:00.00 406896 N 0 0 0
0:00:00.00 407078 N 0 0 0
0:00:00.00 407450 N 0 0 0
0:00:00.00 407652 N 0 0 0
0:00:00.00 407973 N 0 0 0
0:00:00.00 408148 N 0 0 0
0:00:00.00 408328 N 0 0 0
0:00:00.00 408547 N 0 0 0
0:00:00.00 408952 N 0 0 0
0:00:00.00 409155 N 0 0 0
0:00:00.00 409508 N 0 0 0
0:00:00.00 409701 N 0 0 0
0:00:00.00 409996 N 0 0 0
0:00:00.00 410177 N 0 0 0
0:00:00.00 410501 N 0 0 0
0:00:00.00 410689 N 0 0 0
0:00:00.00 411030 N 0 0 0
0:00:00.00 411225 N 0 0 0
0:00:00.00 411549 N 0 0 0
0:00:00.00 411739 N 0 0 0
0:00:00.00 412042 N 0 0 0
0:00:00.00 412236 N 0 0 0
0:00:00.00 412539 N 0 0 0
0:00:00.00 412725 N 0 0 0
0:00:00.00 413234 N 0 0 0
0:00:00.00 413610 N 0 0 0
0:00:00.00 413806 N 0 0 0
0:00:00.00 413980 N 0 0 0
0:00:00.00 414363 N 0 0 0
0:00:00.00 414538 N 0 0 0
0:00:00.00 414843 N 0 0 0
0:00:00.00 415105 N 0 0 0
0:00:00.00 415385 N 0 0 0
0:00:00.00 415656 N 0 0 0
0:00:00.00 415894 N 0 0 0
0:00:00.00 416154 N 0 0 0
0:00:00.00 416413 N 0 0 0
0:00:00.00 416680 N 0 0 0
0:00:00.00 416879 N 0 0 0
0:00:00.00 417133 N 0 0 0
0:00:00.00 417344 N 0 0 0
0:00:00.00 417497 N 0 0 0
0:00:00.00 417974 N 0 0 0
0:00:00.00 418178 N 0 0 0
0:00:00.00 418568 N 0 0 0
0:00:00.00 418772 N 0 0 0
0:00:00.00 418780 N 0 0 0
0:00:00.00 419057 N 0 0 0
0:00:00.00 419269 N 0 0 0
0:00:00.00 419278 N 0 0 0
0:00:00.00 419609 N 0 0 0
0:00:00.00 419896 N 0 0 0
0:00:00.00 420124 N 0 0 0
0:00:00.00 420417 N 0 0 0
0:00:00.00 420612 N 0 0 0
0:00:00.00 420899 N 0 0 0
0:00:00.00 421084 N 0 0 0
0:00:00.00 421392 N 0 0 0
0:00:00.00 421601 N 0 0 0
0:00:00.00 421932 N 0 0 0
0:00:00.00 422127 N 0 0 0
0:00:00.00 422144 N 0 0 0
0:00:00.00 422463 N 0 0 0
0:00:00.00 422675 N 0 0 0
0:00:00.00 422877 N 0 0 0
0:00:00.00 423246 N 0 0 0
0:00:00.00 423426 N 0 0 0
0:00:00.00 423745 N 0 0 0
0:00:00.00 423946 N 0 0 0
0:00:00.00 424281 N 0 0 0
0:00:00.00 424494 N 0 0 0
0:00:00.00 424825 N 0 0 0
0:00:00.00 425021 N 0 0 0
0:00:00.00 425300 N 0 0 0
0:00:00.00 425485 N 0 0 0
0:00:00.00 425829 N 0 0 0
0:00:00.00 426036 N 0 0 0
0:00:00.00 426215 N 0 0 0
0:00:00.00 426624 N 0 0 0
0:00:00.00 426820 N 0 0 0
0:00:00.00 427125 N 0 0 0
0:00:00.00 427327 N 0 0 0
0:00:00.00 427633 N 0 0 0
0:00:00.00 427808 N 0 0 0
0:00:00.00 428095 N 0 0 0
0:00:00.00 428289 N 0 0 0
0:00:00.00 428622 N 0 0 0
0:00:00.00 428849 N 0 0 0
0:00:00.00 429170 N 0 0 0
0:00:00.00 429359 N 0 0 0
0:00:00.00 429611 N 0 0 0
0:00:00.00 429790 N 0 0 0
0:00:00.00 430117 N 0 0 0
0:00:00.00 430324 N 0 0 0
0:00:00.00 430685 N 0 0 0
0:00:00.00 430879 N 0 0 0
0:00:00.00 431197 N 0 0 0
0:00:00.00 431385 N 0 0 0
0:00:00.00 431557 N 0 0 0
0:00:00.00 431943 N 0 0 0
0:00:00.00 432137 N 0 0 0
0:00:00.00 432420 N 0 0 0
0:00:00.00 432619 N 0 0 0
0:00:00.00 432914 N 0 0 0
0:00:00.00 433111 N 0 0 0
0:00:00.00 433451 N 0 0 0
0:00:00.00 433655 N 0 0 0
0:00:00.00 433951 N 0 0 0
0:00:00.00 434141 N 0 0 0
0:00:00.00 434427 N 0 0 0
0:00:00.00 434632 N 0 0 0
0:00:00.00 434992 N 0 0 0
0:00:00.00 435217 N 0 0 0
0:00:00.00 435525 N 0 0 0
0:00:00.00 435712 N 0 0 0
0:00:00.00 436005 N 0 0 0
0:00:00.00 436188 N 0 0 0
0:00:00.00 436481 N 0 0 0
0:00:00.00 436694 N 0 0 0
0:00:00.00 436997 N 0 0 0
0:00:00.00 437197 N 0 0 0
0:00:00.00 437498 N 0 0 0
0:00:00.00 437708 N 0 0 0
0:00:00.00 438002 N 0 0 0
0:00:00.00 438198 N 0 0 0
0:00:00.00 438462 N 0 0 0
0:00:00.00 438649 N 0 0 0
0:00:00.00 438939 N 0 0 0
0:00:00.00 439133 N 0 0 0
0:00:00.00 439457 N 0 0 0
0:00:00.00 439677 N 0 0 0
0:00:00.00 439986 N 0 0 0
0:00:00.00 440178 N 0 0 0
0:00:00.00 440451 N 0 0 0
0:00:00.00 440642 N 0 0 0
0:00:00.00 440942 N 0 0 0
0:00:00.00 441144 N 0 0 0
0:00:00.00 441477 N 0 0 0
0:00:00.00 441678 N 0 0 0
0:00:00.00 442006 N 0 0 0
0:00:00.00 442198 N 0 0 0
0:00:00.00 442471 N 0 0 0
0:00:00.00 442673 N 0 0 0
0:00:00.00 442991 N 0 0 0
0:00:00.00 443182 N 0 0 0
0:00:00.00 443466 N 0 0 0
0:00:00.00 443682 N 0 0 0
0:00:00.00 444040 N 0 0 0
0:00:00.00 444240 N 0 0 0
0:00:00.00 444526 N 0 0 0
0:00:00.00 444714 N 0 0 0
0:00:00.00 444987 N 0 0 0
0:00:00.00 445163 N 0 0 0
0:00:00.00 445473 N 0 0 0
0:00:00.00 445690 N 0 0 0
0:00:00.00 446007 N 0 0 0
0:00:00.00 446214 N 0 0 0
0:00:00.00 446498 N 0 0 0
0:00:00.00 446687 N 0 0 0
0:00:00.00 446985 N 0 0 0
0:00:00.00 447175 N 0 0 0
0:00:00.00 447476 N 0 0 0
0:00:00.00 447668 N 0 0 0
0:00:00.00 447969 N 0 0 0
0:00:00.00 448161 N 0 0 0
0:00:00.00 448464 N 0 0 0
0:00:00.00 448665 N 0 0 0
0:00:00.00 448953 N 0 0 0
0:00:00.00 449141 N 0 0 0
0:00:00.00 449400 N 0 0 0
0:00:00.00 449587 N 0 0 0
0:00:00.00 449919 N 0 0 0
0:00:00.00 450138 N 0 0 0
0:00:00.00 450456 N 0 0 0
0:00:00.00 450637 N 0 0 0
0:00:00.00 450900 N 0 0 0
0:00:00.00 451102 N 0 0 0
0:00:00.00 451390 N 0 0 0
0:00:00.00 451576 N 0 0 0
0:00:00.00 451886 N 0 0 0
0:00:00.00 452082 N 0 0 0
0:00:00.00 452383 N 0 0 0
0:00:00.00 452576 N 0 0 0
0:00:00.00 453095 N 0 0 0
0:00:00.00 453380 N 0 0 0
0:00:00.00 453545 N 0 0 0
0:00:00.00 453826 N 0 0 0
0:00:00.00 454031 N 0 0 0
0:00:00.00 454301 N 0 0 0
0:00:00.00 454509 N 0 0 0
0:00:00.00 454878 N 0 0 0
0:00:00.00 455063 N 0 0 0
0:00:00.00 455367 N 0 0 0
0:00:00.00 455546 N 0 0 0
0:00:00.00 455868 N 0 0 0
0:00:00.00 456070 N 0 0 0
0:00:00.00 456406 N 0 0 0
0:00:00.00 456604 N 0 0 0
0:00:00.00 456926 N 0 0 0
0:00:00.00 457129 N 0 0 0
0:00:00.00 457425 N 0 0 0
0:00:00.00 457615 N 0 0 0
0:00:00.00 457936 N 0 0 0
0:00:00.00 458124 N 0 0 0
0:00:00.00 458407 N 0 0 0
0:00:00.00 458604 N 0 0 0
0:00:00.00 459209 N 0 0 0
0:00:00.00 459549 N 0 0 0
0:00:00.00 459721 N 0 0 0
0:00:00.00 459991 N 0 0 0
0:00:00.00 460187 N 0 0 0
0:00:00.00 460343 N 0 0 0
0:00:00.00 460794 N 0 0 0
0:00:00.00 461007 N 0 0 0
0:00:00.00 461358 N 0 0 0
0:00:00.00 461623 N 0 0 0
0:00:00.00 461879 N 0 0 0
0:00:00.00 462148 N 0 0 0
0:00:00.00 462393 N 0 0 0
0:00:00.00 462596 N 0 0 0
0:00:00.00 462881 N 0 0 0
0:00:00.00 463088 N 0 0 0
0:00:00.00 463396 N 0 0 0
0:00:00.00 463601 N 0 0 0
0:00:00.00 463797 N 0 0 0
0:00:00.00 464136 N 0 0 0
0:00:00.00 464322 N 0 0 0
0:00:00.00 464588 N 0 0 0
0:00:00.00 464782 N 0 0 0
0:00:00.00 465101 N 0 0 0
0:00:00.00 465310 N 0 0 0
0:00:00.00 465628 N 0 0 0
0:00:00.00 465815 N 0 0 0
0:00:00.00 466081 N 0 0 0
0:00:00.00 466278 N 0 0 0
0:00:00.00 466533 N 0 0 0
0:00:00.00 466726 N 0 0 0
0:00:00.00 467030 N 0 0 0
0:00:00.00 467228 N 0 0 0
0:00:00.00 467529 N 0 0 0
0:00:00.00 467723 N 0 0 0
0:00:00.00 468021 N 0 0 0
0:00:00.00 468229 N 0 0 0
0:00:00.00 468517 N 0 0 0
0:00:00.00 468707 N 0 0 0
0:00:00.00 468970 N 0 0 0
0:00:00.00 469160 N 0 0 0
0:00:00.00 469452 N 0 0 0
0:00:00.00 469676 N 0 0 0
0:00:00.00 470009 N 0 0 0
0:00:00.00 470201 N 0 0 0
0:00:00.00 470485 N 0 0 0
0:00:00.00 470660 N 0 0 0
0:00:00.00 470925 N 0 0 0
0:00:00.00 471131 N 0 0 0
0:00:00.00 471457 N 0 0 0
0:00:00.00 471677 N 0 0 0
0:00:00.00 471974 N 0 0 0
0:00:00.00 472162 N 0 0 0
0:00:00.00 472455 N 0 0 0
0:00:00.00 472648 N 0 0 0
0:00:00.00 472930 N 0 0 0
0:00:00.00 473124 N 0 0 0
0:00:00.00 473412 N 0 0 0
0:00:00.00 473604 N 0 0 0
0:00:00.00 473907 N 0 0 0
0:00:00.00 474124 N 0 0 0
0:00:00.00 474420 N 0 0 0
0:00:00.00 474623 N 0 0 0
0:00:00.00 474934 N 0 0 0
0:00:00.00 475110 N 0 0 0
0:00:00.00 475434 N 0 0 0
0:00:00.00 475707 N 0 0 0
0:00:00.00 475989 N 0 0 0
0:00:00.00 476276 N 0 0 0
0:00:00.00 476541 N 0 0 0
0:00:00.00 476741 N 0 0 0
0:00:00.00 477005 N 0 0 0
0:00:00.00 477243 N 0 0 0
0:00:00.00 477550 N 0 0 0
0:00:00.00 477756 N 0 0 0
0:00:00.00 478068 N 0 0 0
0:00:00.00 478271 N 0 0 0
0:00:00.00 478556 N 0 0 0
0:00:00.00 478762 N 0 0 0
0:00:00.00 479118 N 0 0 0
0:00:00.00 479304 N 0 0 0
0:00:00.00 479320 N 0 0 0
0:00:00.00 479613 N 0 0 0
0:00:00.00 479802 N 0 0 0
0:00:00.00 479989 N 0 0 0
0:00:00.00 480411 N 0 0 0
0:00:00.00 480638 N 0 0 0
0:00:00.00 480985 N 0 0 0
0:00:00.00 481203 N 0 0 0
0:00:00.00 481476 N 0 0 0
0:00:00.00 481654 N 0 0 0
0:00:00.00 481976 N 0 0 0
0:00:00.00 482188 N 0 0 0
0:00:00.00 482485 N 0 0 0
0:00:00.00 482698 N 0 0 0
0:00:00.00 483086 N 0 0 0
0:00:00.00 483286 N 0 0 0
0:00:00.00 483632 N 0 0 0
0:00:00.00 483829 N 0 0 0
0:00:00.00 484112 N 0 0 0
0:00:00.00 484299 N 0 0 0
0:00:00.00 484606 N 0 0 0
0:00:00.00 484821 N 0 0 0
0:00:00.00 485148 N 0 0 0
0:00:00.00 485346 N 0 0 0
0:00:00.00 485627 N 0 0 0
0:00:00.00 485800 N 0 0 0
0:00:00.00 486099 N 0 0 0
0:00:00.00 486300 N 0 0 0
0:00:00.00 486629 N 0 0 0
0:00:00.00 486842 N 0 0 0
0:00:00.00 487122 N 0 0 0
0:00:00.00 487316 N 0 0 0
0:00:00.00 487629 N 0 0 0
0:00:00.00 487816 N 0 0 0
0:00:00.00 488121 N 0 0 0
0:00:00.00 488363 N 0 0 0
0:00:00.00 488581 N 0 0 0
0:00:00.00 488845 N 0 0 0
0:00:00.00 489100 N 0 0 0
0:00:00.00 489380 N 0 0 0
0:00:00.00 489640 N 0 0 0
0:00:00.00 489891 N 0 0 0
0:00:00.00 490066 N 0 0 0
0:00:00.00 490336 N 0 0 0
0:00:00.00 490550 N 0 0 0
0:00:00.00 490842 N 0 0 0
0:00:00.00 491049 N 0 0 0
0:00:00.00 491364 N 0 0 0
0:00:00.00 491561 N 0 0 0
0:00:00.00 491875 N 0 0 0
0:00:00.00 492059 N 0 0 0
0:00:00.00 492382 N 0 0 0
0:00:00.00 492578 N 0 0 0
0:00:00.00 492873 N 0 0 0
0:00:00.00 493059 N 0 0 0
0:00:00.00 493364 N 0 0 0
0:00:00.00 493573 N 0 0 0
0:00:00.00 493849 N 0 0 0
0:00:00.00 494045 N 0 0 0
0:00:00.00 494346 N 0 0 0
0:00:00.00 494527 N 0 0 0
0:00:00.00 494778 N 0 0 0
0:00:00.00 494962 N 0 0 0
0:00:00.00 495286 N 0 0 0
0:00:00.00 495504 N 0 0 0
0:00:00.00 495814 N 0 0 0
0:00:00.00 496006 N 0 0 0
0:00:00.00 496274 N 0 0 0
0:00:00.00 496455 N 0 0 0
0:00:00.00 496723 N 0 0 0
0:00:00.00 496925 N 0 0 0
0:00:00.00 497220 N 0 0 0
0:00:00.00 497423 N 0 0 0
0:00:00.00 497738 N 0 0 0
0:00:00.00 497939 N 0 0 0
0:00:00.00 498087 N 0 0 0
0:00:00.00 498474 N 0 0 0
0:00:00.00 498659 N 0 0 0
0:00:00.00 498950 N 0 0 0
0:00:00.00 499130 N 0 0 0
0:00:00.00 499400 N 0 0 0
0:00:00.00 499603 N 0 0 0
0:00:00.00 499922 N 0 0 0
0:00:00.00 500136 N 0 0 0
0:00:00.00 500446 N 0 0 0
0:00:00.00 500628 N 0 0 0
0:00:00.00 500904 N 0 0 0
0:00:00.00 501085 N 0 0 0
0:00:00.00 501344 N 0 0 0
0:00:00.00 501568 N 0 0 0
0:00:00.00 501933 N 0 0 0
0:00:00.00 502142 N 0 0 0
0:00:00.00 502434 N 0 0 0
0:00:00.00 502632 N 0 0 0
0:00:00.00 502890 N 0 0 0
0:00:00.00 503085 N 0 0 0
0:00:00.00 503384 N 0 0 0
0:00:00.00 503574 N 0 0 0
0:00:00.00 503880 N 0 0 0
0:00:00.00 504072 N 0 0 0
0:00:00.00 504376 N 0 0 0
0:00:00.00 504601 N 0 0 0
0:00:00.00 504901 N 0 0 0
0:00:00.00 505095 N 0 0 0
0:00:00.00 505335 N 0 0 0
0:00:00.00 505519 N 0 0 0
0:00:00.00 505825 N 0 0 0
0:00:00.00 506024 N 0 0 0
0:00:00.00 506353 N 0 0 0
0:00:00.00 506579 N 0 0 0
0:00:00.00 506855 N 0 0 0
0:00:00.00 507040 N 0 0 0
0:00:00.00 507307 N 0 0 0
0:00:00.00 507503 N 0 0 0
0:00:00.00 507688 N 0 0 0
0:00:00.00 508040 N 0 0 0
0:00:00.00 508238 N 0 0 0
0:00:00.00 508535 N 0 0 0
0:00:00.00 508747 N 0 0 0
0:00:00.00 509010 N 0 0 0
0:00:00.00 509201 N 0 0 0
0:00:00.00 509494 N 0 0 0
0:00:00.00 509718 N 0 0 0
0:00:00.00 509948 N 0 0 0
0:00:00.00 510164 N 0 0 0
0:00:00.00 510408 N 0 0 0
0:00:00.00 510687 N 0 0 0
0:00:00.00 510948 N 0 0 0
0:00:00.00 511200 N 0 0 0
0:00:00.00 511414 N 0 0 0
0:00:00.00 511629 N 0 0 0
0:00:00.00 511858 N 0 0 0
0:00:00.00 512050 N 0 0 0
0:00:00.00 512220 N 0 0 0
0:00:00.00 512574 N 0 0 0
0:00:00.00 512770 N 0 0 0
0:00:00.00 513067 N 0 0 0
0:00:00.00 513252 N 0 0 0
0:00:00.00 513524 N 0 0 0
0:00:00.00 513734 N 0 0 0
0:00:00.00 514023 N 0 0 0
0:00:00.00 514213 N 0 0 0
0:00:00.00 514229 N 0 0 0
0:00:00.00 514482 N 0 0 0
0:00:00.00 514675 N 0 0 0
0:00:00.00 514969 N 0 0 0
0:00:00.00 515169 N 0 0 0
0:00:00.00 515474 N 0 0 0
0:00:00.00 515681 N 0 0 0
0:00:00.00 515936 N 0 0 0
0:00:00.00 516110 N 0 0 0
0:00:00.00 516368 N 0 0 0
0:00:00.00 516577 N 0 0 0
0:00:00.00 516894 N 0 0 0
0:00:00.00 517100 N 0 0 0
0:00:00.00 517404 N 0 0 0
0:00:00.00 517609 N 0 0 0
0:00:00.00 517887 N 0 0 0
0:00:00.00 518059 N 0 0 0
0:00:00.00 518343 N 0 0 0
0:00:00.00 518545 N 0 0 0
0:00:00.00 518839 N 0 0 0
0:00:00.00 519045 N 0 0 0
0:00:00.00 519341 N 0 0 0
0:00:00.00 519554 N 0 0 0
0:00:00.00 519869 N 0 0 0
0:00:00.00 520062 N 0 0 0
0:00:00.00 520347 N 0 0 0
0:00:00.00 520525 N 0 0 0
0:00:00.00 520787 N 0 0 0
0:00:00.00 520988 N 0 0 0
0:00:00.00 521300 N 0 0 0
0:00:00.00 521513 N 0 0 0
0:00:00.00 521849 N 0 0 0
0:00:00.00 522035 N 0 0 0
0:00:00.00 522311 N 0 0 0
0:00:00.00 522493 N 0 0 0
0:00:00.00 522793 N 0 0 0
0:00:00.00 522994 N 0 0 0
0:00:00.00 523311 N 0 0 0
0:00:00.00 523514 N 0 0 0
0:00:00.00 523816 N 0 0 0
0:00:00.00 524019 N 0 0 0
0:00:00.00 524290 N 0 0 0
0:00:00.00 524486 N 0 0 0
0:00:00.00 524795 N 0 0 0
0:00:00.00 524975 N 0 0 0
0:00:00.00 525265 N 0 0 0
0:00:00.00 525454 N 0 0 0
0:00:00.00 525767 N 0 0 0
0:00:00.00 525994 N 0 0 0
0:00:00.00 526299 N 0 0 0
0:00:00.00 526487 N 0 0 0
0:00:00.00 526741 N 0 0 0
0:00:00.00 526923 N 0 0 0
0:00:00.00 527195 N 0 0 0
0:00:00.00 527394 N 0 0 0
0:00:00.00 527695 N 0 0 0
0:00:00.00 527917 N 0 0 0
0:00:00.00 528215 N 0 0 0
0:00:00.00 528397 N 0 0 0
0:00:00.00 528678 N 0 0 0
0:00:00.00 528886 N 0 0 0
0:00:00.00 529157 N 0 0 0
0:00:00.00 529352 N 0 0 0
0:00:00.00 529618 N 0 0 0
0:00:00.00 529822 N 0 0 0
0:00:00.00 530110 N 0 0 0
0:00:00.00 530297 N 0 0 0
0:00:00.00 530595 N 0 0 0
0:00:00.00 530804 N 0 0 0
0:00:00.00 531067 N 0 0 0
0:00:00.00 531249 N 0 0 0
0:00:00.00 531497 N 0 0 0
0:00:00.00 531691 N 0 0 0
0:00:00.00 532005 N 0 0 0
0:00:00.00 532210 N 0 0 0
0:00:00.00 532524 N 0 0 0
0:00:00.00 532709 N 0 0 0
0:00:00.00 533195 N 0 0 0
0:00:00.00 533427 N 0 0 0
0:00:00.00 533633 N 0 0 0
0:00:00.00 533912 N 0 0 0
0:00:00.00 534156 N 0 0 0
0:00:00.00 534389 N 0 0 0
0:00:00.00 534625 N 0 0 0
0:00:00.00 534896 N 0 0 0
0:00:00.00 535150 N 0 0 0
0:00:00.00 535386 N 0 0 0
0:00:00.00 535600 N 0 0 0
0:00:00.00 535832 N 0 0 0
0:00:00.00 536076 N 0 0 0
0:00:00.00 536317 N 0 0 0
0:00:00.00 536584 N 0 0 0
0:00:00.00 536858 N 0 0 0
0:00:00.00 537061 N 0 0 0
0:00:00.00 537318 N 0 0 0
0:00:00.00 537498 N 0 0 0
0:00:00.00 537810 N 0 0 0
0:00:00.00 538008 N 0 0 0
0:00:00.00 538204 N 0 0 0
0:00:00.00 538436 N 0 0 0
0:00:00.00 538840 N 0 0 0
0:00:00.00 539028 N 0 0 0
0:00:00.00 539327 N 0 0 0
0:00:00.00 539555 N 0 0 0
0:00:00.00 539818 N 0 0 0
0:00:00.00 540012 N 0 0 0
0:00:00.00 540293 N 0 0 0
0:00:00.00 540471 N 0 0 0
0:00:00.00 540781 N 0 0 0
0:00:00.00 541001 N 0 0 0
0:00:00.00 541325 N 0 0 0
0:00:00.00 541522 N 0 0 0
0:00:00.00 541797 N 0 0 0
0:00:00.00 541976 N 0 0 0
0:00:00.00 542265 N 0 0 0
0:00:00.00 542440 N 0 0 0
0:00:00.00 542770 N 0 0 0
0:00:00.00 543070 N 0 0 0
0:00:00.00 543338 N 0 0 0
0:00:00.00 543586 N 0 0 0
0:00:00.00 543795 N 0 0 0
0:00:00.00 544064 N 0 0 0
0:00:00.00 544338 N 0 0 0
0:00:00.00 544602 N 0 0 0
0:00:00.00 544843 N 0 0 0
0:00:00.00 545106 N 0 0 0
0:00:00.00 545655 N 0 0 0
0:00:00.00 545853 N 0 0 0
0:00:00.00 546236 N 0 0 0
0:00:00.00 546420 N 0 0 0
0:00:00.00 546435 N 0 0 0
0:00:00.00 546735 N 0 0 0
0:00:00.00 547021 N 0 0 0
0:00:00.00 547317 N 0 0 0
0:00:00.00 547594 N 0 0 0
0:00:00.00 547846 N 0 0 0
0:00:00.00 548093 N 0 0 0
0:00:00.00 548299 N 0 0 0
0:00:00.00 548531 N 0 0 0
0:00:00.00 548878 N 0 0 0
0:00:00.00 549125 N 0 0 0
0:00:00.00 549280 N 0 0 0
0:00:00.00 549291 N 0 0 0
0:00:00.00 549743 N 0 0 0
0:00:00.00 549928 N 0 0 0
0:00:00.00 550324 N 0 0 0
0:00:00.00 550592 N 0 0 0
0:00:00.00 550752 N 0 0 0
0:00:00.00 551104 N 0 0 0
0:00:00.00 551297 N 0 0 0
0:00:00.00 551665 N 0 0 0
0:00:00.00 551954 N 0 0 0
0:00:00.00 552163 N 0 0 0
0:00:00.00 552173 N 0 0 0
0:00:00.00 552472 N 0 0 0
0:00:00.00 552654 N 0 0 0
0:00:00.00 552931 N 0 0 0
0:00:00.00 553134 N 0 0 0
0:00:00.00 553317 N 0 0 0
0:00:00.00 553327 N 0 0 0
0:00:00.00 553734 N 0 0 0
0:00:00.00 553926 N 0 0 0
0:00:00.00 554239 N 0 0 0
0:00:00.00 554444 N 0 0 0
0:00:00.00 554460 N 0 0 0
0:00:00.00 554710 N 0 0 0
0:00:00.00 554898 N 0 0 0
0:00:00.00 555245 N 0 0 0
0:00:00.00 555425 N 0 0 0
0:00:00.00 555444 N 0 0 0
0:00:00.00 555740 N 0 0 0
0:00:00.00 555945 N 0 0 0
0:00:00.00 555965 N 0 0 0
0:00:00.00 556310 N 0 0 0
0:00:00.00 556521 N 0 0 0
0:00:00.00 556843 N 0 0 0
0:00:00.00 557013 N 0 0 0
0:00:00.00 557029 N 0 0 0
0:00:00.00 557304 N 0 0 0
0:00:00.00 557504 N 0 0 0
0:00:00.00 557856 N 0 0 0
0:00:00.00 558060 N 0 0 0
0:00:00.00 558429 N 0 0 0
0:00:00.00 558674 N 0 0 0
0:00:00.00 558856 N 0 0 0
0:00:00.00 559178 N 0 0 0
0:00:00.00 559389 N 0 0 0
0:00:00.00 559697 N 0 0 0
0:00:00.00 559902 N 0 0 0
0:00:00.00 560226 N 0 0 0
0:00:00.00 560497 N 0 0 0
0:00:00.00 560690 N 0 0 0
0:00:00.00 561076 N 0 0 0
0:00:00.00 561278 N 0 0 0
0:00:00.00 561636 N 0 0 0
0:00:00.00 561819 N 0 0 0
0:00:00.00 562185 N 0 0 0
0:00:00.00 562528 N 0 0 0
0:00:00.00 562836 N 0 0 0
0:00:00.00 563115 N 0 0 0
0:00:00.00 563377 N 0 0 0
0:00:00.00 563647 N 0 0 0
0:00:00.00 563903 N 0 0 0
0:00:00.00 564175 N 0 0 0
0:00:00.00 564477 N 0 0 0
0:00:00.00 564766 N 0 0 0
0:00:00.00 565029 N 0 0 0
0:00:00.00 565291 N 0 0 0
0:00:00.00 565518 N 0 0 0
0:00:00.00 565875 N 0 0 0
0:00:00.00 566072 N 0 0 0
0:00:00.00 566429 N 0 0 0
0:00:00.00 566634 N 0 0 0
0:00:00.00 567030 N 0 0 0
0:00:00.00 567262 N 0 0 0
0:00:00.00 567603 N 0 0 0
0:00:00.00 567817 N 0 0 0
0:00:00.00 567959 N 0 0 0
0:00:00.00 568395 N 0 0 0
0:00:00.00 568627 N 0 0 0
0:00:00.00 568972 N 0 0 0
0:00:00.00 569252 N 0 0 0
0:00:00.00 569505 N 0 0 0
0:00:00.00 569758 N 0 0 0
0:00:00.00 569993 N 0 0 0
0:00:00.00 570240 N 0 0 0
0:00:00.00 570500 N 0 0 0
0:00:00.00 570755 N 0 0 0
0:00:00.00 570970 N 0 0 0
0:00:00.00 571239 N 0 0 0
0:00:00.00 571447 N 0 0 0
0:00:00.00 571789 N 0 0 0
0:00:00.00 571978 N 0 0 0
0:00:00.00 572261 N 0 0 0
0:00:00.00 572483 N 0 0 0
0:00:00.00 572745 N 0 0 0
0:00:00.00 572944 N 0 0 0
0:00:00.00 573267 N 0 0 0
0:00:00.00 573486 N 0 0 0
0:00:00.00 573867 N 0 0 0
0:00:00.00 574040 N 0 0 0
0:00:00.00 574383 N 0 0 0
0:00:00.00 574580 N 0 0 0
0:00:00.00 574944 N 0 0 0
0:00:00.00 575224 N 0 0 0
0:00:00.00 575498 N 0 0 0
0:00:00.00 575785 N 0 0 0
0:00:00.00 576036 N 0 0 0
0:00:00.00 576290 N 0 0 0
0:00:00.00 576549 N 0 0 0
0:00:00.00 576784 N 0 0 0
0:00:00.00 577016 N 0 0 0
0:00:00.00 577229 N 0 0 0
0:00:00.00 577536 N 0 0 0
0:00:00.00 577782 N 0 0 0
0:00:00.00 578211 N 0 0 0
0:00:00.00 578386 N 0 0 0
0:00:00.00 578402 N 0 0 0
0:00:00.00 578739 N 0 0 0
0:00:00.00 578916 N 0 0 0
0:00:00.00 578933 N 0 0 0
0:00:00.00 579265 N 0 0 0
0:00:00.00 579519 N 0 0 0
0:00:00.00 579837 N 0 0 0
0:00:00.00 580105 N 0 0 0
0:00:00.00 580357 N 0 0 0
0:00:00.00 580628 N 0 0 0
0:00:00.00 580855 N 0 0 0
0:00:00.00 581132 N 0 0 0
0:00:00.00 581405 N 0 0 0
0:00:00.00 581680 N 0 0 0
0:00:00.00 581958 N 0 0 0
0:00:00.00 582246 N 0 0 0
0:00:00.00 582532 N 0 0 0
0:00:00.00 582734 N 0 0 0
0:00:00.00 583083 N 0 0 0
0:00:00.00 583258 N 0 0 0
0:00:00.00 583666 N 0 0 0
0:00:00.00 583880 N 0 0 0
0:00:00.00 583898 N 0 0 0
0:00:00.00 584303 N 0 0 0
0:00:00.00 584584 N 0 0 0
0:00:00.00 584768 N 0 0 0
0:00:00.00 585106 N 0 0 0
0:00:00.00 585323 N 0 0 0
0:00:00.00 585678 N 0 0 0
0:00:00.00 585969 N 0 0 0
0:00:00.00 586253 N 0 0 0
0:00:00.00 586526 N 0 0 0
0:00:00.00 586767 N 0 0 0
0:00:00.00 586961 N 0 0 0
0:00:00.00 587348 N 0 0 0
0:00:00.00 587514 N 0 0 0
0:00:00.00 587530 N 0 0 0
0:00:00.00 587837 N 0 0 0
0:00:00.00 588035 N 0 0 0
0:00:00.00 588051 N 0 0 0
0:00:00.00 588385 N 0 0 0
0:00:00.00 588605 N 0 0 0
0:00:00.00 588916 N 0 0 0
0:00:00.00 589184 N 0 0 0
0:00:00.00 589411 N 0 0 0
0:00:00.00 589660 N 0 0 0
0:00:00.00 589902 N 0 0 0
0:00:00.00 590186 N 0 0 0
0:00:00.00 590457 N 0 0 0
0:00:00.00 590722 N 0 0 0
0:00:00.00 590947 N 0 0 0
0:00:00.00 591297 N 0 0 0
0:00:00.00 591497 N 0 0 0
0:00:00.00 591857 N 0 0 0
0:00:00.00 592037 N 0 0 0
0:00:00.00 592397 N 0 0 0
0:00:00.00 592598 N 0 0 0
0:00:00.00 593005 N 0 0 0
0:00:00.00 593290 N 0 0 0
0:00:00.00 593543 N 0 0 0
0:00:00.00 593763 N 0 0 0
0:00:00.00 594014 N 0 0 0
0:00:00.00 594247 N 0 0 0
0:00:00.00 594511 N 0 0 0
0:00:00.00 594799 N 0 0 0
0:00:00.00 595040 N 0 0 0
0:00:00.00 595325 N 0 0 0
0:00:00.00 595554 N 0 0 0
0:00:00.00 595796 N 0 0 0
0:00:00.00 596062 N 0 0 0
0:00:00.00 596307 N 0 0 0
0:00:00.00 596532 N 0 0 0
0:00:00.00 596882 N 0 0 0
0:00:00.00 597095 N 0 0 0
0:00:00.00 597480 N 0 0 0
0:00:00.00 597677 N 0 0 0
0:00:00.00 598040 N 0 0 0
0:00:00.00 598254 N 0 0 0
0:00:00.00 598559 N 0 0 0
0:00:00.00 598865 N 0 0 0
0:00:00.00 599193 N 0 0 0
0:00:00.00 599492 N 0 0 0
0:00:00.00 599716 N 0 0 0
0:00:00.00 599992 N 0 0 0
0:00:00.00 600192 N 0 0 0
0:00:00.00 600453 N 0 0 0
0:00:00.00 600653 N 0 0 0
0:00:00.00 601064 N 0 0 0
0:00:00.00 601265 N 0 0 0
0:00:00.00 601667 N 0 0 0
0:00:00.00 601955 N 0 0 0
0:00:00.00 602239 N 0 0 0
0:00:00.00 602451 N 0 0 0
0:00:00.00 602727 N 0 0 0
0:00:00.00 602929 N 0 0 0
0:00:00.00 603346 N 0 0 0
0:00:00.00 603542 N 0 0 0
0:00:00.00 603562 N 0 0 0
0:00:00.00 603939 N 0 0 0
0:00:00.00 604225 N 0 0 0
0:00:00.00 604401 N 0 0 0
0:00:00.00 604578 N 0 0 0
0:00:00.00 604960 N 0 0 0
0:00:00.00 605184 N 0 0 0
0:00:00.00 605561 N 0 0 0
0:00:00.00 605874 N 0 0 0
0:00:00.00 606139 N 0 0 0
0:00:00.00 606363 N 0 0 0
0:00:00.00 606655 N 0 0 0
0:00:00.00 606858 N 0 0 0
0:00:00.00 607289 N 0 0 0
0:00:00.00 607483 N 0 0 0
0:00:00.00 607874 N 0 0 0
0:00:00.00 608177 N 0 0 0
0:00:00.00 608472 N 0 0 0
0:00:00.00 608732 N 0 0 0
0:00:00.00 608969 N 0 0 0
0:00:00.00 609169 N 0 0 0
0:00:00.00 609510 N 0 0 0
0:00:00.00 609706 N 0 0 0
0:00:00.00 610116 N 0 0 0
0:00:00.00 610320 N 0 0 0
0:00:00.00 610335 N 0 0 0
0:00:00.00 610685 N 0 0 0
0:00:00.00 610943 N 0 0 0
0:00:00.00 611223 N 0 0 0
0:00:00.00 611508 N 0 0 0
0:00:00.00 611799 N 0 0 0
0:00:00.00 612079 N 0 0 0
0:00:00.00 612364 N 0 0 0
0:00:00.00 612636 N 0 0 0
0:00:00.00 612904 N 0 0 0
0:00:00.00 613161 N 0 0 0
0:00:00.00 613403 N 0 0 0
0:00:00.00 613651 N 0 0 0
0:00:00.00 613890 N 0 0 0
0:00:00.00 614116 N 0 0 0
0:00:00.00 614422 N 0 0 0
0:00:00.00 614649 N 0 0 0
0:00:00.00 615032 N 0 0 0
0:00:00.00 615212 N 0 0 0
0:00:00.00 615226 N 0 0 0
0:00:00.00 615545 N 0 0 0
0:00:00.00 615799 N 0 0 0
0:00:00.00 616039 N 0 0 0
0:00:00.00 616352 N 0 0 0
0:00:00.00 616632 N 0 0 0
0:00:00.00 616818 N 0 0 0
0:00:00.00 617128 N 0 0 0
0:00:00.00 617359 N 0 0 0
0:00:00.00 617647 N 0 0 0
0:00:00.00 617906 N 0 0 0
0:00:00.00 618632 N 0 0 0
0:00:00.00 618848 N 0 0 0
0:00:00.00 619183 N 0 0 0
0:00:00.00 619439 N 0 0 0
0:00:00.00 619674 N 0 0 0
0:00:00.00 619886 N 0 0 0
0:00:00.00 620139 N 0 0 0
0:00:00.00 620423 N 0 0 0
0:00:00.00 620694 N 0 0 0
0:00:00.00 620981 N 0 0 0
0:00:00.00 621197 N 0 0 0
0:00:00.00 621474 N 0 0 0
0:00:00.00 621730 N 0 0 0
0:00:00.00 621993 N 0 0 0
0:00:00.00 622259 N 0 0 0
0:00:00.00 622523 N 0 0 0
0:00:00.00 622749 N 0 0 0
0:00:00.00 623103 N 0 0 0
0:00:00.00 623313 N 0 0 0
0:00:00.00 623708 N 0 0 0
0:00:00.00 623899 N 0 0 0
0:00:00.00 623916 N 0 0 0
0:00:00.00 624236 N 0 0 0
0:00:00.00 624502 N 0 0 0
0:00:00.00 624777 N 0 0 0
0:00:00.00 625018 N 0 0 0
0:00:00.00 625361 N 0 0 0
0:00:00.00 625577 N 0 0 0
0:00:00.00 625940 N 0 0 0
0:00:00.00 626110 N 0 0 0
0:00:00.00 626474 N 0 0 0
0:00:00.00 626682 N 0 0 0
0:00:00.00 626701 N 0 0 0
0:00:00.00 627067 N 0 0 0
0:00:00.00 627353 N 0 0 0
0:00:00.00 627627 N 0 0 0
0:00:00.00 627858 N 0 0 0
0:00:00.00 628159 N 0 0 0
0:00:00.00 628369 N 0 0 0
0:00:00.00 628678 N 0 0 0
0:00:00.00 628878 N 0 0 0
0:00:00.00 629171 N 0 0 0
0:00:00.00 629377 N 0 0 0
0:00:00.00 629776 N 0 0 0
0:00:00.00 629975 N 0 0 0
0:00:00.00 629991 N 0 0 0
0:00:00.00 630288 N 0 0 0
0:00:00.00 630468 N 0 0 0
0:00:00.00 630484 N 0 0 0
0:00:00.00 630762 N 0 0 0
0:00:00.00 630944 N 0 0 0
0:00:00.00 631270 N 0 0 0
0:00:00.00 631559 N 0 0 0
0:00:00.00 631804 N 0 0 0
0:00:00.00 632070 N 0 0 0
0:00:00.00 632306 N 0 0 0
0:00:00.00 632556 N 0 0 0
0:00:00.00 632816 N 0 0 0
0:00:00.00 633052 N 0 0 0
0:00:00.00 633314 N 0 0 0
0:00:00.00 633586 N 0 0 0
0:00:00.00 633871 N 0 0 0
0:00:00.00 634141 N 0 0 0
0:00:00.00 634371 N 0 0 0
0:00:00.00 634734 N 0 0 0
0:00:00.00 634922 N 0 0 0
0:00:00.00 635279 N 0 0 0
0:00:00.00 635585 N 0 0 0
0:00:00.00 635908 N 0 0 0
0:00:00.00 636212 N 0 0 0
0:00:00.00 636480 N 0 0 0
0:00:00.00 636704 N 0 0 0
0:00:00.00 636995 N 0 0 0
0:00:00.00 637190 N 0 0 0
0:00:00.00 637551 N 0 0 0
0:00:00.00 637750 N 0 0 0
0:00:00.00 637769 N 0 0 0
0:00:00.00 638125 N 0 0 0
0:00:00.00 638344 N 0 0 0
0:00:00.00 638678 N 0 0 0
0:00:00.00 638953 N 0 0 0
0:00:00.00 639202 N 0 0 0
0:00:00.00 639435 N 0 0 0
0:00:00.00 639680 N 0 0 0
0:00:00.00 639922 N 0 0 0
0:00:00.00 640216 N 0 0 0
0:00:00.00 640459 N 0 0 0
0:00:00.00 640807 N 0 0 0
0:00:00.00 640994 N 0 0 0
0:00:00.00 641291 N 0 0 0
0:00:00.00 641473 N 0 0 0
0:00:00.00 641837 N 0 0 0
0:00:00.00 642075 N 0 0 0
0:00:00.00 642421 N 0 0 0
0:00:00.00 642690 N 0 0 0
0:00:00.00 642946 N 0 0 0
0:00:00.00 643199 N 0 0 0
0:00:00.00 643457 N 0 0 0
0:00:00.00 643712 N 0 0 0
0:00:00.00 643960 N 0 0 0
0:00:00.00 644209 N 0 0 0
0:00:00.00 644466 N 0 0 0
0:00:00.00 644745 N 0 0 0
0:00:00.00 645028 N 0 0 0
0:00:00.00 645278 N 0 0 0
0:00:00.00 645522 N 0 0 0
0:00:00.00 645743 N 0 0 0
0:00:00.00 645988 N 0 0 0
0:00:00.00 646205 N 0 0 0
0:00:00.00 646510 N 0 0 0
0:00:00.00 646801 N 0 0 0
0:00:00.00 647075 N 0 0 0
0:00:00.00 647297 N 0 0 0
0:00:00.00 647545 N 0 0 0
0:00:00.00 647724 N 0 0 0
0:00:00.00 647742 N 0 0 0
0:00:00.00 648090 N 0 0 0
0:00:00.00 648357 N 0 0 0
0:00:00.00 648629 N 0 0 0
0:00:00.00 648900 N 0 0 0
0:00:00.00 649162 N 0 0 0
0:00:00.00 649408 N 0 0 0
0:00:00.00 649665 N 0 0 0
0:00:00.00 649927 N 0 0 0
