0:00:00.00 31 N 0 0 0
0:00:00.00 124 N 0 0 0
0:00:00.00 416 N 0 0 0
0:00:00.00 689 N 0 0 0
0:00:00.00 907 N 0 0 0
0:00:00.00 1192 N 0 0 0
0:00:00.00 1426 N 0 0 0
0:00:00.00 1624 N 0 0 0
0:00:00.00 1967 N 0 0 0
0:00:00.00 2237 N 0 0 0
0:00:00.00 2498 N 0 0 0
0:00:00.00 2722 N 0 0 0
0:00:00.00 2957 N 0 0 0
0:00:00.00 3199 N 0 0 0
0:00:00.00 3472 N 0 0 0
0:00:00.00 3802 N 0 0 0
0:00:00.00 4113 N 0 0 0
0:00:00.00 4356 N 0 0 0
0:00:00.00 4594 N 0 0 0
0:00:00.00 4847 N 0 0 0
0:00:00.00 4991 N 0 0 0
0:00:00.00 5224 N 0 0 0
0:00:00.00 5481 N 0 0 0
0:00:00.00 5690 N 0 0 0
0:00:00.00 5922 N 0 0 0
0:00:00.00 6106 N 0 0 0
0:00:00.00 6394 N 0 0 0
0:00:00.00 6638 N 0 0 0
0:00:00.00 6838 N 0 0 0
0:00:00.00 7072 N 0 0 0
0:00:00.00 7326 N 0 0 0
0:00:00.00 7616 N 0 0 0
0:00:00.00 7823 N 0 0 0
0:00:00.00 8073 N 0 0 0
0:00:00.00 8305 N 0 0 0
0:00:00.00 8518 N 0 0 0
0:00:00.00 8669 N 0 0 0
0:00:00.00 8924 N 0 0 0
0:00:00.00 9119 N 0 0 0
0:00:00.00 9353 N 0 0 0
0:00:00.00 9644 N 0 0 0
0:00:00.00 10010 N 0 0 0
0:00:00.00 10271 N 0 0 0
0:00:00.00 10525 N 0 0 0
0:00:00.00 10773 N 0 0 0
0:00:00.00 11047 N 0 0 0
0:00:00.00 11300 N 0 0 0
0:00:00.00 11475 N 0 0 0
0:00:00.00 11803 N 0 0 0
0:00:00.00 12010 N 0 0 0
0:00:00.00 12254 N 0 0 0
0:00:00.00 12456 N 0 0 0
0:00:00.00 12694 N 0 0 0
0:00:00.00 12931 N 0 0 0
0:00:00.00 13225 N 0 0 0
0:00:00.00 13552 N 0 0 0
0:00:00.00 13802 N 0 0 0
0:00:00.00 14022 N 0 0 0
0:00:00.00 14351 N 0 0 0
0:00:00.00 14618 N 0 0 0
0:00:00.00 14868 N 0 0 0
0:00:00.00 15016 N 0 0 0
0:00:00.00 15242 N 0 0 0
0:00:00.00 15473 N 0 0 0
0:00:00.00 15692 N 0 0 0
0:00:00.00 15898 N 0 0 0
0:00:00.00 16153 N 0 0 0
0:00:00.00 16411 N 0 0 0
0:00:00.00 16573 N 0 0 0
0:00:00.00 16814 N 0 0 0
0:00:00.00 17044 N 0 0 0
0:00:00.00 17275 N 0 0 0
0:00:00.00 17428 N 0 0 0
0:00:00.00 17777 N 0 0 0
0:00:00.00 17960 N 0 0 0
0:00:00.00 18265 N 0 0 0
0:00:00.00 18432 N 0 0 0
0:00:00.00 18682 N 0 0 0
0:00:00.00 18925 N 0 0 0
0:00:00.00 19076 N 0 0 0
0:00:00.00 19303 N 0 0 0
0:00:00.00 19595 N 0 0 0
0:00:00.00 19827 N 0 0 0
0:00:00.00 20052 N 0 0 0
0:00:00.00 20273 N 0 0 0
0:00:00.00 20585 N 0 0 0
0:00:00.00 20909 N 0 0 0
0:00:00.00 21170 N 0 0 0
0:00:00.00 21409 N 0 0 0
0:00:00.00 21564 N 0 0 0
0:00:00.00 21746 N 0 0 0
0:00:00.00 21965 N 0 0 0
0:00:00.00 22298 N 0 0 0
0:00:00.00 22599 N 0 0 0
0:00:00.00 22757 N 0 0 0
0:00:00.00 22916 N 0 0 0
0:00:00.00 23155 N 0 0 0
0:00:00.00 23504 N 0 0 0
0:00:00.00 23661 N 0 0 0
0:00:00.00 23875 N 0 0 0
0:00:00.00 24192 N 0 0 0
0:00:00.00 24397 N 0 0 0
0:00:00.00 24644 N 0 0 0
0:00:00.00 24874 N 0 0 0
0:00:00.00 25121 N 0 0 0
0:00:00.00 25362 N 0 0 0
0:00:00.00 25627 N 0 0 0
0:00:00.00 25859 N 0 0 0
0:00:00.00 26141 N 0 0 0
0:00:00.00 26363 N 0 0 0
0:00:00.00 26611 N 0 0 0
0:00:00.00 26806 N 0 0 0
0:00:00.00 27045 N 0 0 0
0:00:00.00 27257 N 0 0 0
0:00:00.00 27446 N 0 0 0
0:00:00.00 27601 N 0 0 0
0:00:00.00 27882 N 0 0 0
0:00:00.00 28130 N 0 0 0
0:00:00.00 28379 N 0 0 0
0:00:00.00 28620 N 0 0 0
0:00:00.00 28917 N 0 0 0
0:00:00.00 29156 N 0 0 0
0:00:00.00 29446 N 0 0 0
0:00:00.00 29714 N 0 0 0
0:00:00.00 29939 N 0 0 0
0:00:00.00 30173 N 0 0 0
0:00:00.00 30316 N 0 0 0
0:00:00.00 30580 N 0 0 0
0:00:00.00 30782 N 0 0 0
0:00:00.00 31023 N 0 0 0
0:00:00.00 31306 N 0 0 0
0:00:00.00 31723 N 0 0 0
0:00:00.00 32033 N 0 0 0
0:00:00.00 32260 N 0 0 0
0:00:00.00 32431 N 0 0 0
0:00:00.00 32629 N 0 0 0
0:00:00.00 32864 N 0 0 0
0:00:00.00 33179 N 0 0 0
0:00:00.00 33365 N 0 0 0
0:00:00.00 33651 N 0 0 0
0:00:00.00 33898 N 0 0 0
0:00:00.00 34205 N 0 0 0
0:00:00.00 34355 N 0 0 0
0:00:00.00 34627 N 0 0 0
0:00:00.00 34871 N 0 0 0
0:00:00.00 35023 N 0 0 0
0:00:00.00 35224 N 0 0 0
0:00:00.00 35379 N 0 0 0
0:00:00.00 35624 N 0 0 0
0:00:00.00 35924 N 0 0 0
0:00:00.00 36257 N 0 0 0
0:00:00.00 36491 N 0 0 0
0:00:00.00 36684 N 0 0 0
0:00:00.00 37037 N 0 0 0
0:00:00.00 37202 N 0 0 0
0:00:00.00 37341 N 0 0 0
0:00:00.00 37588 N 0 0 0
0:00:00.00 37827 N 0 0 0
0:00:00.00 38075 N 0 0 0
0:00:00.00 38320 N 0 0 0
0:00:00.00 38587 N 0 0 0
0:00:00.00 38866 N 0 0 0
0:00:00.00 39163 N 0 0 0
0:00:00.00 39452 N 0 0 0
0:00:00.00 39785 N 0 0 0
0:00:00.00 40082 N 0 0 0
0:00:00.00 40309 N 0 0 0
0:00:00.00 40610 N 0 0 0
0:00:00.00 40813 N 0 0 0
0:00:00.00 41042 N 0 0 0
0:00:00.00 41261 N 0 0 0
0:00:00.00 41524 N 0 0 0
0:00:00.00 41699 N 0 0 0
0:00:00.00 41927 N 0 0 0
0:00:00.00 42170 N 0 0 0
0:00:00.00 42417 N 0 0 0
0:00:00.00 42566 N 0 0 0
0:00:00.00 42701 N 0 0 0
0:00:00.00 43024 N 0 0 0
0:00:00.00 43243 N 0 0 0
0:00:00.00 43475 N 0 0 0
0:00:00.00 43619 N 0 0 0
0:00:00.00 43936 N 0 0 0
0:00:00.00 44336 N 0 0 0
0:00:00.00 44653 N 0 0 0
0:00:00.00 44923 N 0 0 0
0:00:00.00 45203 N 0 0 0
0:00:00.00 45409 N 0 0 0
0:00:00.00 45596 N 0 0 0
0:00:00.00 45772 N 0 0 0
0:00:00.00 45988 N 0 0 0
0:00:00.00 46199 N 0 0 0
0:00:00.00 46462 N 0 0 0
0:00:00.00 46755 N 0 0 0
0:00:00.00 47005 N 0 0 0
0:00:00.00 47286 N 0 0 0
0:00:00.00 47502 N 0 0 0
0:00:00.00 47752 N 0 0 0
0:00:00.00 47956 N 0 0 0
0:00:00.00 48199 N 0 0 0
0:00:00.00 48418 N 0 0 0
0:00:00.00 48668 N 0 0 0
0:00:00.00 48920 N 0 0 0
0:00:00.00 49138 N 0 0 0
0:00:00.00 49378 N 0 0 0
0:00:00.00 49563 N 0 0 0
0:00:00.00 49705 N 0 0 0
0:00:00.00 50083 N 0 0 0
0:00:00.00 50335 N 0 0 0
0:00:00.00 50643 N 0 0 0
0:00:00.00 50931 N 0 0 0
0:00:00.00 51253 N 0 0 0
0:00:00.00 51503 N 0 0 0
0:00:00.00 51687 N 0 0 0
0:00:00.00 51916 N 0 0 0
0:00:00.00 52142 N 0 0 0
0:00:00.00 52407 N 0 0 0
0:00:00.00 52670 N 0 0 0
0:00:00.00 52913 N 0 0 0
0:00:00.00 53239 N 0 0 0
0:00:00.00 53453 N 0 0 0
0:00:00.00 53624 N 0 0 0
0:00:00.00 53849 N 0 0 0
0:00:00.00 54088 N 0 0 0
0:00:00.00 54410 N 0 0 0
0:00:00.00 54659 N 0 0 0
0:00:00.00 54889 N 0 0 0
0:00:00.00 55112 N 0 0 0
0:00:00.00 55265 N 0 0 0
0:00:00.00 55523 N 0 0 0
0:00:00.00 55683 N 0 0 0
0:00:00.00 56047 N 0 0 0
0:00:00.00 56246 N 0 0 0
0:00:00.00 56448 N 0 0 0
0:00:00.00 56693 N 0 0 0
0:00:00.00 56956 N 0 0 0
0:00:00.00 57164 N 0 0 0
0:00:00.00 57325 N 0 0 0
0:00:00.00 57735 N 0 0 0
0:00:00.00 58037 N 0 0 0
0:00:00.00 58264 N 0 0 0
0:00:00.00 58450 N 0 0 0
0:00:00.00 58581 N 0 0 0
0:00:00.00 58810 N 0 0 0
0:00:00.00 59085 N 0 0 0
0:00:00.00 59335 N 0 0 0
0:00:00.00 59594 N 0 0 0
0:00:00.00 59852 N 0 0 0
0:00:00.00 60080 N 0 0 0
0:00:00.00 60340 N 0 0 0
0:00:00.00 60590 N 0 0 0
0:00:00.00 60898 N 0 0 0
0:00:00.00 61146 N 0 0 0
0:00:00.00 61398 N 0 0 0
0:00:00.00 61630 N 0 0 0
0:00:00.00 61859 N 0 0 0
0:00:00.00 62077 N 0 0 0
0:00:00.00 62316 N 0 0 0
0:00:00.00 62469 N 0 0 0
0:00:00.00 62703 N 0 0 0
0:00:00.00 62923 N 0 0 0
0:00:00.00 63169 N 0 0 0
0:00:00.00 63349 N 0 0 0
0:00:00.00 63619 N 0 0 0
0:00:00.00 63830 N 0 0 0
0:00:00.00 64087 N 0 0 0
0:00:00.00 64309 N 0 0 0
0:00:00.00 64525 N 0 0 0
0:00:00.00 64692 N 0 0 0
0:00:00.00 64930 N 0 0 0
0:00:00.00 65122 N 0 0 0
0:00:00.00 65336 N 0 0 0
0:00:00.00 65635 N 0 0 0
0:00:00.00 65952 N 0 0 0
0:00:00.00 66200 N 0 0 0
0:00:00.00 66636 N 0 0 0
0:00:00.00 66811 N 0 0 0
0:00:00.00 67043 N 0 0 0
0:00:00.00 67255 N 0 0 0
0:00:00.00 67525 N 0 0 0
0:00:00.00 67774 N 0 0 0
0:00:00.00 68011 N 0 0 0
0:00:00.00 68301 N 0 0 0
0:00:00.00 68575 N 0 0 0
0:00:00.00 68949 N 0 0 0
0:00:00.00 69179 N 0 0 0
0:00:00.00 69478 N 0 0 0
0:00:00.00 69658 N 0 0 0
0:00:00.00 69890 N 0 0 0
0:00:00.00 70175 N 0 0 0
0:00:00.00 70394 N 0 0 0
0:00:00.00 70540 N 0 0 0
0:00:00.00 70672 N 0 0 0
0:00:00.00 71069 N 0 0 0
0:00:00.00 71280 N 0 0 0
0:00:00.00 71482 N 0 0 0
0:00:00.00 71818 N 0 0 0
0:00:00.00 72052 N 0 0 0
0:00:00.00 72207 N 0 0 0
0:00:00.00 72486 N 0 0 0
0:00:00.00 72729 N 0 0 0
0:00:00.00 72970 N 0 0 0
0:00:00.00 73255 N 0 0 0
0:00:00.00 73528 N 0 0 0
0:00:00.00 73723 N 0 0 0
0:00:00.00 74052 N 0 0 0
0:00:00.00 74482 N 0 0 0
0:00:00.00 74704 N 0 0 0
0:00:00.00 74977 N 0 0 0
0:00:00.00 75206 N 0 0 0
0:00:00.00 75427 N 0 0 0
0:00:00.00 75713 N 0 0 0
0:00:00.00 75944 N 0 0 0
0:00:00.00 76079 N 0 0 0
0:00:00.00 76221 N 0 0 0
0:00:00.00 76439 N 0 0 0
0:00:00.00 76743 N 0 0 0
0:00:00.00 76972 N 0 0 0
0:00:00.00 77328 N 0 0 0
0:00:00.00 77519 N 0 0 0
0:00:00.00 77735 N 0 0 0
0:00:00.00 77951 N 0 0 0
0:00:00.00 78102 N 0 0 0
0:00:00.00 78341 N 0 0 0
0:00:00.00 78496 N 0 0 0
0:00:00.00 78719 N 0 0 0
0:00:00.00 78955 N 0 0 0
0:00:00.00 79187 N 0 0 0
0:00:00.00 79430 N 0 0 0
0:00:00.00 79664 N 0 0 0
0:00:00.00 79882 N 0 0 0
0:00:00.00 80249 N 0 0 0
0:00:00.00 80557 N 0 0 0
0:00:00.00 80842 N 0 0 0
0:00:00.00 81119 N 0 0 0
0:00:00.00 81391 N 0 0 0
0:00:00.00 81680 N 0 0 0
0:00:00.00 81931 N 0 0 0
0:00:00.00 82168 N 0 0 0
0:00:00.00 82418 N 0 0 0
0:00:00.00 82737 N 0 0 0
0:00:00.00 83038 N 0 0 0
0:00:00.00 83311 N 0 0 0
0:00:00.00 83619 N 0 0 0
0:00:00.00 83849 N 0 0 0
0:00:00.00 84157 N 0 0 0
0:00:00.00 84454 N 0 0 0
0:00:00.00 84722 N 0 0 0
0:00:00.00 84928 N 0 0 0
0:00:00.00 85122 N 0 0 0
0:00:00.00 85327 N 0 0 0
0:00:00.00 85581 N 0 0 0
0:00:00.00 85844 N 0 0 0
0:00:00.00 86006 N 0 0 0
0:00:00.00 86222 N 0 0 0
0:00:00.00 86393 N 0 0 0
0:00:00.00 86616 N 0 0 0
0:00:00.00 86868 N 0 0 0
0:00:00.00 87113 N 0 0 0
0:00:00.00 87361 N 0 0 0
0:00:00.00 87547 N 0 0 0
0:00:00.00 87770 N 0 0 0
0:00:00.00 87993 N 0 0 0
0:00:00.00 88207 N 0 0 0
0:00:00.00 88362 N 0 0 0
0:00:00.00 88589 N 0 0 0
0:00:00.00 88727 N 0 0 0
0:00:00.00 89010 N 0 0 0
0:00:00.00 89275 N 0 0 0
0:00:00.00 89500 N 0 0 0
0:00:00.00 89775 N 0 0 0
0:00:00.00 90052 N 0 0 0
0:00:00.00 90340 N 0 0 0
0:00:00.00 90612 N 0 0 0
0:00:00.00 90842 N 0 0 0
0:00:00.00 91049 N 0 0 0
0:00:00.00 91285 N 0 0 0
0:00:00.00 91521 N 0 0 0
0:00:00.00 91757 N 0 0 0
0:00:00.00 92025 N 0 0 0
0:00:00.00 92396 N 0 0 0
0:00:00.00 92594 N 0 0 0
0:00:00.00 92828 N 0 0 0
0:00:00.00 93051 N 0 0 0
0:00:00.00 93242 N 0 0 0
0:00:00.00 93380 N 0 0 0
0:00:00.00 93609 N 0 0 0
0:00:00.00 93962 N 0 0 0
0:00:00.00 94151 N 0 0 0
0:00:00.00 94396 N 0 0 0
0:00:00.00 94648 N 0 0 0
0:00:00.00 94876 N 0 0 0
0:00:00.00 95114 N 0 0 0
0:00:00.00 95251 N 0 0 0
0:00:00.00 95603 N 0 0 0
0:00:00.00 95836 N 0 0 0
0:00:00.00 96167 N 0 0 0
0:00:00.00 96471 N 0 0 0
0:00:00.00 96746 N 0 0 0
0:00:00.00 96907 N 0 0 0
0:00:00.00 97123 N 0 0 0
0:00:00.00 97353 N 0 0 0
0:00:00.00 97569 N 0 0 0
0:00:00.00 97807 N 0 0 0
0:00:00.00 98215 N 0 0 0
0:00:00.00 98521 N 0 0 0
0:00:00.00 98728 N 0 0 0
0:00:00.00 99014 N 0 0 0
0:00:00.00 99342 N 0 0 0
0:00:00.00 99614 N 0 0 0
0:00:00.00 99900 N 0 0 0
0:00:00.00 100147 N 0 0 0
0:00:00.00 100418 N 0 0 0
0:00:00.00 100739 N 0 0 0
0:00:00.00 101070 N 0 0 0
0:00:00.00 101327 N 0 0 0
0:00:00.00 101524 N 0 0 0
0:00:00.00 101756 N 0 0 0
0:00:00.00 102049 N 0 0 0
0:00:00.00 102310 N 0 0 0
0:00:00.00 102526 N 0 0 0
0:00:00.00 102668 N 0 0 0
0:00:00.00 102910 N 0 0 0
0:00:00.00 103192 N 0 0 0
0:00:00.00 103439 N 0 0 0
0:00:00.00 103662 N 0 0 0
0:00:00.00 103882 N 0 0 0
0:00:00.00 104116 N 0 0 0
0:00:00.00 104339 N 0 0 0
0:00:00.00 104600 N 0 0 0
0:00:00.00 104960 N 0 0 0
0:00:00.00 105273 N 0 0 0
0:00:00.00 105489 N 0 0 0
0:00:00.00 105829 N 0 0 0
0:00:00.00 106051 N 0 0 0
0:00:00.00 106186 N 0 0 0
0:00:00.00 106436 N 0 0 0
0:00:00.00 106639 N 0 0 0
0:00:00.00 106951 N 0 0 0
0:00:00.00 107302 N 0 0 0
0:00:00.00 107647 N 0 0 0
0:00:00.00 107977 N 0 0 0
0:00:00.00 108175 N 0 0 0
0:00:00.00 108446 N 0 0 0
0:00:00.00 108688 N 0 0 0
0:00:00.00 108941 N 0 0 0
0:00:00.00 109186 N 0 0 0
0:00:00.00 109463 N 0 0 0
0:00:00.00 109615 N 0 0 0
0:00:00.00 109834 N 0 0 0
0:00:00.00 110142 N 0 0 0
0:00:00.00 110326 N 0 0 0
0:00:00.00 110561 N 0 0 0
0:00:00.00 110783 N 0 0 0
0:00:00.00 111101 N 0 0 0
0:00:00.00 111382 N 0 0 0
0:00:00.00 111634 N 0 0 0
0:00:00.00 111895 N 0 0 0
0:00:00.00 112124 N 0 0 0
0:00:00.00 112446 N 0 0 0
0:00:00.00 112680 N 0 0 0
0:00:00.00 113112 N 0 0 0
0:00:00.00 113371 N 0 0 0
0:00:00.00 113526 N 0 0 0
0:00:00.00 113776 N 0 0 0
0:00:00.00 114079 N 0 0 0
0:00:00.00 114392 N 0 0 0
0:00:00.00 114689 N 0 0 0
0:00:00.00 114903 N 0 0 0
0:00:00.00 115123 N 0 0 0
0:00:00.00 115400 N 0 0 0
0:00:00.00 115582 N 0 0 0
0:00:00.00 115848 N 0 0 0
0:00:00.00 116062 N 0 0 0
0:00:00.00 116294 N 0 0 0
0:00:00.00 116534 N 0 0 0
0:00:00.00 116705 N 0 0 0
0:00:00.00 116892 N 0 0 0
0:00:00.00 117149 N 0 0 0
0:00:00.00 117310 N 0 0 0
0:00:00.00 117479 N 0 0 0
0:00:00.00 117904 N 0 0 0
0:00:00.00 118145 N 0 0 0
0:00:00.00 118303 N 0 0 0
0:00:00.00 118546 N 0 0 0
0:00:00.00 118730 N 0 0 0
0:00:00.00 118975 N 0 0 0
0:00:00.00 119277 N 0 0 0
0:00:00.00 119529 N 0 0 0
0:00:00.00 119876 N 0 0 0
0:00:00.00 120429 N 0 0 0
0:00:00.00 120672 N 0 0 0
0:00:00.00 120920 N 0 0 0
0:00:00.00 121145 N 0 0 0
0:00:00.00 121437 N 0 0 0
0:00:00.00 121696 N 0 0 0
0:00:00.00 121928 N 0 0 0
0:00:00.00 122206 N 0 0 0
0:00:00.00 122429 N 0 0 0
0:00:00.00 122638 N 0 0 0
0:00:00.00 122848 N 0 0 0
0:00:00.00 123244 N 0 0 0
0:00:00.00 123552 N 0 0 0
0:00:00.00 123797 N 0 0 0
0:00:00.00 124040 N 0 0 0
0:00:00.00 124261 N 0 0 0
0:00:00.00 124506 N 0 0 0
0:00:00.00 124740 N 0 0 0
0:00:00.00 124886 N 0 0 0
0:00:00.00 125149 N 0 0 0
0:00:00.00 125419 N 0 0 0
0:00:00.00 125779 N 0 0 0
0:00:00.00 126014 N 0 0 0
0:00:00.00 126212 N 0 0 0
0:00:00.00 126473 N 0 0 0
0:00:00.00 126765 N 0 0 0
0:00:00.00 126968 N 0 0 0
0:00:00.00 127246 N 0 0 0
0:00:00.00 127460 N 0 0 0
0:00:00.00 127674 N 0 0 0
0:00:00.00 127962 N 0 0 0
0:00:00.00 128185 N 0 0 0
0:00:00.00 128408 N 0 0 0
0:00:00.00 128554 N 0 0 0
0:00:00.00 128797 N 0 0 0
0:00:00.00 129064 N 0 0 0
0:00:00.00 129256 N 0 0 0
0:00:00.00 129526 N 0 0 0
0:00:00.00 129758 N 0 0 0
0:00:00.00 130093 N 0 0 0
0:00:00.00 130406 N 0 0 0
0:00:00.00 130581 N 0 0 0
0:00:00.00 130831 N 0 0 0
0:00:00.00 130991 N 0 0 0
0:00:00.00 131220 N 0 0 0
0:00:00.00 131533 N 0 0 0
0:00:00.00 131796 N 0 0 0
0:00:00.00 132007 N 0 0 0
0:00:00.00 132241 N 0 0 0
0:00:00.00 132561 N 0 0 0
0:00:00.00 132817 N 0 0 0
0:00:00.00 133162 N 0 0 0
0:00:00.00 133430 N 0 0 0
0:00:00.00 133792 N 0 0 0
0:00:00.00 134062 N 0 0 0
0:00:00.00 134366 N 0 0 0
0:00:00.00 134608 N 0 0 0
0:00:00.00 134845 N 0 0 0
0:00:00.00 135092 N 0 0 0
0:00:00.00 135356 N 0 0 0
0:00:00.00 135610 N 0 0 0
0:00:00.00 135873 N 0 0 0
0:00:00.00 136093 N 0 0 0
0:00:00.00 137434 N 0 0 0
0:00:00.00 138170 N 0 0 0
0:00:00.00 138704 N 0 0 0
0:00:00.00 139297 N 0 0 0
0:00:00.00 139693 N 0 0 0
0:00:00.00 140258 N 0 0 0
0:00:00.00 140747 N 0 0 0
0:00:00.00 141444 N 0 0 0
0:00:00.00 141964 N 0 0 0
0:00:00.00 142438 N 0 0 0
0:00:00.00 142889 N 0 0 0
0:00:00.00 143129 N 0 0 0
0:00:00.00 143375 N 0 0 0
0:00:00.00 143825 N 0 0 0
0:00:00.00 144326 N 0 0 0
0:00:00.00 144747 N 0 0 0
0:00:00.00 145120 N 0 0 0
0:00:00.00 145579 N 0 0 0
0:00:00.00 146020 N 0 0 0
0:00:00.00 146450 N 0 0 0
0:00:00.00 146866 N 0 0 0
0:00:00.00 147276 N 0 0 0
0:00:00.00 147692 N 0 0 0
0:00:00.00 148135 N 0 0 0
0:00:00.00 148601 N 0 0 0
0:00:00.00 149029 N 0 0 0
0:00:00.00 149472 N 0 0 0
0:00:00.00 149926 N 0 0 0
0:00:00.00 150413 N 0 0 0
0:00:00.00 150898 N 0 0 0
0:00:00.00 151349 N 0 0 0
0:00:00.00 151785 N 0 0 0
0:00:00.00 152231 N 0 0 0
0:00:00.00 152707 N 0 0 0
0:00:00.00 153149 N 0 0 0
0:00:00.00 153574 N 0 0 0
0:00:00.00 153925 N 0 0 0
0:00:00.00 154255 N 0 0 0
0:00:00.00 154435 N 0 0 0
0:00:00.00 154957 N 0 0 0
0:00:00.00 155192 N 0 0 0
0:00:00.00 155637 N 0 0 0
0:00:00.00 156287 N 0 0 0
0:00:00.00 156751 N 0 0 0
0:00:00.00 157167 N 0 0 0
0:00:00.00 157451 N 0 0 0
0:00:00.00 157878 N 0 0 0
0:00:00.00 158090 N 0 0 0
0:00:00.00 158567 N 0 0 0
0:00:00.00 159286 N 0 0 0
0:00:00.00 159953 N 0 0 0
0:00:00.00 160612 N 0 0 0
0:00:00.00 161294 N 0 0 0
0:00:00.00 161719 N 0 0 0
0:00:00.00 162374 N 0 0 0
0:00:00.00 162812 N 0 0 0
0:00:00.00 163296 N 0 0 0
0:00:00.00 163791 N 0 0 0
0:00:00.00 164237 N 0 0 0
0:00:00.00 164704 N 0 0 0
0:00:00.00 165161 N 0 0 0
0:00:00.00 165508 N 0 0 0
0:00:00.00 165881 N 0 0 0
0:00:00.00 166318 N 0 0 0
0:00:00.00 166964 N 0 0 0
0:00:00.00 167429 N 0 0 0
0:00:00.00 167884 N 0 0 0
0:00:00.00 168325 N 0 0 0
0:00:00.00 168521 N 0 0 0
0:00:00.00 168991 N 0 0 0
0:00:00.00 169432 N 0 0 0
0:00:00.00 169792 N 0 0 0
0:00:00.00 170147 N 0 0 0
0:00:00.00 170581 N 0 0 0
0:00:00.00 171040 N 0 0 0
0:00:00.00 171502 N 0 0 0
0:00:00.00 171884 N 0 0 0
0:00:00.00 172084 N 0 0 0
0:00:00.00 172467 N 0 0 0
0:00:00.00 173009 N 0 0 0
0:00:00.00 173191 N 0 0 0
0:00:00.00 173367 N 0 0 0
0:00:00.00 173545 N 0 0 0
0:00:00.00 173702 N 0 0 0
0:00:00.00 173884 N 0 0 0
0:00:00.00 174141 N 0 0 0
0:00:00.00 174562 N 0 0 0
0:00:00.00 174742 N 0 0 0
0:00:00.00 174976 N 0 0 0
0:00:00.00 175171 N 0 0 0
0:00:00.00 175356 N 0 0 0
0:00:00.00 175547 N 0 0 0
0:00:00.00 175768 N 0 0 0
0:00:00.00 176069 N 0 0 0
0:00:00.00 176260 N 0 0 0
0:00:00.00 176526 N 0 0 0
0:00:00.00 176796 N 0 0 0
0:00:00.00 177059 N 0 0 0
0:00:00.00 177217 N 0 0 0
0:00:00.00 177428 N 0 0 0
0:00:00.00 177613 N 0 0 0
0:00:00.00 177871 N 0 0 0
0:00:00.00 178144 N 0 0 0
0:00:00.00 178306 N 0 0 0
0:00:00.00 178506 N 0 0 0
0:00:00.00 178805 N 0 0 0
0:00:00.00 179024 N 0 0 0
0:00:00.00 179177 N 0 0 0
0:00:00.00 179438 N 0 0 0
0:00:00.00 179617 N 0 0 0
0:00:00.00 179870 N 0 0 0
0:00:00.00 180067 N 0 0 0
0:00:00.00 180283 N 0 0 0
0:00:00.00 180455 N 0 0 0
0:00:00.00 180621 N 0 0 0
0:00:00.00 180765 N 0 0 0
0:00:00.00 180965 N 0 0 0
0:00:00.00 181181 N 0 0 0
0:00:00.00 181442 N 0 0 0
0:00:00.00 181933 N 0 0 0
0:00:00.00 182165 N 0 0 0
0:00:00.00 182596 N 0 0 0
0:00:00.00 182936 N 0 0 0
0:00:00.00 183245 N 0 0 0
0:00:00.00 183688 N 0 0 0
0:00:00.00 183892 N 0 0 0
0:00:00.00 184034 N 0 0 0
0:00:00.00 184280 N 0 0 0
0:00:00.00 184435 N 0 0 0
0:00:00.00 184601 N 0 0 0
0:00:00.00 184759 N 0 0 0
0:00:00.00 185332 N 0 0 0
0:00:00.00 186043 N 0 0 0
0:00:00.00 186379 N 0 0 0
0:00:00.00 187106 N 0 0 0
0:00:00.00 187326 N 0 0 0
0:00:00.00 187988 N 0 0 0
0:00:00.00 188185 N 0 0 0
0:00:00.00 188579 N 0 0 0
0:00:00.00 189067 N 0 0 0
0:00:00.00 189392 N 0 0 0
0:00:00.00 189599 N 0 0 0
0:00:00.00 190006 N 0 0 0
0:00:00.00 190670 N 0 0 0
0:00:00.00 191371 N 0 0 0
0:00:00.00 192069 N 0 0 0
0:00:00.00 192717 N 0 0 0
0:00:00.00 193405 N 0 0 0
0:00:00.00 194094 N 0 0 0
0:00:00.00 194744 N 0 0 0
0:00:00.00 195424 N 0 0 0
0:00:00.00 196141 N 0 0 0
0:00:00.00 196790 N 0 0 0
0:00:00.00 197212 N 0 0 0
0:00:00.00 197546 N 0 0 0
0:00:00.00 197818 N 0 0 0
0:00:00.00 198356 N 0 0 0
0:00:00.00 199037 N 0 0 0
0:00:00.00 199460 N 0 0 0
0:00:00.00 199764 N 0 0 0
0:00:00.00 200333 N 0 0 0
0:00:00.00 200759 N 0 0 0
0:00:00.00 201062 N 0 0 0
0:00:00.00 201586 N 0 0 0
0:00:00.00 202009 N 0 0 0
0:00:00.00 202372 N 0 0 0
0:00:00.00 202855 N 0 0 0
0:00:00.00 203265 N 0 0 0
0:00:00.00 203611 N 0 0 0
0:00:00.00 204089 N 0 0 0
0:00:00.00 204543 N 0 0 0
0:00:00.00 204887 N 0 0 0
0:00:00.00 205371 N 0 0 0
0:00:00.00 205778 N 0 0 0
0:00:00.00 206138 N 0 0 0
0:00:00.00 206644 N 0 0 0
0:00:00.00 207090 N 0 0 0
0:00:00.00 207432 N 0 0 0
0:00:00.00 207896 N 0 0 0
0:00:00.00 208319 N 0 0 0
0:00:00.00 209045 N 0 0 0
0:00:00.00 209466 N 0 0 0
0:00:00.00 209795 N 0 0 0
0:00:00.00 210148 N 0 0 0
0:00:00.00 210586 N 0 0 0
0:00:00.00 210929 N 0 0 0
0:00:00.00 211226 N 0 0 0
0:00:00.00 211768 N 0 0 0
0:00:00.00 212200 N 0 0 0
0:00:00.00 212657 N 0 0 0
0:00:00.00 212990 N 0 0 0
0:00:00.00 213278 N 0 0 0
0:00:00.00 213806 N 0 0 0
0:00:00.00 214232 N 0 0 0
0:00:00.00 214664 N 0 0 0
0:00:00.00 214994 N 0 0 0
0:00:00.00 215296 N 0 0 0
0:00:00.00 215824 N 0 0 0
0:00:00.00 216243 N 0 0 0
0:00:00.00 216671 N 0 0 0
0:00:00.00 217012 N 0 0 0
0:00:00.00 217312 N 0 0 0
0:00:00.00 217872 N 0 0 0
0:00:00.00 218326 N 0 0 0
0:00:00.00 218752 N 0 0 0
0:00:00.00 219078 N 0 0 0
0:00:00.00 219663 N 0 0 0
0:00:00.00 220099 N 0 0 0
0:00:00.00 220403 N 0 0 0
0:00:00.00 220927 N 0 0 0
0:00:00.00 221341 N 0 0 0
0:00:00.00 221711 N 0 0 0
0:00:00.00 222190 N 0 0 0
0:00:00.00 222608 N 0 0 0
0:00:00.00 222928 N 0 0 0
0:00:00.00 223456 N 0 0 0
0:00:00.00 223916 N 0 0 0
0:00:00.00 224368 N 0 0 0
0:00:00.00 224806 N 0 0 0
0:00:00.00 225254 N 0 0 0
0:00:00.00 225706 N 0 0 0
0:00:00.00 226172 N 0 0 0
0:00:00.00 226622 N 0 0 0
0:00:00.00 227030 N 0 0 0
0:00:00.00 227450 N 0 0 0
0:00:00.00 227898 N 0 0 0
0:00:00.00 228332 N 0 0 0
0:00:00.00 228658 N 0 0 0
0:00:00.00 229169 N 0 0 0
0:00:00.00 229820 N 0 0 0
0:00:00.00 230265 N 0 0 0
0:00:00.00 230711 N 0 0 0
0:00:00.00 231046 N 0 0 0
0:00:00.00 231547 N 0 0 0
0:00:00.00 231989 N 0 0 0
0:00:00.00 232308 N 0 0 0
0:00:00.00 232861 N 0 0 0
0:00:00.00 233287 N 0 0 0
0:00:00.00 233618 N 0 0 0
0:00:00.00 234101 N 0 0 0
0:00:00.00 234551 N 0 0 0
0:00:00.00 234914 N 0 0 0
0:00:00.00 235393 N 0 0 0
0:00:00.00 235807 N 0 0 0
0:00:00.00 236149 N 0 0 0
0:00:00.00 236401 N 0 0 0
0:00:00.00 236948 N 0 0 0
0:00:00.00 237391 N 0 0 0
0:00:00.00 237802 N 0 0 0
0:00:00.00 238136 N 0 0 0
0:00:00.00 238660 N 0 0 0
0:00:00.00 239117 N 0 0 0
0:00:00.00 239452 N 0 0 0
0:00:00.00 239953 N 0 0 0
0:00:00.00 240352 N 0 0 0
0:00:00.00 240716 N 0 0 0
0:00:00.00 241193 N 0 0 0
0:00:00.00 241639 N 0 0 0
0:00:00.00 241963 N 0 0 0
0:00:00.00 242449 N 0 0 0
0:00:00.00 242876 N 0 0 0
0:00:00.00 243247 N 0 0 0
0:00:00.00 243733 N 0 0 0
0:00:00.00 244161 N 0 0 0
0:00:00.00 244483 N 0 0 0
0:00:00.00 244993 N 0 0 0
0:00:00.00 245437 N 0 0 0
0:00:00.00 245803 N 0 0 0
0:00:00.00 246260 N 0 0 0
0:00:00.00 246668 N 0 0 0
0:00:00.00 247007 N 0 0 0
0:00:00.00 247498 N 0 0 0
0:00:00.00 247939 N 0 0 0
0:00:00.00 248279 N 0 0 0
0:00:00.00 248720 N 0 0 0
0:00:00.00 249133 N 0 0 0
0:00:00.00 249473 N 0 0 0
0:00:00.00 249953 N 0 0 0
0:00:00.00 250391 N 0 0 0
0:00:00.00 250700 N 0 0 0
0:00:00.00 251217 N 0 0 0
0:00:00.00 251649 N 0 0 0
0:00:00.00 251989 N 0 0 0
0:00:00.00 252517 N 0 0 0
0:00:00.00 252929 N 0 0 0
0:00:00.00 253246 N 0 0 0
0:00:00.00 253760 N 0 0 0
0:00:00.00 254178 N 0 0 0
0:00:00.00 254551 N 0 0 0
0:00:00.00 255020 N 0 0 0
0:00:00.00 255447 N 0 0 0
0:00:00.00 255764 N 0 0 0
0:00:00.00 256336 N 0 0 0
0:00:00.00 256768 N 0 0 0
0:00:00.00 257083 N 0 0 0
0:00:00.00 257585 N 0 0 0
0:00:00.00 258017 N 0 0 0
0:00:00.00 258358 N 0 0 0
0:00:00.00 258840 N 0 0 0
0:00:00.00 259261 N 0 0 0
0:00:00.00 259569 N 0 0 0
0:00:00.00 260035 N 0 0 0
0:00:00.00 260482 N 0 0 0
0:00:00.00 260811 N 0 0 0
0:00:00.00 261290 N 0 0 0
0:00:00.00 261713 N 0 0 0
0:00:00.00 262019 N 0 0 0
0:00:00.00 262535 N 0 0 0
0:00:00.00 262982 N 0 0 0
0:00:00.00 263299 N 0 0 0
0:00:00.00 263806 N 0 0 0
0:00:00.00 264215 N 0 0 0
0:00:00.00 264546 N 0 0 0
0:00:00.00 265072 N 0 0 0
0:00:00.00 265496 N 0 0 0
0:00:00.00 265810 N 0 0 0
0:00:00.00 266270 N 0 0 0
0:00:00.00 266924 N 0 0 0
0:00:00.00 267361 N 0 0 0
0:00:00.00 267700 N 0 0 0
0:00:00.00 268144 N 0 0 0
0:00:00.00 268801 N 0 0 0
0:00:00.00 269237 N 0 0 0
0:00:00.00 269671 N 0 0 0
0:00:00.00 270000 N 0 0 0
0:00:00.00 270497 N 0 0 0
0:00:00.00 270925 N 0 0 0
0:00:00.00 271246 N 0 0 0
0:00:00.00 271760 N 0 0 0
0:00:00.00 272390 N 0 0 0
0:00:00.00 272795 N 0 0 0
0:00:00.00 273220 N 0 0 0
0:00:00.00 273568 N 0 0 0
0:00:00.00 274050 N 0 0 0
0:00:00.00 274691 N 0 0 0
0:00:00.00 275108 N 0 0 0
0:00:00.00 275567 N 0 0 0
0:00:00.00 275890 N 0 0 0
0:00:00.00 276442 N 0 0 0
0:00:00.00 276872 N 0 0 0
0:00:00.00 277546 N 0 0 0
0:00:00.00 277997 N 0 0 0
0:00:00.00 278438 N 0 0 0
0:00:00.00 278734 N 0 0 0
0:00:00.00 279250 N 0 0 0
0:00:00.00 279693 N 0 0 0
0:00:00.00 280384 N 0 0 0
0:00:00.00 280814 N 0 0 0
0:00:00.00 281236 N 0 0 0
0:00:00.00 281502 N 0 0 0
0:00:00.00 281929 N 0 0 0
0:00:00.00 282393 N 0 0 0
0:00:00.00 282694 N 0 0 0
0:00:00.00 282881 N 0 0 0
0:00:00.00 283246 N 0 0 0
0:00:00.00 283684 N 0 0 0
0:00:00.00 284380 N 0 0 0
0:00:00.00 284821 N 0 0 0
0:00:00.00 285251 N 0 0 0
0:00:00.00 285556 N 0 0 0
0:00:00.00 286101 N 0 0 0
0:00:00.00 286560 N 0 0 0
0:00:00.00 286999 N 0 0 0
0:00:00.00 287289 N 0 0 0
0:00:00.00 287836 N 0 0 0
0:00:00.00 288259 N 0 0 0
0:00:00.00 288691 N 0 0 0
0:00:00.00 289058 N 0 0 0
0:00:00.00 289541 N 0 0 0
0:00:00.00 289953 N 0 0 0
0:00:00.00 290385 N 0 0 0
0:00:00.00 290752 N 0 0 0
0:00:00.00 291017 N 0 0 0
0:00:00.00 291532 N 0 0 0
0:00:00.00 291955 N 0 0 0
0:00:00.00 292378 N 0 0 0
0:00:00.00 292716 N 0 0 0
0:00:00.00 293242 N 0 0 0
0:00:00.00 293663 N 0 0 0
0:00:00.00 293985 N 0 0 0
0:00:00.00 294471 N 0 0 0
0:00:00.00 294905 N 0 0 0
0:00:00.00 295240 N 0 0 0
0:00:00.00 295731 N 0 0 0
0:00:00.00 296158 N 0 0 0
0:00:00.00 296456 N 0 0 0
0:00:00.00 296962 N 0 0 0
0:00:00.00 297412 N 0 0 0
0:00:00.00 297736 N 0 0 0
0:00:00.00 298238 N 0 0 0
0:00:00.00 298658 N 0 0 0
0:00:00.00 298978 N 0 0 0
0:00:00.00 299529 N 0 0 0
0:00:00.00 299974 N 0 0 0
0:00:00.00 300292 N 0 0 0
0:00:00.00 300784 N 0 0 0
0:00:00.00 301208 N 0 0 0
0:00:00.00 301561 N 0 0 0
0:00:00.00 302044 N 0 0 0
0:00:00.00 302449 N 0 0 0
0:00:00.00 302783 N 0 0 0
0:00:00.00 303233 N 0 0 0
0:00:00.00 303673 N 0 0 0
0:00:00.00 304024 N 0 0 0
0:00:00.00 304486 N 0 0 0
0:00:00.00 304889 N 0 0 0
0:00:00.00 305228 N 0 0 0
0:00:00.00 305744 N 0 0 0
0:00:00.00 306169 N 0 0 0
0:00:00.00 306518 N 0 0 0
0:00:00.00 306995 N 0 0 0
0:00:00.00 307408 N 0 0 0
0:00:00.00 307739 N 0 0 0
0:00:00.00 308259 N 0 0 0
0:00:00.00 308677 N 0 0 0
0:00:00.00 309002 N 0 0 0
0:00:00.00 309456 N 0 0 0
0:00:00.00 309893 N 0 0 0
0:00:00.00 310230 N 0 0 0
0:00:00.00 310718 N 0 0 0
0:00:00.00 311132 N 0 0 0
0:00:00.00 311450 N 0 0 0
0:00:00.00 311915 N 0 0 0
0:00:00.00 312361 N 0 0 0
0:00:00.00 312703 N 0 0 0
0:00:00.00 313191 N 0 0 0
0:00:00.00 313614 N 0 0 0
0:00:00.00 313925 N 0 0 0
0:00:00.00 314420 N 0 0 0
0:00:00.00 314852 N 0 0 0
0:00:00.00 315187 N 0 0 0
0:00:00.00 315632 N 0 0 0
0:00:00.00 316049 N 0 0 0
0:00:00.00 316364 N 0 0 0
0:00:00.00 316877 N 0 0 0
0:00:00.00 317302 N 0 0 0
0:00:00.00 317608 N 0 0 0
0:00:00.00 318118 N 0 0 0
0:00:00.00 318548 N 0 0 0
0:00:00.00 318874 N 0 0 0
0:00:00.00 319419 N 0 0 0
0:00:00.00 319822 N 0 0 0
0:00:00.00 320121 N 0 0 0
0:00:00.00 320627 N 0 0 0
0:00:00.00 321062 N 0 0 0
0:00:00.00 321388 N 0 0 0
0:00:00.00 321878 N 0 0 0
0:00:00.00 322288 N 0 0 0
0:00:00.00 322601 N 0 0 0
0:00:00.00 323111 N 0 0 0
0:00:00.00 323554 N 0 0 0
0:00:00.00 323869 N 0 0 0
0:00:00.00 324360 N 0 0 0
0:00:00.00 324783 N 0 0 0
0:00:00.00 325109 N 0 0 0
0:00:00.00 325611 N 0 0 0
0:00:00.00 326050 N 0 0 0
0:00:00.00 326331 N 0 0 0
0:00:00.00 326813 N 0 0 0
0:00:00.00 327238 N 0 0 0
0:00:00.00 327586 N 0 0 0
0:00:00.00 328048 N 0 0 0
0:00:00.00 328473 N 0 0 0
0:00:00.00 328734 N 0 0 0
0:00:00.00 329270 N 0 0 0
0:00:00.00 329720 N 0 0 0
0:00:00.00 330156 N 0 0 0
0:00:00.00 330444 N 0 0 0
0:00:00.00 330968 N 0 0 0
0:00:00.00 331402 N 0 0 0
0:00:00.00 331844 N 0 0 0
0:00:00.00 332158 N 0 0 0
0:00:00.00 332696 N 0 0 0
0:00:00.00 333101 N 0 0 0
0:00:00.00 333499 N 0 0 0
0:00:00.00 333833 N 0 0 0
0:00:00.00 334359 N 0 0 0
0:00:00.00 334769 N 0 0 0
0:00:00.00 335158 N 0 0 0
0:00:00.00 335489 N 0 0 0
0:00:00.00 335990 N 0 0 0
0:00:00.00 336433 N 0 0 0
0:00:00.00 336850 N 0 0 0
0:00:00.00 337158 N 0 0 0
0:00:00.00 337669 N 0 0 0
0:00:00.00 338123 N 0 0 0
0:00:00.00 338578 N 0 0 0
0:00:00.00 338861 N 0 0 0
0:00:00.00 339052 N 0 0 0
0:00:00.00 339410 N 0 0 0
0:00:00.00 339838 N 0 0 0
0:00:00.00 340281 N 0 0 0
0:00:00.00 340589 N 0 0 0
0:00:00.00 341149 N 0 0 0
0:00:00.00 341552 N 0 0 0
0:00:00.00 341957 N 0 0 0
0:00:00.00 342288 N 0 0 0
0:00:00.00 342808 N 0 0 0
0:00:00.00 343228 N 0 0 0
0:00:00.00 343647 N 0 0 0
0:00:00.00 343960 N 0 0 0
0:00:00.00 344468 N 0 0 0
0:00:00.00 344912 N 0 0 0
0:00:00.00 345348 N 0 0 0
0:00:00.00 345647 N 0 0 0
0:00:00.00 346156 N 0 0 0
0:00:00.00 346594 N 0 0 0
0:00:00.00 347022 N 0 0 0
0:00:00.00 347355 N 0 0 0
0:00:00.00 347852 N 0 0 0
0:00:00.00 348268 N 0 0 0
0:00:00.00 348682 N 0 0 0
0:00:00.00 349038 N 0 0 0
0:00:00.00 349564 N 0 0 0
0:00:00.00 349994 N 0 0 0
0:00:00.00 350393 N 0 0 0
0:00:00.00 350743 N 0 0 0
0:00:00.00 351243 N 0 0 0
0:00:00.00 351686 N 0 0 0
0:00:00.00 352026 N 0 0 0
0:00:00.00 352465 N 0 0 0
0:00:00.00 353131 N 0 0 0
0:00:00.00 353576 N 0 0 0
0:00:00.00 353914 N 0 0 0
0:00:00.00 354411 N 0 0 0
0:00:00.00 354836 N 0 0 0
0:00:00.00 355136 N 0 0 0
0:00:00.00 355666 N 0 0 0
0:00:00.00 356074 N 0 0 0
0:00:00.00 356440 N 0 0 0
0:00:00.00 356841 N 0 0 0
0:00:00.00 357275 N 0 0 0
0:00:00.00 357620 N 0 0 0
0:00:00.00 358106 N 0 0 0
0:00:00.00 358747 N 0 0 0
0:00:00.00 359140 N 0 0 0
0:00:00.00 359498 N 0 0 0
0:00:00.00 359962 N 0 0 0
0:00:00.00 360400 N 0 0 0
0:00:00.00 360709 N 0 0 0
0:00:00.00 361177 N 0 0 0
0:00:00.00 361609 N 0 0 0
0:00:00.00 361985 N 0 0 0
0:00:00.00 362162 N 0 0 0
0:00:00.00 362659 N 0 0 0
0:00:00.00 363049 N 0 0 0
0:00:00.00 363812 N 0 0 0
0:00:00.00 364221 N 0 0 0
0:00:00.00 364622 N 0 0 0
0:00:00.00 364993 N 0 0 0
0:00:00.00 365369 N 0 0 0
0:00:00.00 365762 N 0 0 0
0:00:00.00 366181 N 0 0 0
0:00:00.00 366548 N 0 0 0
0:00:00.00 367006 N 0 0 0
0:00:00.00 367396 N 0 0 0
0:00:00.00 367760 N 0 0 0
0:00:00.00 368224 N 0 0 0
0:00:00.00 368651 N 0 0 0
0:00:00.00 369038 N 0 0 0
0:00:00.00 369473 N 0 0 0
0:00:00.00 369880 N 0 0 0
0:00:00.00 370271 N 0 0 0
0:00:00.00 370728 N 0 0 0
0:00:00.00 371158 N 0 0 0
0:00:00.00 371525 N 0 0 0
0:00:00.00 371947 N 0 0 0
0:00:00.00 372359 N 0 0 0
0:00:00.00 372755 N 0 0 0
0:00:00.00 373187 N 0 0 0
0:00:00.00 373621 N 0 0 0
0:00:00.00 373959 N 0 0 0
0:00:00.00 374179 N 0 0 0
0:00:00.00 374665 N 0 0 0
0:00:00.00 375113 N 0 0 0
0:00:00.00 375543 N 0 0 0
0:00:00.00 375883 N 0 0 0
0:00:00.00 376333 N 0 0 0
0:00:00.00 376769 N 0 0 0
0:00:00.00 377096 N 0 0 0
0:00:00.00 377591 N 0 0 0
0:00:00.00 378023 N 0 0 0
0:00:00.00 378342 N 0 0 0
0:00:00.00 378797 N 0 0 0
0:00:00.00 379260 N 0 0 0
0:00:00.00 379597 N 0 0 0
0:00:00.00 380083 N 0 0 0
0:00:00.00 380491 N 0 0 0
0:00:00.00 380833 N 0 0 0
0:00:00.00 381281 N 0 0 0
0:00:00.00 381717 N 0 0 0
0:00:00.00 382093 N 0 0 0
0:00:00.00 382493 N 0 0 0
0:00:00.00 382905 N 0 0 0
0:00:00.00 383252 N 0 0 0
0:00:00.00 383747 N 0 0 0
0:00:00.00 384169 N 0 0 0
0:00:00.00 384525 N 0 0 0
0:00:00.00 384961 N 0 0 0
0:00:00.00 385391 N 0 0 0
0:00:00.00 385744 N 0 0 0
0:00:00.00 386249 N 0 0 0
0:00:00.00 386660 N 0 0 0
0:00:00.00 387000 N 0 0 0
0:00:00.00 387230 N 0 0 0
0:00:00.00 387731 N 0 0 0
0:00:00.00 388179 N 0 0 0
0:00:00.00 388602 N 0 0 0
0:00:00.00 388953 N 0 0 0
0:00:00.00 389410 N 0 0 0
0:00:00.00 389857 N 0 0 0
0:00:00.00 390215 N 0 0 0
0:00:00.00 390681 N 0 0 0
0:00:00.00 391068 N 0 0 0
0:00:00.00 391430 N 0 0 0
0:00:00.00 391846 N 0 0 0
0:00:00.00 392546 N 0 0 0
0:00:00.00 392962 N 0 0 0
0:00:00.00 393296 N 0 0 0
0:00:00.00 393764 N 0 0 0
0:00:00.00 394214 N 0 0 0
0:00:00.00 394569 N 0 0 0
0:00:00.00 395073 N 0 0 0
0:00:00.00 395487 N 0 0 0
0:00:00.00 395852 N 0 0 0
0:00:00.00 396659 N 0 0 0
0:00:00.00 396830 N 0 0 0
0:00:00.00 397303 N 0 0 0
0:00:00.00 397652 N 0 0 0
0:00:00.00 397822 N 0 0 0
0:00:00.00 398277 N 0 0 0
0:00:00.00 398896 N 0 0 0
0:00:00.00 399343 N 0 0 0
0:00:00.00 399701 N 0 0 0
0:00:00.00 400066 N 0 0 0
0:00:00.00 400410 N 0 0 0
0:00:00.00 400597 N 0 0 0
0:00:00.00 400757 N 0 0 0
0:00:00.00 401108 N 0 0 0
0:00:00.00 401503 N 0 0 0
0:00:00.00 401891 N 0 0 0
0:00:00.00 402358 N 0 0 0
0:00:00.00 403079 N 0 0 0
0:00:00.00 403585 N 0 0 0
0:00:00.00 404035 N 0 0 0
0:00:00.00 404478 N 0 0 0
0:00:00.00 404946 N 0 0 0
0:00:00.00 405439 N 0 0 0
0:00:00.00 406179 N 0 0 0
0:00:00.00 406384 N 0 0 0
0:00:00.00 406912 N 0 0 0
0:00:00.00 407617 N 0 0 0
0:00:00.00 407945 N 0 0 0
0:00:00.00 408289 N 0 0 0
0:00:00.00 408679 N 0 0 0
0:00:00.00 409086 N 0 0 0
0:00:00.00 409556 N 0 0 0
0:00:00.00 410002 N 0 0 0
0:00:00.00 410425 N 0 0 0
0:00:00.00 410834 N 0 0 0
0:00:00.00 411250 N 0 0 0
0:00:00.00 411701 N 0 0 0
0:00:00.00 412132 N 0 0 0
0:00:00.00 412499 N 0 0 0
0:00:00.00 412699 N 0 0 0
0:00:00.00 412855 N 0 0 0
0:00:00.00 413186 N 0 0 0
0:00:00.00 413620 N 0 0 0
0:00:00.00 413998 N 0 0 0
0:00:00.00 414230 N 0 0 0
0:00:00.00 414740 N 0 0 0
0:00:00.00 415147 N 0 0 0
0:00:00.00 415564 N 0 0 0
0:00:00.00 415955 N 0 0 0
0:00:00.00 416446 N 0 0 0
0:00:00.00 416853 N 0 0 0
0:00:00.00 417226 N 0 0 0
0:00:00.00 417434 N 0 0 0
0:00:00.00 417593 N 0 0 0
0:00:00.00 417937 N 0 0 0
0:00:00.00 418369 N 0 0 0
0:00:00.00 418754 N 0 0 0
0:00:00.00 419211 N 0 0 0
0:00:00.00 419873 N 0 0 0
0:00:00.00 420309 N 0 0 0
0:00:00.00 420682 N 0 0 0
0:00:00.00 421141 N 0 0 0
0:00:00.00 421549 N 0 0 0
0:00:00.00 421904 N 0 0 0
0:00:00.00 422379 N 0 0 0
0:00:00.00 422825 N 0 0 0
0:00:00.00 423173 N 0 0 0
0:00:00.00 423630 N 0 0 0
0:00:00.00 424035 N 0 0 0
0:00:00.00 424418 N 0 0 0
0:00:00.00 424656 N 0 0 0
0:00:00.00 424807 N 0 0 0
0:00:00.00 425185 N 0 0 0
0:00:00.00 425599 N 0 0 0
0:00:00.00 426006 N 0 0 0
0:00:00.00 426425 N 0 0 0
0:00:00.00 426816 N 0 0 0
0:00:00.00 427322 N 0 0 0
0:00:00.00 427984 N 0 0 0
0:00:00.00 428400 N 0 0 0
0:00:00.00 428764 N 0 0 0
0:00:00.00 429251 N 0 0 0
0:00:00.00 429687 N 0 0 0
0:00:00.00 430326 N 0 0 0
0:00:00.00 430756 N 0 0 0
0:00:00.00 431127 N 0 0 0
0:00:00.00 431615 N 0 0 0
0:00:00.00 432036 N 0 0 0
0:00:00.00 432365 N 0 0 0
0:00:00.00 432860 N 0 0 0
0:00:00.00 433298 N 0 0 0
0:00:00.00 433741 N 0 0 0
0:00:00.00 434383 N 0 0 0
0:00:00.00 434794 N 0 0 0
0:00:00.00 435154 N 0 0 0
0:00:00.00 435650 N 0 0 0
0:00:00.00 436079 N 0 0 0
0:00:00.00 436486 N 0 0 0
0:00:00.00 436831 N 0 0 0
0:00:00.00 437306 N 0 0 0
0:00:00.00 438035 N 0 0 0
0:00:00.00 438440 N 0 0 0
0:00:00.00 438867 N 0 0 0
0:00:00.00 439200 N 0 0 0
0:00:00.00 439459 N 0 0 0
0:00:00.00 439627 N 0 0 0
0:00:00.00 440006 N 0 0 0
0:00:00.00 440417 N 0 0 0
0:00:00.00 440854 N 0 0 0
0:00:00.00 441261 N 0 0 0
0:00:00.00 441644 N 0 0 0
0:00:00.00 442127 N 0 0 0
0:00:00.00 442775 N 0 0 0
0:00:00.00 443192 N 0 0 0
0:00:00.00 443547 N 0 0 0
0:00:00.00 444038 N 0 0 0
0:00:00.00 444469 N 0 0 0
0:00:00.00 444843 N 0 0 0
0:00:00.00 445052 N 0 0 0
0:00:00.00 445529 N 0 0 0
0:00:00.00 445972 N 0 0 0
0:00:00.00 446413 N 0 0 0
0:00:00.00 446778 N 0 0 0
0:00:00.00 447010 N 0 0 0
0:00:00.00 447511 N 0 0 0
0:00:00.00 447925 N 0 0 0
0:00:00.00 448367 N 0 0 0
0:00:00.00 448733 N 0 0 0
0:00:00.00 449224 N 0 0 0
0:00:00.00 449627 N 0 0 0
0:00:00.00 449986 N 0 0 0
0:00:00.00 450488 N 0 0 0
0:00:00.00 450927 N 0 0 0
0:00:00.00 451607 N 0 0 0
0:00:00.00 452003 N 0 0 0
0:00:00.00 452709 N 0 0 0
0:00:00.00 453154 N 0 0 0
0:00:00.00 453470 N 0 0 0
0:00:00.00 453985 N 0 0 0
0:00:00.00 454415 N 0 0 0
0:00:00.00 454846 N 0 0 0
0:00:00.00 455558 N 0 0 0
0:00:00.00 455969 N 0 0 0
0:00:00.00 456273 N 0 0 0
0:00:00.00 456804 N 0 0 0
0:00:00.00 457249 N 0 0 0
0:00:00.00 457666 N 0 0 0
0:00:00.00 458008 N 0 0 0
0:00:00.00 458473 N 0 0 0
0:00:00.00 459142 N 0 0 0
0:00:00.00 459589 N 0 0 0
0:00:00.00 459999 N 0 0 0
0:00:00.00 460336 N 0 0 0
0:00:00.00 460784 N 0 0 0
0:00:00.00 461236 N 0 0 0
0:00:00.00 461558 N 0 0 0
0:00:00.00 462071 N 0 0 0
0:00:00.00 462722 N 0 0 0
0:00:00.00 463133 N 0 0 0
0:00:00.00 463581 N 0 0 0
0:00:00.00 463945 N 0 0 0
0:00:00.00 464407 N 0 0 0
0:00:00.00 465068 N 0 0 0
0:00:00.00 465500 N 0 0 0
0:00:00.00 465935 N 0 0 0
0:00:00.00 466294 N 0 0 0
0:00:00.00 466745 N 0 0 0
0:00:00.00 467154 N 0 0 0
0:00:00.00 467478 N 0 0 0
0:00:00.00 467987 N 0 0 0
0:00:00.00 468407 N 0 0 0
0:00:00.00 468742 N 0 0 0
0:00:00.00 469204 N 0 0 0
0:00:00.00 469602 N 0 0 0
0:00:00.00 469975 N 0 0 0
0:00:00.00 470430 N 0 0 0
0:00:00.00 470855 N 0 0 0
0:00:00.00 471159 N 0 0 0
0:00:00.00 471663 N 0 0 0
0:00:00.00 472095 N 0 0 0
0:00:00.00 472473 N 0 0 0
0:00:00.00 472952 N 0 0 0
0:00:00.00 473368 N 0 0 0
0:00:00.00 473706 N 0 0 0
0:00:00.00 474197 N 0 0 0
0:00:00.00 474628 N 0 0 0
0:00:00.00 475004 N 0 0 0
0:00:00.00 475441 N 0 0 0
0:00:00.00 475870 N 0 0 0
0:00:00.00 476228 N 0 0 0
0:00:00.00 476717 N 0 0 0
0:00:00.00 477137 N 0 0 0
0:00:00.00 477497 N 0 0 0
0:00:00.00 477925 N 0 0 0
0:00:00.00 478357 N 0 0 0
0:00:00.00 478732 N 0 0 0
0:00:00.00 479169 N 0 0 0
0:00:00.00 479597 N 0 0 0
0:00:00.00 479923 N 0 0 0
0:00:00.00 480404 N 0 0 0
0:00:00.00 480829 N 0 0 0
0:00:00.00 481221 N 0 0 0
0:00:00.00 481691 N 0 0 0
0:00:00.00 482105 N 0 0 0
0:00:00.00 482458 N 0 0 0
0:00:00.00 482980 N 0 0 0
0:00:00.00 483404 N 0 0 0
0:00:00.00 483772 N 0 0 0
0:00:00.00 484200 N 0 0 0
0:00:00.00 484621 N 0 0 0
0:00:00.00 484976 N 0 0 0
0:00:00.00 485491 N 0 0 0
0:00:00.00 485888 N 0 0 0
0:00:00.00 486239 N 0 0 0
0:00:00.00 486691 N 0 0 0
0:00:00.00 487120 N 0 0 0
0:00:00.00 487496 N 0 0 0
0:00:00.00 487967 N 0 0 0
0:00:00.00 488367 N 0 0 0
0:00:00.00 488711 N 0 0 0
0:00:00.00 489204 N 0 0 0
0:00:00.00 489658 N 0 0 0
0:00:00.00 490001 N 0 0 0
0:00:00.00 490462 N 0 0 0
0:00:00.00 490880 N 0 0 0
0:00:00.00 491227 N 0 0 0
0:00:00.00 491708 N 0 0 0
0:00:00.00 492127 N 0 0 0
0:00:00.00 492496 N 0 0 0
0:00:00.00 492923 N 0 0 0
0:00:00.00 493375 N 0 0 0
0:00:00.00 493859 N 0 0 0
0:00:00.00 494287 N 0 0 0
0:00:00.00 494708 N 0 0 0
0:00:00.00 495133 N 0 0 0
0:00:00.00 495558 N 0 0 0
0:00:00.00 496019 N 0 0 0
0:00:00.00 496454 N 0 0 0
0:00:00.00 496861 N 0 0 0
0:00:00.00 497266 N 0 0 0
0:00:00.00 497711 N 0 0 0
0:00:00.00 498143 N 0 0 0
0:00:00.00 498586 N 0 0 0
0:00:00.00 499001 N 0 0 0
0:00:00.00 499412 N 0 0 0
0:00:00.00 499829 N 0 0 0
0:00:00.00 500285 N 0 0 0
0:00:00.00 500726 N 0 0 0
0:00:00.00 501151 N 0 0 0
0:00:00.00 501574 N 0 0 0
0:00:00.00 502007 N 0 0 0
0:00:00.00 502452 N 0 0 0
0:00:00.00 502889 N 0 0 0
0:00:00.00 503305 N 0 0 0
0:00:00.00 503710 N 0 0 0
0:00:00.00 504146 N 0 0 0
0:00:00.00 504596 N 0 0 0
0:00:00.00 505022 N 0 0 0
0:00:00.00 505435 N 0 0 0
0:00:00.00 505843 N 0 0 0
0:00:00.00 506257 N 0 0 0
0:00:00.00 506698 N 0 0 0
0:00:00.00 507146 N 0 0 0
0:00:00.00 507557 N 0 0 0
0:00:00.00 507946 N 0 0 0
0:00:00.00 508379 N 0 0 0
0:00:00.00 508793 N 0 0 0
0:00:00.00 509233 N 0 0 0
0:00:00.00 509654 N 0 0 0
0:00:00.00 510064 N 0 0 0
0:00:00.00 510455 N 0 0 0
0:00:00.00 510916 N 0 0 0
0:00:00.00 511358 N 0 0 0
0:00:00.00 511769 N 0 0 0
0:00:00.00 512174 N 0 0 0
0:00:00.00 512584 N 0 0 0
0:00:00.00 513002 N 0 0 0
0:00:00.00 513436 N 0 0 0
0:00:00.00 513846 N 0 0 0
0:00:00.00 514240 N 0 0 0
0:00:00.00 514631 N 0 0 0
0:00:00.00 515063 N 0 0 0
0:00:00.00 515502 N 0 0 0
0:00:00.00 515916 N 0 0 0
0:00:00.00 516326 N 0 0 0
0:00:00.00 516742 N 0 0 0
0:00:00.00 517169 N 0 0 0
0:00:00.00 517613 N 0 0 0
0:00:00.00 518051 N 0 0 0
0:00:00.00 518449 N 0 0 0
0:00:00.00 518855 N 0 0 0
0:00:00.00 519271 N 0 0 0
0:00:00.00 519718 N 0 0 0
0:00:00.00 520108 N 0 0 0
0:00:00.00 520537 N 0 0 0
0:00:00.00 520918 N 0 0 0
0:00:00.00 521336 N 0 0 0
0:00:00.00 521770 N 0 0 0
0:00:00.00 522227 N 0 0 0
0:00:00.00 522427 N 0 0 0
0:00:00.00 522567 N 0 0 0
0:00:00.00 522931 N 0 0 0
0:00:00.00 523357 N 0 0 0
0:00:00.00 524045 N 0 0 0
0:00:00.00 524468 N 0 0 0
0:00:00.00 525132 N 0 0 0
0:00:00.00 525535 N 0 0 0
0:00:00.00 525992 N 0 0 0
0:00:00.00 526410 N 0 0 0
0:00:00.00 526590 N 0 0 0
0:00:00.00 527105 N 0 0 0
0:00:00.00 527809 N 0 0 0
0:00:00.00 528554 N 0 0 0
0:00:00.00 528748 N 0 0 0
0:00:00.00 529261 N 0 0 0
0:00:00.00 529958 N 0 0 0
0:00:00.00 530698 N 0 0 0
0:00:00.00 530881 N 0 0 0
0:00:00.00 531416 N 0 0 0
0:00:00.00 532107 N 0 0 0
0:00:00.00 532858 N 0 0 0
0:00:00.00 533558 N 0 0 0
0:00:00.00 533752 N 0 0 0
0:00:00.00 534245 N 0 0 0
0:00:00.00 534445 N 0 0 0
0:00:00.00 534982 N 0 0 0
0:00:00.00 535178 N 0 0 0
0:00:00.00 535318 N 0 0 0
0:00:00.00 535693 N 0 0 0
0:00:00.00 536377 N 0 0 0
0:00:00.00 537138 N 0 0 0
0:00:00.00 537322 N 0 0 0
0:00:00.00 537844 N 0 0 0
0:00:00.00 538043 N 0 0 0
0:00:00.00 538540 N 0 0 0
0:00:00.00 539284 N 0 0 0
0:00:00.00 540002 N 0 0 0
0:00:00.00 540184 N 0 0 0
0:00:00.00 540695 N 0 0 0
0:00:00.00 541447 N 0 0 0
0:00:00.00 541631 N 0 0 0
0:00:00.00 541868 N 0 0 0
0:00:00.00 542232 N 0 0 0
0:00:00.00 542398 N 0 0 0
0:00:00.00 542923 N 0 0 0
0:00:00.00 543163 N 0 0 0
0:00:00.00 543695 N 0 0 0
0:00:00.00 544405 N 0 0 0
0:00:00.00 544597 N 0 0 0
0:00:00.00 545135 N 0 0 0
0:00:00.00 545326 N 0 0 0
0:00:00.00 545891 N 0 0 0
0:00:00.00 546602 N 0 0 0
0:00:00.00 547297 N 0 0 0
0:00:00.00 547495 N 0 0 0
0:00:00.00 547628 N 0 0 0
0:00:00.00 548035 N 0 0 0
0:00:00.00 548744 N 0 0 0
0:00:00.00 549056 N 0 0 0
0:00:00.00 549479 N 0 0 0
0:00:00.00 549697 N 0 0 0
0:00:00.00 550265 N 0 0 0
0:00:00.00 550975 N 0 0 0
0:00:00.00 551151 N 0 0 0
0:00:00.00 551702 N 0 0 0
0:00:00.00 552445 N 0 0 0
0:00:00.00 552627 N 0 0 0
0:00:00.00 553147 N 0 0 0
0:00:00.00 553559 N 0 0 0
0:00:00.00 553997 N 0 0 0
0:00:00.00 554359 N 0 0 0
0:00:00.00 554616 N 0 0 0
0:00:00.00 555140 N 0 0 0
0:00:00.00 555845 N 0 0 0
0:00:00.00 556054 N 0 0 0
0:00:00.00 556580 N 0 0 0
0:00:00.00 557280 N 0 0 0
0:00:00.00 557462 N 0 0 0
0:00:00.00 557602 N 0 0 0
0:00:00.00 557944 N 0 0 0
0:00:00.00 558272 N 0 0 0
0:00:00.00 558646 N 0 0 0
0:00:00.00 558833 N 0 0 0
0:00:00.00 558972 N 0 0 0
0:00:00.00 559325 N 0 0 0
0:00:00.00 559501 N 0 0 0
0:00:00.00 559629 N 0 0 0
0:00:00.00 559991 N 0 0 0
0:00:00.00 560176 N 0 0 0
0:00:00.00 560713 N 0 0 0
0:00:00.00 561436 N 0 0 0
0:00:00.00 561616 N 0 0 0
0:00:00.00 561742 N 0 0 0
0:00:00.00 562131 N 0 0 0
0:00:00.00 562331 N 0 0 0
0:00:00.00 562925 N 0 0 0
0:00:00.00 563380 N 0 0 0
0:00:00.00 564084 N 0 0 0
0:00:00.00 564266 N 0 0 0
0:00:00.00 564808 N 0 0 0
0:00:00.00 565553 N 0 0 0
0:00:00.00 565736 N 0 0 0
0:00:00.00 566248 N 0 0 0
0:00:00.00 566987 N 0 0 0
0:00:00.00 567176 N 0 0 0
0:00:00.00 567711 N 0 0 0
0:00:00.00 568399 N 0 0 0
0:00:00.00 569097 N 0 0 0
0:00:00.00 569293 N 0 0 0
0:00:00.00 569831 N 0 0 0
0:00:00.00 570496 N 0 0 0
0:00:00.00 570685 N 0 0 0
0:00:00.00 570823 N 0 0 0
0:00:00.00 571019 N 0 0 0
0:00:00.00 571586 N 0 0 0
0:00:00.00 571927 N 0 0 0
0:00:00.00 572350 N 0 0 0
0:00:00.00 573053 N 0 0 0
0:00:00.00 573804 N 0 0 0
0:00:00.00 574000 N 0 0 0
0:00:00.00 574490 N 0 0 0
0:00:00.00 574803 N 0 0 0
0:00:00.00 574990 N 0 0 0
0:00:00.00 575138 N 0 0 0
0:00:00.00 575350 N 0 0 0
0:00:00.00 575527 N 0 0 0
0:00:00.00 575703 N 0 0 0
0:00:00.00 575861 N 0 0 0
0:00:00.00 576049 N 0 0 0
0:00:00.00 576338 N 0 0 0
0:00:00.00 576544 N 0 0 0
0:00:00.00 576698 N 0 0 0
0:00:00.00 576911 N 0 0 0
0:00:00.00 577080 N 0 0 0
0:00:00.00 577282 N 0 0 0
0:00:00.00 577575 N 0 0 0
0:00:00.00 577870 N 0 0 0
0:00:00.00 578084 N 0 0 0
0:00:00.00 578257 N 0 0 0
0:00:00.00 578457 N 0 0 0
0:00:00.00 578700 N 0 0 0
0:00:00.00 578966 N 0 0 0
0:00:00.00 579148 N 0 0 0
0:00:00.00 579402 N 0 0 0
0:00:00.00 579638 N 0 0 0
0:00:00.00 579962 N 0 0 0
0:00:00.00 580158 N 0 0 0
0:00:00.00 580369 N 0 0 0
0:00:00.00 580547 N 0 0 0
0:00:00.00 580714 N 0 0 0
0:00:00.00 580946 N 0 0 0
0:00:00.00 581161 N 0 0 0
0:00:00.00 581362 N 0 0 0
0:00:00.00 581522 N 0 0 0
0:00:00.00 581661 N 0 0 0
0:00:00.00 581814 N 0 0 0
0:00:00.00 581967 N 0 0 0
0:00:00.00 582100 N 0 0 0
0:00:00.00 582253 N 0 0 0
0:00:00.00 582532 N 0 0 0
0:00:00.00 582716 N 0 0 0
0:00:00.00 583124 N 0 0 0
0:00:00.00 583366 N 0 0 0
0:00:00.00 583556 N 0 0 0
0:00:00.00 583738 N 0 0 0
0:00:00.00 583916 N 0 0 0
0:00:00.00 584228 N 0 0 0
0:00:00.00 584460 N 0 0 0
0:00:00.00 584721 N 0 0 0
0:00:00.00 584973 N 0 0 0
0:00:00.00 585212 N 0 0 0
0:00:00.00 585517 N 0 0 0
0:00:00.00 585698 N 0 0 0
0:00:00.00 585871 N 0 0 0
0:00:00.00 586298 N 0 0 0
0:00:00.00 586579 N 0 0 0
0:00:00.00 586841 N 0 0 0
0:00:00.00 587077 N 0 0 0
0:00:00.00 587360 N 0 0 0
0:00:00.00 587520 N 0 0 0
0:00:00.00 587655 N 0 0 0
0:00:00.00 587830 N 0 0 0
0:00:00.00 588038 N 0 0 0
0:00:00.00 588298 N 0 0 0
0:00:00.00 588537 N 0 0 0
0:00:00.00 588800 N 0 0 0
0:00:00.00 589010 N 0 0 0
0:00:00.00 589284 N 0 0 0
0:00:00.00 589480 N 0 0 0
0:00:00.00 589815 N 0 0 0
0:00:00.00 590004 N 0 0 0
0:00:00.00 590254 N 0 0 0
0:00:00.00 590524 N 0 0 0
0:00:00.00 590776 N 0 0 0
0:00:00.00 590999 N 0 0 0
0:00:00.00 591262 N 0 0 0
0:00:00.00 591426 N 0 0 0
0:00:00.00 591626 N 0 0 0
0:00:00.00 591923 N 0 0 0
0:00:00.00 592144 N 0 0 0
0:00:00.00 592367 N 0 0 0
0:00:00.00 592657 N 0 0 0
0:00:00.00 592924 N 0 0 0
0:00:00.00 593240 N 0 0 0
0:00:00.00 593401 N 0 0 0
0:00:00.00 593685 N 0 0 0
0:00:00.00 593950 N 0 0 0
0:00:00.00 594164 N 0 0 0
0:00:00.00 594425 N 0 0 0
0:00:00.00 594587 N 0 0 0
0:00:00.00 594848 N 0 0 0
0:00:00.00 595094 N 0 0 0
0:00:00.00 595354 N 0 0 0
0:00:00.00 595566 N 0 0 0
0:00:00.00 595856 N 0 0 0
0:00:00.00 596036 N 0 0 0
0:00:00.00 596351 N 0 0 0
0:00:00.00 596565 N 0 0 0
0:00:00.00 596853 N 0 0 0
0:00:00.00 597071 N 0 0 0
0:00:00.00 597328 N 0 0 0
0:00:00.00 597584 N 0 0 0
0:00:00.00 597823 N 0 0 0
0:00:00.00 598021 N 0 0 0
0:00:00.00 598241 N 0 0 0
0:00:00.00 598459 N 0 0 0
0:00:00.00 598759 N 0 0 0
0:00:00.00 599026 N 0 0 0
0:00:00.00 599285 N 0 0 0
0:00:00.00 599447 N 0 0 0
0:00:00.00 599668 N 0 0 0
0:00:00.00 599828 N 0 0 0
0:00:00.00 600118 N 0 0 0
0:00:00.00 600374 N 0 0 0
0:00:00.00 600566 N 0 0 0
0:00:00.00 600874 N 0 0 0
0:00:00.00 601130 N 0 0 0
0:00:00.00 601425 N 0 0 0
0:00:00.00 601713 N 0 0 0
0:00:00.00 601925 N 0 0 0
0:00:00.00 602183 N 0 0 0
0:00:00.00 602372 N 0 0 0
0:00:00.00 602591 N 0 0 0
0:00:00.00 602768 N 0 0 0
0:00:00.00 602919 N 0 0 0
0:00:00.00 603140 N 0 0 0
0:00:00.00 603407 N 0 0 0
0:00:00.00 603670 N 0 0 0
0:00:00.00 603914 N 0 0 0
0:00:00.00 604100 N 0 0 0
0:00:00.00 604363 N 0 0 0
0:00:00.00 604534 N 0 0 0
0:00:00.00 604766 N 0 0 0
0:00:00.00 604998 N 0 0 0
0:00:00.00 605237 N 0 0 0
0:00:00.00 605480 N 0 0 0
0:00:00.00 605716 N 0 0 0
0:00:00.00 605977 N 0 0 0
0:00:00.00 606199 N 0 0 0
0:00:00.00 606431 N 0 0 0
0:00:00.00 606636 N 0 0 0
0:00:00.00 606872 N 0 0 0
0:00:00.00 607199 N 0 0 0
0:00:00.00 607419 N 0 0 0
0:00:00.00 607565 N 0 0 0
0:00:00.00 607797 N 0 0 0
0:00:00.00 608072 N 0 0 0
0:00:00.00 608315 N 0 0 0
0:00:00.00 608555 N 0 0 0
0:00:00.00 608866 N 0 0 0
0:00:00.00 609089 N 0 0 0
0:00:00.00 609341 N 0 0 0
0:00:00.00 609565 N 0 0 0
0:00:00.00 609833 N 0 0 0
0:00:00.00 610137 N 0 0 0
0:00:00.00 610405 N 0 0 0
0:00:00.00 610567 N 0 0 0
0:00:00.00 610814 N 0 0 0
0:00:00.00 611035 N 0 0 0
0:00:00.00 611320 N 0 0 0
0:00:00.00 611599 N 0 0 0
0:00:00.00 611834 N 0 0 0
0:00:00.00 612137 N 0 0 0
0:00:00.00 612403 N 0 0 0
0:00:00.00 612720 N 0 0 0
0:00:00.00 612983 N 0 0 0
0:00:00.00 613188 N 0 0 0
0:00:00.00 613391 N 0 0 0
0:00:00.00 613579 N 0 0 0
0:00:00.00 613795 N 0 0 0
0:00:00.00 614111 N 0 0 0
0:00:00.00 614277 N 0 0 0
0:00:00.00 614520 N 0 0 0
0:00:00.00 614736 N 0 0 0
0:00:00.00 614947 N 0 0 0
0:00:00.00 615123 N 0 0 0
0:00:00.00 615262 N 0 0 0
0:00:00.00 615521 N 0 0 0
0:00:00.00 615800 N 0 0 0
0:00:00.00 615980 N 0 0 0
0:00:00.00 616226 N 0 0 0
0:00:00.00 616471 N 0 0 0
0:00:00.00 616729 N 0 0 0
0:00:00.00 616968 N 0 0 0
0:00:00.00 617139 N 0 0 0
0:00:00.00 617447 N 0 0 0
0:00:00.00 617665 N 0 0 0
0:00:00.00 617953 N 0 0 0
0:00:00.00 618147 N 0 0 0
0:00:00.00 618305 N 0 0 0
0:00:00.00 618577 N 0 0 0
0:00:00.00 618818 N 0 0 0
0:00:00.00 619018 N 0 0 0
0:00:00.00 619223 N 0 0 0
0:00:00.00 619445 N 0 0 0
0:00:00.00 619682 N 0 0 0
0:00:00.00 619862 N 0 0 0
0:00:00.00 620055 N 0 0 0
0:00:00.00 620228 N 0 0 0
0:00:00.00 620465 N 0 0 0
0:00:00.00 620743 N 0 0 0
0:00:00.00 620977 N 0 0 0
0:00:00.00 621243 N 0 0 0
0:00:00.00 621405 N 0 0 0
0:00:00.00 621628 N 0 0 0
0:00:00.00 621878 N 0 0 0
0:00:00.00 622145 N 0 0 0
0:00:00.00 622409 N 0 0 0
0:00:00.00 622633 N 0 0 0
0:00:00.00 622850 N 0 0 0
0:00:00.00 623043 N 0 0 0
0:00:00.00 623297 N 0 0 0
0:00:00.00 623464 N 0 0 0
0:00:00.00 623682 N 0 0 0
0:00:00.00 623914 N 0 0 0
0:00:00.00 624150 N 0 0 0
0:00:00.00 624353 N 0 0 0
0:00:00.00 624580 N 0 0 0
0:00:00.00 624830 N 0 0 0
0:00:00.00 625131 N 0 0 0
0:00:00.00 625477 N 0 0 0
0:00:00.00 625721 N 0 0 0
0:00:00.00 625930 N 0 0 0
0:00:00.00 626184 N 0 0 0
0:00:00.00 626425 N 0 0 0
0:00:00.00 626591 N 0 0 0
0:00:00.00 626832 N 0 0 0
0:00:00.00 627026 N 0 0 0
0:00:00.00 627199 N 0 0 0
0:00:00.00 627464 N 0 0 0
0:00:00.00 627712 N 0 0 0
0:00:00.00 627883 N 0 0 0
0:00:00.00 628313 N 0 0 0
0:00:00.00 628533 N 0 0 0
0:00:00.00 628704 N 0 0 0
0:00:00.00 628906 N 0 0 0
0:00:00.00 629132 N 0 0 0
0:00:00.00 629327 N 0 0 0
0:00:00.00 629626 N 0 0 0
0:00:00.00 629798 N 0 0 0
0:00:00.00 630034 N 0 0 0
0:00:00.00 630293 N 0 0 0
0:00:00.00 630463 N 0 0 0
0:00:00.00 630734 N 0 0 0
0:00:00.00 630954 N 0 0 0
0:00:00.00 631222 N 0 0 0
0:00:00.00 631393 N 0 0 0
0:00:00.00 631561 N 0 0 0
0:00:00.00 631816 N 0 0 0
0:00:00.00 632077 N 0 0 0
0:00:00.00 632365 N 0 0 0
0:00:00.00 632619 N 0 0 0
0:00:00.00 632779 N 0 0 0
0:00:00.00 633010 N 0 0 0
0:00:00.00 633289 N 0 0 0
0:00:00.00 633505 N 0 0 0
0:00:00.00 633739 N 0 0 0
0:00:00.00 634019 N 0 0 0
0:00:00.00 634388 N 0 0 0
0:00:00.00 634671 N 0 0 0
0:00:00.00 634925 N 0 0 0
0:00:00.00 635211 N 0 0 0
0:00:00.00 635495 N 0 0 0
0:00:00.00 635670 N 0 0 0
0:00:00.00 635841 N 0 0 0
0:00:00.00 636102 N 0 0 0
0:00:00.00 636352 N 0 0 0
0:00:00.00 636655 N 0 0 0
0:00:00.00 636910 N 0 0 0
0:00:00.00 637283 N 0 0 0
0:00:00.00 637526 N 0 0 0
0:00:00.00 637697 N 0 0 0
0:00:00.00 637879 N 0 0 0
0:00:00.00 638105 N 0 0 0
0:00:00.00 638298 N 0 0 0
0:00:00.00 638536 N 0 0 0
0:00:00.00 638712 N 0 0 0
0:00:00.00 638932 N 0 0 0
0:00:00.00 639140 N 0 0 0
0:00:00.00 639367 N 0 0 0
0:00:00.00 639632 N 0 0 0
0:00:00.00 639846 N 0 0 0
0:00:00.00 639999 N 0 0 0
0:00:00.00 640262 N 0 0 0
0:00:00.00 640525 N 0 0 0
0:00:00.00 640793 N 0 0 0
0:00:00.00 641020 N 0 0 0
0:00:00.00 641209 N 0 0 0
0:00:00.00 641543 N 0 0 0
0:00:00.00 641824 N 0 0 0
0:00:00.00 642040 N 0 0 0
0:00:00.00 642310 N 0 0 0
0:00:00.00 642496 N 0 0 0
0:00:00.00 642737 N 0 0 0
0:00:00.00 642971 N 0 0 0
0:00:00.00 643239 N 0 0 0
0:00:00.00 644596 N 0 0 0
0:00:00.00 645179 N 0 0 0
0:00:00.00 645804 N 0 0 0
0:00:00.00 646052 N 0 0 0
0:00:00.00 646520 N 0 0 0
0:00:00.00 647253 N 0 0 0
0:00:00.00 647968 N 0 0 0
0:00:00.00 648421 N 0 0 0
0:00:00.00 649107 N 0 0 0
0:00:00.00 649802 N 0 0 0
