0:00:00.00 11 N 0 0 0
0:00:00.00 83 N 0 0 0
0:00:00.00 306 N 0 0 0
0:00:00.00 378 N 0 0 0
0:00:00.00 743 N 0 0 0
0:00:00.00 1157 N 0 0 0
0:00:00.00 1579 N 0 0 0
0:00:00.00 1982 N 0 0 0
0:00:00.00 2369 N 0 0 0
0:00:00.00 2758 N 0 0 0
0:00:00.00 3170 N 0 0 0
0:00:00.00 3591 N 0 0 0
0:00:00.00 4009 N 0 0 0
0:00:00.00 4403 N 0 0 0
0:00:00.00 4801 N 0 0 0
0:00:00.00 5202 N 0 0 0
0:00:00.00 5616 N 0 0 0
0:00:00.00 6017 N 0 0 0
0:00:00.00 6408 N 0 0 0
0:00:00.00 6800 N 0 0 0
0:00:00.00 7193 N 0 0 0
0:00:00.00 7609 N 0 0 0
0:00:00.00 8044 N 0 0 0
0:00:00.00 8462 N 0 0 0
0:00:00.00 8858 N 0 0 0
0:00:00.00 9263 N 0 0 0
0:00:00.00 9679 N 0 0 0
0:00:00.00 10112 N 0 0 0
0:00:00.00 10348 N 0 0 0
0:00:00.00 10903 N 0 0 0
0:00:00.00 11291 N 0 0 0
0:00:00.00 11684 N 0 0 0
0:00:00.00 12089 N 0 0 0
0:00:00.00 12499 N 0 0 0
0:00:00.00 12888 N 0 0 0
0:00:00.00 13282 N 0 0 0
0:00:00.00 13676 N 0 0 0
0:00:00.00 14098 N 0 0 0
0:00:00.00 14528 N 0 0 0
0:00:00.00 14953 N 0 0 0
0:00:00.00 15354 N 0 0 0
0:00:00.00 15759 N 0 0 0
0:00:00.00 16177 N 0 0 0
0:00:00.00 16610 N 0 0 0
0:00:00.00 17024 N 0 0 0
0:00:00.00 17410 N 0 0 0
0:00:00.00 17795 N 0 0 0
0:00:00.00 18196 N 0 0 0
0:00:00.00 18616 N 0 0 0
0:00:00.00 19008 N 0 0 0
0:00:00.00 19400 N 0 0 0
0:00:00.00 19791 N 0 0 0
0:00:00.00 20194 N 0 0 0
0:00:00.00 20614 N 0 0 0
0:00:00.00 21037 N 0 0 0
0:00:00.00 21461 N 0 0 0
0:00:00.00 21861 N 0 0 0
0:00:00.00 22259 N 0 0 0
0:00:00.00 22682 N 0 0 0
0:00:00.00 23112 N 0 0 0
0:00:00.00 23531 N 0 0 0
0:00:00.00 23931 N 0 0 0
0:00:00.00 24332 N 0 0 0
0:00:00.00 24759 N 0 0 0
0:00:00.00 25184 N 0 0 0
0:00:00.00 25594 N 0 0 0
0:00:00.00 25985 N 0 0 0
0:00:00.00 26377 N 0 0 0
0:00:00.00 26780 N 0 0 0
0:00:00.00 27202 N 0 0 0
0:00:00.00 27619 N 0 0 0
0:00:00.00 28031 N 0 0 0
0:00:00.00 28426 N 0 0 0
0:00:00.00 28825 N 0 0 0
0:00:00.00 29248 N 0 0 0
0:00:00.00 29678 N 0 0 0
0:00:00.00 30094 N 0 0 0
0:00:00.00 30490 N 0 0 0
0:00:00.00 30888 N 0 0 0
0:00:00.00 31327 N 0 0 0
0:00:00.00 31756 N 0 0 0
0:00:00.00 32152 N 0 0 0
0:00:00.00 32535 N 0 0 0
0:00:00.00 32920 N 0 0 0
0:00:00.00 33311 N 0 0 0
0:00:00.00 33710 N 0 0 0
0:00:00.00 34108 N 0 0 0
0:00:00.00 34504 N 0 0 0
0:00:00.00 34891 N 0 0 0
0:00:00.00 35280 N 0 0 0
0:00:00.00 35694 N 0 0 0
0:00:00.00 36113 N 0 0 0
0:00:00.00 36526 N 0 0 0
0:00:00.00 36911 N 0 0 0
0:00:00.00 37294 N 0 0 0
0:00:00.00 37705 N 0 0 0
0:00:00.00 38119 N 0 0 0
0:00:00.00 38525 N 0 0 0
0:00:00.00 38925 N 0 0 0
0:00:00.00 39319 N 0 0 0
0:00:00.00 39731 N 0 0 0
0:00:00.00 40156 N 0 0 0
0:00:00.00 40574 N 0 0 0
0:00:00.00 40979 N 0 0 0
0:00:00.00 41369 N 0 0 0
0:00:00.00 41760 N 0 0 0
0:00:00.00 42169 N 0 0 0
0:00:00.00 42584 N 0 0 0
0:00:00.00 42997 N 0 0 0
0:00:00.00 43387 N 0 0 0
0:00:00.00 43780 N 0 0 0
0:00:00.00 44190 N 0 0 0
0:00:00.00 44618 N 0 0 0
0:00:00.00 45032 N 0 0 0
0:00:00.00 45427 N 0 0 0
0:00:00.00 45821 N 0 0 0
0:00:00.00 46231 N 0 0 0
0:00:00.00 46661 N 0 0 0
0:00:00.00 47081 N 0 0 0
0:00:00.00 47491 N 0 0 0
0:00:00.00 47893 N 0 0 0
0:00:00.00 48296 N 0 0 0
0:00:00.00 48710 N 0 0 0
0:00:00.00 49136 N 0 0 0
0:00:00.00 49543 N 0 0 0
0:00:00.00 49937 N 0 0 0
0:00:00.00 50330 N 0 0 0
0:00:00.00 50737 N 0 0 0
0:00:00.00 51167 N 0 0 0
0:00:00.00 51579 N 0 0 0
0:00:00.00 51971 N 0 0 0
0:00:00.00 52364 N 0 0 0
0:00:00.00 52774 N 0 0 0
0:00:00.00 53212 N 0 0 0
0:00:00.00 53638 N 0 0 0
0:00:00.00 54045 N 0 0 0
0:00:00.00 54457 N 0 0 0
0:00:00.00 54877 N 0 0 0
0:00:00.00 55303 N 0 0 0
0:00:00.00 55726 N 0 0 0
0:00:00.00 56126 N 0 0 0
0:00:00.00 56518 N 0 0 0
0:00:00.00 56911 N 0 0 0
0:00:00.00 57319 N 0 0 0
0:00:00.00 57744 N 0 0 0
0:00:00.00 58147 N 0 0 0
0:00:00.00 58536 N 0 0 0
0:00:00.00 58934 N 0 0 0
0:00:00.00 59357 N 0 0 0
0:00:00.00 59789 N 0 0 0
0:00:00.00 60208 N 0 0 0
0:00:00.00 60599 N 0 0 0
0:00:00.00 61000 N 0 0 0
0:00:00.00 61409 N 0 0 0
0:00:00.00 61828 N 0 0 0
0:00:00.00 62244 N 0 0 0
0:00:00.00 62647 N 0 0 0
0:00:00.00 63047 N 0 0 0
0:00:00.00 63454 N 0 0 0
0:00:00.00 63875 N 0 0 0
0:00:00.00 64301 N 0 0 0
0:00:00.00 64705 N 0 0 0
0:00:00.00 65090 N 0 0 0
0:00:00.00 65473 N 0 0 0
0:00:00.00 65880 N 0 0 0
0:00:00.00 66310 N 0 0 0
0:00:00.00 66717 N 0 0 0
0:00:00.00 67104 N 0 0 0
0:00:00.00 67500 N 0 0 0
0:00:00.00 67927 N 0 0 0
0:00:00.00 68355 N 0 0 0
0:00:00.00 68773 N 0 0 0
0:00:00.00 69172 N 0 0 0
0:00:00.00 69570 N 0 0 0
0:00:00.00 69982 N 0 0 0
0:00:00.00 70402 N 0 0 0
0:00:00.00 70823 N 0 0 0
0:00:00.00 71230 N 0 0 0
0:00:00.00 71617 N 0 0 0
0:00:00.00 72016 N 0 0 0
0:00:00.00 72432 N 0 0 0
0:00:00.00 72862 N 0 0 0
0:00:00.00 73276 N 0 0 0
0:00:00.00 73670 N 0 0 0
0:00:00.00 74074 N 0 0 0
0:00:00.00 74511 N 0 0 0
0:00:00.00 74945 N 0 0 0
0:00:00.00 75366 N 0 0 0
0:00:00.00 75771 N 0 0 0
0:00:00.00 76180 N 0 0 0
0:00:00.00 76608 N 0 0 0
0:00:00.00 77026 N 0 0 0
0:00:00.00 77447 N 0 0 0
0:00:00.00 77836 N 0 0 0
0:00:00.00 78221 N 0 0 0
0:00:00.00 78619 N 0 0 0
0:00:00.00 79043 N 0 0 0
0:00:00.00 79466 N 0 0 0
0:00:00.00 79864 N 0 0 0
0:00:00.00 80249 N 0 0 0
0:00:00.00 80645 N 0 0 0
0:00:00.00 81067 N 0 0 0
0:00:00.00 81482 N 0 0 0
0:00:00.00 81884 N 0 0 0
0:00:00.00 82143 N 0 0 0
0:00:00.00 82654 N 0 0 0
0:00:00.00 83068 N 0 0 0
0:00:00.00 83480 N 0 0 0
0:00:00.00 83891 N 0 0 0
0:00:00.00 84287 N 0 0 0
0:00:00.00 84677 N 0 0 0
0:00:00.00 85084 N 0 0 0
0:00:00.00 85507 N 0 0 0
0:00:00.00 85932 N 0 0 0
0:00:00.00 86339 N 0 0 0
0:00:00.00 86731 N 0 0 0
0:00:00.00 87125 N 0 0 0
0:00:00.00 87556 N 0 0 0
0:00:00.00 87979 N 0 0 0
0:00:00.00 88227 N 0 0 0
0:00:00.00 88751 N 0 0 0
0:00:00.00 89134 N 0 0 0
0:00:00.00 89541 N 0 0 0
0:00:00.00 89937 N 0 0 0
0:00:00.00 90333 N 0 0 0
0:00:00.00 90729 N 0 0 0
0:00:00.00 91116 N 0 0 0
0:00:00.00 91517 N 0 0 0
0:00:00.00 91944 N 0 0 0
0:00:00.00 92367 N 0 0 0
0:00:00.00 92779 N 0 0 0
0:00:00.00 93172 N 0 0 0
0:00:00.00 93557 N 0 0 0
0:00:00.00 93973 N 0 0 0
0:00:00.00 94401 N 0 0 0
0:00:00.00 94810 N 0 0 0
0:00:00.00 95207 N 0 0 0
0:00:00.00 95594 N 0 0 0
0:00:00.00 95827 N 0 0 0
0:00:00.00 96403 N 0 0 0
0:00:00.00 96804 N 0 0 0
0:00:00.00 97182 N 0 0 0
0:00:00.00 97560 N 0 0 0
0:00:00.00 97947 N 0 0 0
0:00:00.00 98356 N 0 0 0
0:00:00.00 98764 N 0 0 0
0:00:00.00 99171 N 0 0 0
0:00:00.00 99569 N 0 0 0
0:00:00.00 99959 N 0 0 0
0:00:00.00 100370 N 0 0 0
0:00:00.00 100800 N 0 0 0
0:00:00.00 101219 N 0 0 0
0:00:00.00 101612 N 0 0 0
0:00:00.00 102011 N 0 0 0
0:00:00.00 102424 N 0 0 0
0:00:00.00 102861 N 0 0 0
0:00:00.00 103282 N 0 0 0
0:00:00.00 103682 N 0 0 0
0:00:00.00 104085 N 0 0 0
0:00:00.00 104494 N 0 0 0
0:00:00.00 104913 N 0 0 0
0:00:00.00 105334 N 0 0 0
0:00:00.00 105739 N 0 0 0
0:00:00.00 106135 N 0 0 0
0:00:00.00 106529 N 0 0 0
0:00:00.00 106951 N 0 0 0
0:00:00.00 107383 N 0 0 0
0:00:00.00 107802 N 0 0 0
0:00:00.00 108194 N 0 0 0
0:00:00.00 108589 N 0 0 0
0:00:00.00 109003 N 0 0 0
0:00:00.00 109424 N 0 0 0
0:00:00.00 109827 N 0 0 0
0:00:00.00 110209 N 0 0 0
0:00:00.00 110592 N 0 0 0
0:00:00.00 111006 N 0 0 0
0:00:00.00 111427 N 0 0 0
0:00:00.00 111832 N 0 0 0
0:00:00.00 112237 N 0 0 0
0:00:00.00 112639 N 0 0 0
0:00:00.00 113049 N 0 0 0
0:00:00.00 113479 N 0 0 0
0:00:00.00 113915 N 0 0 0
0:00:00.00 114336 N 0 0 0
0:00:00.00 114734 N 0 0 0
0:00:00.00 115137 N 0 0 0
0:00:00.00 115562 N 0 0 0
0:00:00.00 115996 N 0 0 0
0:00:00.00 116408 N 0 0 0
0:00:00.00 116804 N 0 0 0
0:00:00.00 117207 N 0 0 0
0:00:00.00 117637 N 0 0 0
0:00:00.00 118066 N 0 0 0
0:00:00.00 118489 N 0 0 0
0:00:00.00 118899 N 0 0 0
0:00:00.00 119308 N 0 0 0
0:00:00.00 119732 N 0 0 0
0:00:00.00 120166 N 0 0 0
0:00:00.00 120416 N 0 0 0
0:00:00.00 121007 N 0 0 0
0:00:00.00 121406 N 0 0 0
0:00:00.00 121822 N 0 0 0
0:00:00.00 122252 N 0 0 0
0:00:00.00 122683 N 0 0 0
0:00:00.00 123088 N 0 0 0
0:00:00.00 123482 N 0 0 0
0:00:00.00 123898 N 0 0 0
0:00:00.00 124330 N 0 0 0
0:00:00.00 124747 N 0 0 0
0:00:00.00 125158 N 0 0 0
0:00:00.00 125550 N 0 0 0
0:00:00.00 125951 N 0 0 0
0:00:00.00 126367 N 0 0 0
0:00:00.00 126787 N 0 0 0
0:00:00.00 127206 N 0 0 0
0:00:00.00 127602 N 0 0 0
0:00:00.00 127993 N 0 0 0
0:00:00.00 128408 N 0 0 0
0:00:00.00 128837 N 0 0 0
0:00:00.00 129260 N 0 0 0
0:00:00.00 129654 N 0 0 0
0:00:00.00 130037 N 0 0 0
0:00:00.00 130442 N 0 0 0
0:00:00.00 130865 N 0 0 0
0:00:00.00 131276 N 0 0 0
0:00:00.00 131674 N 0 0 0
0:00:00.00 132064 N 0 0 0
0:00:00.00 132473 N 0 0 0
0:00:00.00 132905 N 0 0 0
0:00:00.00 133330 N 0 0 0
0:00:00.00 133753 N 0 0 0
0:00:00.00 134156 N 0 0 0
0:00:00.00 134555 N 0 0 0
0:00:00.00 134977 N 0 0 0
0:00:00.00 135405 N 0 0 0
0:00:00.00 135821 N 0 0 0
0:00:00.00 136213 N 0 0 0
0:00:00.00 136593 N 0 0 0
0:00:00.00 137003 N 0 0 0
0:00:00.00 137414 N 0 0 0
0:00:00.00 137815 N 0 0 0
0:00:00.00 138199 N 0 0 0
0:00:00.00 138582 N 0 0 0
0:00:00.00 138985 N 0 0 0
0:00:00.00 139421 N 0 0 0
0:00:00.00 139855 N 0 0 0
0:00:00.00 140278 N 0 0 0
0:00:00.00 140692 N 0 0 0
0:00:00.00 141100 N 0 0 0
0:00:00.00 141521 N 0 0 0
0:00:00.00 141946 N 0 0 0
0:00:00.00 142362 N 0 0 0
0:00:00.00 142758 N 0 0 0
0:00:00.00 143150 N 0 0 0
0:00:00.00 143559 N 0 0 0
0:00:00.00 143989 N 0 0 0
0:00:00.00 144401 N 0 0 0
0:00:00.00 144799 N 0 0 0
0:00:00.00 145071 N 0 0 0
0:00:00.00 145490 N 0 0 0
0:00:00.00 145940 N 0 0 0
0:00:00.00 146383 N 0 0 0
0:00:00.00 146806 N 0 0 0
0:00:00.00 147238 N 0 0 0
0:00:00.00 147667 N 0 0 0
0:00:00.00 148099 N 0 0 0
0:00:00.00 148529 N 0 0 0
0:00:00.00 148950 N 0 0 0
0:00:00.00 149337 N 0 0 0
0:00:00.00 149706 N 0 0 0
0:00:00.00 150084 N 0 0 0
0:00:00.00 150485 N 0 0 0
0:00:00.00 150889 N 0 0 0
0:00:00.00 151285 N 0 0 0
0:00:00.00 151681 N 0 0 0
0:00:00.00 152093 N 0 0 0
0:00:00.00 152530 N 0 0 0
0:00:00.00 152955 N 0 0 0
0:00:00.00 153353 N 0 0 0
0:00:00.00 153752 N 0 0 0
0:00:00.00 154163 N 0 0 0
0:00:00.00 154586 N 0 0 0
0:00:00.00 155011 N 0 0 0
0:00:00.00 155417 N 0 0 0
0:00:00.00 155639 N 0 0 0
0:00:00.00 156202 N 0 0 0
0:00:00.00 156614 N 0 0 0
0:00:00.00 157023 N 0 0 0
0:00:00.00 157426 N 0 0 0
0:00:00.00 157806 N 0 0 0
0:00:00.00 158188 N 0 0 0
0:00:00.00 158589 N 0 0 0
0:00:00.00 159014 N 0 0 0
0:00:00.00 159431 N 0 0 0
0:00:00.00 159827 N 0 0 0
0:00:00.00 160223 N 0 0 0
0:00:00.00 160637 N 0 0 0
0:00:00.00 161062 N 0 0 0
0:00:00.00 161480 N 0 0 0
0:00:00.00 161887 N 0 0 0
0:00:00.00 162281 N 0 0 0
0:00:00.00 162679 N 0 0 0
0:00:00.00 163093 N 0 0 0
0:00:00.00 163517 N 0 0 0
0:00:00.00 163928 N 0 0 0
0:00:00.00 164318 N 0 0 0
0:00:00.00 164709 N 0 0 0
0:00:00.00 165119 N 0 0 0
0:00:00.00 165551 N 0 0 0
0:00:00.00 165976 N 0 0 0
0:00:00.00 166378 N 0 0 0
0:00:00.00 166777 N 0 0 0
0:00:00.00 167200 N 0 0 0
0:00:00.00 167634 N 0 0 0
0:00:00.00 168046 N 0 0 0
0:00:00.00 168442 N 0 0 0
0:00:00.00 168829 N 0 0 0
0:00:00.00 169227 N 0 0 0
0:00:00.00 169636 N 0 0 0
0:00:00.00 170041 N 0 0 0
0:00:00.00 170320 N 0 0 0
0:00:00.00 170815 N 0 0 0
0:00:00.00 171187 N 0 0 0
0:00:00.00 171571 N 0 0 0
0:00:00.00 171959 N 0 0 0
0:00:00.00 172346 N 0 0 0
0:00:00.00 172724 N 0 0 0
0:00:00.00 173092 N 0 0 0
0:00:00.00 173471 N 0 0 0
0:00:00.00 173880 N 0 0 0
0:00:00.00 174283 N 0 0 0
0:00:00.00 174685 N 0 0 0
0:00:00.00 175066 N 0 0 0
0:00:00.00 175451 N 0 0 0
0:00:00.00 175849 N 0 0 0
0:00:00.00 176258 N 0 0 0
0:00:00.00 176674 N 0 0 0
0:00:00.00 177077 N 0 0 0
0:00:00.00 177466 N 0 0 0
0:00:00.00 177862 N 0 0 0
0:00:00.00 178277 N 0 0 0
0:00:00.00 178708 N 0 0 0
0:00:00.00 179122 N 0 0 0
0:00:00.00 179516 N 0 0 0
0:00:00.00 179912 N 0 0 0
0:00:00.00 180335 N 0 0 0
0:00:00.00 180754 N 0 0 0
0:00:00.00 181156 N 0 0 0
0:00:00.00 181544 N 0 0 0
0:00:00.00 181933 N 0 0 0
0:00:00.00 182344 N 0 0 0
0:00:00.00 182754 N 0 0 0
0:00:00.00 183164 N 0 0 0
0:00:00.00 183571 N 0 0 0
0:00:00.00 183962 N 0 0 0
0:00:00.00 184358 N 0 0 0
0:00:00.00 184779 N 0 0 0
0:00:00.00 185204 N 0 0 0
0:00:00.00 185621 N 0 0 0
0:00:00.00 186016 N 0 0 0
0:00:00.00 186412 N 0 0 0
0:00:00.00 186840 N 0 0 0
0:00:00.00 187267 N 0 0 0
0:00:00.00 187675 N 0 0 0
0:00:00.00 188071 N 0 0 0
0:00:00.00 188460 N 0 0 0
0:00:00.00 188867 N 0 0 0
0:00:00.00 189274 N 0 0 0
0:00:00.00 189679 N 0 0 0
0:00:00.00 190078 N 0 0 0
0:00:00.00 190462 N 0 0 0
0:00:00.00 190850 N 0 0 0
0:00:00.00 191264 N 0 0 0
0:00:00.00 191686 N 0 0 0
0:00:00.00 192096 N 0 0 0
0:00:00.00 192490 N 0 0 0
0:00:00.00 192875 N 0 0 0
0:00:00.00 193282 N 0 0 0
0:00:00.00 193702 N 0 0 0
0:00:00.00 194108 N 0 0 0
0:00:00.00 194490 N 0 0 0
0:00:00.00 194875 N 0 0 0
0:00:00.00 195273 N 0 0 0
0:00:00.00 195694 N 0 0 0
0:00:00.00 196110 N 0 0 0
0:00:00.00 196510 N 0 0 0
0:00:00.00 196907 N 0 0 0
0:00:00.00 197305 N 0 0 0
0:00:00.00 197714 N 0 0 0
0:00:00.00 198130 N 0 0 0
0:00:00.00 198535 N 0 0 0
0:00:00.00 198927 N 0 0 0
0:00:00.00 199314 N 0 0 0
0:00:00.00 199703 N 0 0 0
0:00:00.00 200110 N 0 0 0
0:00:00.00 200500 N 0 0 0
0:00:00.00 200860 N 0 0 0
0:00:00.00 201217 N 0 0 0
0:00:00.00 201580 N 0 0 0
0:00:00.00 201962 N 0 0 0
0:00:00.00 202347 N 0 0 0
0:00:00.00 202716 N 0 0 0
0:00:00.00 203067 N 0 0 0
0:00:00.00 203429 N 0 0 0
0:00:00.00 203807 N 0 0 0
0:00:00.00 204214 N 0 0 0
0:00:00.00 204628 N 0 0 0
0:00:00.00 205031 N 0 0 0
0:00:00.00 205425 N 0 0 0
0:00:00.00 205817 N 0 0 0
0:00:00.00 206219 N 0 0 0
0:00:00.00 206642 N 0 0 0
0:00:00.00 207061 N 0 0 0
0:00:00.00 207450 N 0 0 0
0:00:00.00 207837 N 0 0 0
0:00:00.00 208231 N 0 0 0
0:00:00.00 208631 N 0 0 0
0:00:00.00 209012 N 0 0 0
0:00:00.00 209385 N 0 0 0
0:00:00.00 209745 N 0 0 0
0:00:00.00 210110 N 0 0 0
0:00:00.00 210487 N 0 0 0
0:00:00.00 210861 N 0 0 0
0:00:00.00 211226 N 0 0 0
0:00:00.00 211572 N 0 0 0
0:00:00.00 211909 N 0 0 0
0:00:00.00 212240 N 0 0 0
0:00:00.00 212584 N 0 0 0
0:00:00.00 212935 N 0 0 0
0:00:00.00 213282 N 0 0 0
0:00:00.00 213620 N 0 0 0
0:00:00.00 213943 N 0 0 0
0:00:00.00 214263 N 0 0 0
0:00:00.00 214596 N 0 0 0
0:00:00.00 214940 N 0 0 0
0:00:00.00 215296 N 0 0 0
0:00:00.00 215642 N 0 0 0
0:00:00.00 215971 N 0 0 0
0:00:00.00 216301 N 0 0 0
0:00:00.00 216635 N 0 0 0
0:00:00.00 216981 N 0 0 0
0:00:00.00 217316 N 0 0 0
0:00:00.00 217649 N 0 0 0
0:00:00.00 217976 N 0 0 0
0:00:00.00 218299 N 0 0 0
0:00:00.00 218561 N 0 0 0
0:00:00.00 218934 N 0 0 0
0:00:00.00 219271 N 0 0 0
0:00:00.00 219611 N 0 0 0
0:00:00.00 219947 N 0 0 0
0:00:00.00 220270 N 0 0 0
0:00:00.00 220577 N 0 0 0
0:00:00.00 220892 N 0 0 0
0:00:00.00 221227 N 0 0 0
0:00:00.00 221566 N 0 0 0
0:00:00.00 221908 N 0 0 0
0:00:00.00 222235 N 0 0 0
0:00:00.00 222496 N 0 0 0
0:00:00.00 222872 N 0 0 0
0:00:00.00 223213 N 0 0 0
0:00:00.00 223553 N 0 0 0
0:00:00.00 223897 N 0 0 0
0:00:00.00 224233 N 0 0 0
0:00:00.00 224473 N 0 0 0
0:00:00.00 224885 N 0 0 0
0:00:00.00 225223 N 0 0 0
0:00:00.00 225562 N 0 0 0
0:00:00.00 225911 N 0 0 0
0:00:00.00 226258 N 0 0 0
0:00:00.00 226543 N 0 0 0
0:00:00.00 226931 N 0 0 0
0:00:00.00 227257 N 0 0 0
0:00:00.00 227587 N 0 0 0
0:00:00.00 227929 N 0 0 0
0:00:00.00 228278 N 0 0 0
0:00:00.00 228573 N 0 0 0
0:00:00.00 228956 N 0 0 0
0:00:00.00 229273 N 0 0 0
0:00:00.00 229597 N 0 0 0
0:00:00.00 229945 N 0 0 0
0:00:00.00 230290 N 0 0 0
0:00:00.00 230625 N 0 0 0
0:00:00.00 230951 N 0 0 0
0:00:00.00 231266 N 0 0 0
0:00:00.00 231581 N 0 0 0
0:00:00.00 231905 N 0 0 0
0:00:00.00 232236 N 0 0 0
0:00:00.00 232479 N 0 0 0
0:00:00.00 232909 N 0 0 0
0:00:00.00 233242 N 0 0 0
0:00:00.00 233557 N 0 0 0
0:00:00.00 233867 N 0 0 0
0:00:00.00 234191 N 0 0 0
0:00:00.00 234527 N 0 0 0
0:00:00.00 234868 N 0 0 0
0:00:00.00 235213 N 0 0 0
0:00:00.00 235535 N 0 0 0
0:00:00.00 235856 N 0 0 0
0:00:00.00 236183 N 0 0 0
0:00:00.00 236533 N 0 0 0
0:00:00.00 236882 N 0 0 0
0:00:00.00 237218 N 0 0 0
0:00:00.00 237551 N 0 0 0
0:00:00.00 237870 N 0 0 0
0:00:00.00 238194 N 0 0 0
0:00:00.00 238430 N 0 0 0
0:00:00.00 238874 N 0 0 0
0:00:00.00 239215 N 0 0 0
0:00:00.00 239544 N 0 0 0
0:00:00.00 239870 N 0 0 0
0:00:00.00 240181 N 0 0 0
0:00:00.00 240493 N 0 0 0
0:00:00.00 240817 N 0 0 0
0:00:00.00 241148 N 0 0 0
0:00:00.00 241472 N 0 0 0
0:00:00.00 241790 N 0 0 0
0:00:00.00 242095 N 0 0 0
0:00:00.00 242404 N 0 0 0
0:00:00.00 242725 N 0 0 0
0:00:00.00 243061 N 0 0 0
0:00:00.00 243403 N 0 0 0
0:00:00.00 243729 N 0 0 0
0:00:00.00 244042 N 0 0 0
0:00:00.00 244260 N 0 0 0
0:00:00.00 244660 N 0 0 0
0:00:00.00 244993 N 0 0 0
0:00:00.00 245333 N 0 0 0
0:00:00.00 245664 N 0 0 0
0:00:00.00 245983 N 0 0 0
0:00:00.00 246299 N 0 0 0
0:00:00.00 246618 N 0 0 0
0:00:00.00 246940 N 0 0 0
0:00:00.00 247271 N 0 0 0
0:00:00.00 247622 N 0 0 0
0:00:00.00 247959 N 0 0 0
0:00:00.00 248297 N 0 0 0
0:00:00.00 248630 N 0 0 0
0:00:00.00 248953 N 0 0 0
0:00:00.00 249300 N 0 0 0
0:00:00.00 249658 N 0 0 0
0:00:00.00 250043 N 0 0 0
0:00:00.00 250382 N 0 0 0
0:00:00.00 250720 N 0 0 0
0:00:00.00 251062 N 0 0 0
0:00:00.00 251433 N 0 0 0
0:00:00.00 251811 N 0 0 0
0:00:00.00 252187 N 0 0 0
0:00:00.00 252554 N 0 0 0
0:00:00.00 252916 N 0 0 0
0:00:00.00 253280 N 0 0 0
0:00:00.00 253663 N 0 0 0
0:00:00.00 254047 N 0 0 0
0:00:00.00 254435 N 0 0 0
0:00:00.00 254804 N 0 0 0
0:00:00.00 255179 N 0 0 0
0:00:00.00 255542 N 0 0 0
0:00:00.00 255929 N 0 0 0
0:00:00.00 256333 N 0 0 0
0:00:00.00 256725 N 0 0 0
0:00:00.00 257096 N 0 0 0
0:00:00.00 257467 N 0 0 0
0:00:00.00 257846 N 0 0 0
0:00:00.00 258251 N 0 0 0
0:00:00.00 258656 N 0 0 0
0:00:00.00 259042 N 0 0 0
0:00:00.00 259420 N 0 0 0
0:00:00.00 259796 N 0 0 0
0:00:00.00 260195 N 0 0 0
0:00:00.00 260590 N 0 0 0
0:00:00.00 260986 N 0 0 0
0:00:00.00 261369 N 0 0 0
0:00:00.00 261749 N 0 0 0
0:00:00.00 262130 N 0 0 0
0:00:00.00 262525 N 0 0 0
0:00:00.00 262935 N 0 0 0
0:00:00.00 263320 N 0 0 0
0:00:00.00 263689 N 0 0 0
0:00:00.00 264056 N 0 0 0
0:00:00.00 264440 N 0 0 0
0:00:00.00 264841 N 0 0 0
0:00:00.00 265018 N 0 0 0
0:00:00.00 265162 N 0 0 0
0:00:00.00 265835 N 0 0 0
0:00:00.00 266200 N 0 0 0
0:00:00.00 266578 N 0 0 0
0:00:00.00 266958 N 0 0 0
0:00:00.00 267331 N 0 0 0
0:00:00.00 267712 N 0 0 0
0:00:00.00 267898 N 0 0 0
0:00:00.00 268315 N 0 0 0
0:00:00.00 268691 N 0 0 0
0:00:00.00 268868 N 0 0 0
0:00:00.00 269334 N 0 0 0
0:00:00.00 269708 N 0 0 0
0:00:00.00 269879 N 0 0 0
0:00:00.00 270308 N 0 0 0
0:00:00.00 270668 N 0 0 0
0:00:00.00 271042 N 0 0 0
0:00:00.00 271325 N 0 0 0
0:00:00.00 271804 N 0 0 0
0:00:00.00 272167 N 0 0 0
0:00:00.00 272533 N 0 0 0
0:00:00.00 272920 N 0 0 0
0:00:00.00 273101 N 0 0 0
0:00:00.00 273575 N 0 0 0
0:00:00.00 273971 N 0 0 0
0:00:00.00 274142 N 0 0 0
0:00:00.00 274595 N 0 0 0
0:00:00.00 274981 N 0 0 0
0:00:00.00 275472 N 0 0 0
0:00:00.00 276019 N 0 0 0
0:00:00.00 276404 N 0 0 0
0:00:00.00 276782 N 0 0 0
0:00:00.00 277411 N 0 0 0
0:00:00.00 277826 N 0 0 0
0:00:00.00 278235 N 0 0 0
0:00:00.00 278410 N 0 0 0
0:00:00.00 278856 N 0 0 0
0:00:00.00 279250 N 0 0 0
0:00:00.00 279655 N 0 0 0
0:00:00.00 280062 N 0 0 0
0:00:00.00 280462 N 0 0 0
0:00:00.00 280636 N 0 0 0
0:00:00.00 281097 N 0 0 0
0:00:00.00 281484 N 0 0 0
0:00:00.00 281889 N 0 0 0
0:00:00.00 282073 N 0 0 0
0:00:00.00 282550 N 0 0 0
0:00:00.00 282946 N 0 0 0
0:00:00.00 283118 N 0 0 0
0:00:00.00 283565 N 0 0 0
0:00:00.00 283961 N 0 0 0
0:00:00.00 284360 N 0 0 0
0:00:00.00 284760 N 0 0 0
0:00:00.00 285133 N 0 0 0
0:00:00.00 285498 N 0 0 0
0:00:00.00 285874 N 0 0 0
0:00:00.00 286285 N 0 0 0
0:00:00.00 286688 N 0 0 0
0:00:00.00 287078 N 0 0 0
0:00:00.00 287455 N 0 0 0
0:00:00.00 287840 N 0 0 0
0:00:00.00 288241 N 0 0 0
0:00:00.00 288646 N 0 0 0
0:00:00.00 288824 N 0 0 0
0:00:00.00 289301 N 0 0 0
0:00:00.00 289694 N 0 0 0
0:00:00.00 290077 N 0 0 0
0:00:00.00 290257 N 0 0 0
0:00:00.00 290745 N 0 0 0
0:00:00.00 291146 N 0 0 0
0:00:00.00 291541 N 0 0 0
0:00:00.00 291910 N 0 0 0
0:00:00.00 292284 N 0 0 0
0:00:00.00 292689 N 0 0 0
0:00:00.00 293090 N 0 0 0
0:00:00.00 293481 N 0 0 0
0:00:00.00 293855 N 0 0 0
0:00:00.00 294224 N 0 0 0
0:00:00.00 294617 N 0 0 0
0:00:00.00 295024 N 0 0 0
0:00:00.00 295420 N 0 0 0
0:00:00.00 295808 N 0 0 0
0:00:00.00 296185 N 0 0 0
0:00:00.00 296564 N 0 0 0
0:00:00.00 296955 N 0 0 0
0:00:00.00 297349 N 0 0 0
0:00:00.00 297749 N 0 0 0
0:00:00.00 298136 N 0 0 0
0:00:00.00 298498 N 0 0 0
0:00:00.00 298879 N 0 0 0
0:00:00.00 299282 N 0 0 0
0:00:00.00 299689 N 0 0 0
0:00:00.00 300067 N 0 0 0
0:00:00.00 300440 N 0 0 0
0:00:00.00 300814 N 0 0 0
0:00:00.00 301205 N 0 0 0
0:00:00.00 301621 N 0 0 0
0:00:00.00 302011 N 0 0 0
0:00:00.00 302398 N 0 0 0
0:00:00.00 302575 N 0 0 0
0:00:00.00 303021 N 0 0 0
0:00:00.00 303419 N 0 0 0
0:00:00.00 303815 N 0 0 0
0:00:00.00 304211 N 0 0 0
0:00:00.00 304591 N 0 0 0
0:00:00.00 304960 N 0 0 0
0:00:00.00 305339 N 0 0 0
0:00:00.00 305744 N 0 0 0
0:00:00.00 306155 N 0 0 0
0:00:00.00 306549 N 0 0 0
0:00:00.00 306925 N 0 0 0
0:00:00.00 307296 N 0 0 0
0:00:00.00 307690 N 0 0 0
0:00:00.00 308095 N 0 0 0
0:00:00.00 308486 N 0 0 0
0:00:00.00 308855 N 0 0 0
0:00:00.00 309233 N 0 0 0
0:00:00.00 309607 N 0 0 0
0:00:00.00 310014 N 0 0 0
0:00:00.00 310419 N 0 0 0
0:00:00.00 310815 N 0 0 0
0:00:00.00 311202 N 0 0 0
0:00:00.00 311582 N 0 0 0
0:00:00.00 311971 N 0 0 0
0:00:00.00 312383 N 0 0 0
0:00:00.00 312795 N 0 0 0
0:00:00.00 313182 N 0 0 0
0:00:00.00 313567 N 0 0 0
0:00:00.00 313960 N 0 0 0
0:00:00.00 314368 N 0 0 0
0:00:00.00 314784 N 0 0 0
0:00:00.00 315180 N 0 0 0
0:00:00.00 315565 N 0 0 0
0:00:00.00 315952 N 0 0 0
0:00:00.00 316352 N 0 0 0
0:00:00.00 316760 N 0 0 0
0:00:00.00 317158 N 0 0 0
0:00:00.00 317551 N 0 0 0
0:00:00.00 317921 N 0 0 0
0:00:00.00 318310 N 0 0 0
0:00:00.00 318706 N 0 0 0
0:00:00.00 319120 N 0 0 0
0:00:00.00 319514 N 0 0 0
0:00:00.00 319889 N 0 0 0
0:00:00.00 320272 N 0 0 0
0:00:00.00 320666 N 0 0 0
0:00:00.00 321082 N 0 0 0
0:00:00.00 321478 N 0 0 0
0:00:00.00 321860 N 0 0 0
0:00:00.00 322245 N 0 0 0
0:00:00.00 322634 N 0 0 0
0:00:00.00 323033 N 0 0 0
0:00:00.00 323444 N 0 0 0
0:00:00.00 323849 N 0 0 0
0:00:00.00 324230 N 0 0 0
0:00:00.00 324619 N 0 0 0
0:00:00.00 325015 N 0 0 0
0:00:00.00 325436 N 0 0 0
0:00:00.00 325845 N 0 0 0
0:00:00.00 326236 N 0 0 0
0:00:00.00 326615 N 0 0 0
0:00:00.00 327010 N 0 0 0
0:00:00.00 327422 N 0 0 0
0:00:00.00 327841 N 0 0 0
0:00:00.00 328235 N 0 0 0
0:00:00.00 328619 N 0 0 0
0:00:00.00 329017 N 0 0 0
0:00:00.00 329427 N 0 0 0
0:00:00.00 329839 N 0 0 0
0:00:00.00 330250 N 0 0 0
0:00:00.00 330629 N 0 0 0
0:00:00.00 331024 N 0 0 0
0:00:00.00 331420 N 0 0 0
0:00:00.00 331826 N 0 0 0
0:00:00.00 332235 N 0 0 0
0:00:00.00 332618 N 0 0 0
0:00:00.00 332996 N 0 0 0
0:00:00.00 333371 N 0 0 0
0:00:00.00 333765 N 0 0 0
0:00:00.00 334174 N 0 0 0
0:00:00.00 334562 N 0 0 0
0:00:00.00 334944 N 0 0 0
0:00:00.00 335318 N 0 0 0
0:00:00.00 335723 N 0 0 0
0:00:00.00 336132 N 0 0 0
0:00:00.00 336533 N 0 0 0
0:00:00.00 336917 N 0 0 0
0:00:00.00 337289 N 0 0 0
0:00:00.00 337680 N 0 0 0
0:00:00.00 338078 N 0 0 0
0:00:00.00 338481 N 0 0 0
0:00:00.00 338879 N 0 0 0
0:00:00.00 339266 N 0 0 0
0:00:00.00 339642 N 0 0 0
0:00:00.00 340034 N 0 0 0
0:00:00.00 340447 N 0 0 0
0:00:00.00 340853 N 0 0 0
0:00:00.00 341248 N 0 0 0
0:00:00.00 341624 N 0 0 0
0:00:00.00 342011 N 0 0 0
0:00:00.00 342441 N 0 0 0
0:00:00.00 342857 N 0 0 0
0:00:00.00 343247 N 0 0 0
0:00:00.00 343631 N 0 0 0
0:00:00.00 344023 N 0 0 0
0:00:00.00 344434 N 0 0 0
0:00:00.00 344846 N 0 0 0
0:00:00.00 345251 N 0 0 0
0:00:00.00 345650 N 0 0 0
0:00:00.00 346034 N 0 0 0
0:00:00.00 346430 N 0 0 0
0:00:00.00 346833 N 0 0 0
0:00:00.00 347247 N 0 0 0
0:00:00.00 347645 N 0 0 0
0:00:00.00 348026 N 0 0 0
0:00:00.00 348413 N 0 0 0
0:00:00.00 348827 N 0 0 0
0:00:00.00 349234 N 0 0 0
0:00:00.00 349628 N 0 0 0
0:00:00.00 350003 N 0 0 0
0:00:00.00 350374 N 0 0 0
0:00:00.00 350757 N 0 0 0
0:00:00.00 351149 N 0 0 0
0:00:00.00 351533 N 0 0 0
0:00:00.00 351913 N 0 0 0
0:00:00.00 352278 N 0 0 0
0:00:00.00 352647 N 0 0 0
0:00:00.00 353025 N 0 0 0
0:00:00.00 353425 N 0 0 0
0:00:00.00 353821 N 0 0 0
0:00:00.00 354209 N 0 0 0
0:00:00.00 354584 N 0 0 0
0:00:00.00 354955 N 0 0 0
0:00:00.00 355365 N 0 0 0
0:00:00.00 355765 N 0 0 0
0:00:00.00 356153 N 0 0 0
0:00:00.00 356526 N 0 0 0
0:00:00.00 356890 N 0 0 0
0:00:00.00 357262 N 0 0 0
0:00:00.00 357655 N 0 0 0
0:00:00.00 358029 N 0 0 0
0:00:00.00 358394 N 0 0 0
0:00:00.00 358763 N 0 0 0
0:00:00.00 359118 N 0 0 0
0:00:00.00 359494 N 0 0 0
0:00:00.00 359899 N 0 0 0
0:00:00.00 360288 N 0 0 0
0:00:00.00 360682 N 0 0 0
0:00:00.00 361060 N 0 0 0
0:00:00.00 361444 N 0 0 0
0:00:00.00 361868 N 0 0 0
0:00:00.00 362284 N 0 0 0
0:00:00.00 362673 N 0 0 0
0:00:00.00 363067 N 0 0 0
0:00:00.00 363458 N 0 0 0
0:00:00.00 363877 N 0 0 0
0:00:00.00 364297 N 0 0 0
0:00:00.00 364711 N 0 0 0
0:00:00.00 365110 N 0 0 0
0:00:00.00 365508 N 0 0 0
0:00:00.00 365915 N 0 0 0
0:00:00.00 366331 N 0 0 0
0:00:00.00 366752 N 0 0 0
0:00:00.00 367162 N 0 0 0
0:00:00.00 367546 N 0 0 0
0:00:00.00 367940 N 0 0 0
0:00:00.00 368356 N 0 0 0
0:00:00.00 368784 N 0 0 0
0:00:00.00 369191 N 0 0 0
0:00:00.00 369576 N 0 0 0
0:00:00.00 369970 N 0 0 0
0:00:00.00 370388 N 0 0 0
0:00:00.00 370805 N 0 0 0
0:00:00.00 371221 N 0 0 0
0:00:00.00 371624 N 0 0 0
0:00:00.00 372019 N 0 0 0
0:00:00.00 372427 N 0 0 0
0:00:00.00 372845 N 0 0 0
0:00:00.00 373266 N 0 0 0
0:00:00.00 373673 N 0 0 0
0:00:00.00 374067 N 0 0 0
0:00:00.00 374474 N 0 0 0
0:00:00.00 374895 N 0 0 0
0:00:00.00 375322 N 0 0 0
0:00:00.00 375741 N 0 0 0
0:00:00.00 376130 N 0 0 0
0:00:00.00 376533 N 0 0 0
0:00:00.00 376958 N 0 0 0
0:00:00.00 377399 N 0 0 0
0:00:00.00 377816 N 0 0 0
0:00:00.00 378218 N 0 0 0
0:00:00.00 378635 N 0 0 0
0:00:00.00 379064 N 0 0 0
0:00:00.00 379496 N 0 0 0
0:00:00.00 379913 N 0 0 0
0:00:00.00 380322 N 0 0 0
0:00:00.00 380727 N 0 0 0
0:00:00.00 381145 N 0 0 0
0:00:00.00 381580 N 0 0 0
0:00:00.00 382007 N 0 0 0
0:00:00.00 382414 N 0 0 0
0:00:00.00 382813 N 0 0 0
0:00:00.00 383224 N 0 0 0
0:00:00.00 383663 N 0 0 0
0:00:00.00 384098 N 0 0 0
0:00:00.00 384503 N 0 0 0
0:00:00.00 384912 N 0 0 0
0:00:00.00 385340 N 0 0 0
0:00:00.00 385781 N 0 0 0
0:00:00.00 386217 N 0 0 0
0:00:00.00 386631 N 0 0 0
0:00:00.00 387045 N 0 0 0
0:00:00.00 387464 N 0 0 0
0:00:00.00 387902 N 0 0 0
0:00:00.00 388341 N 0 0 0
0:00:00.00 388759 N 0 0 0
0:00:00.00 389153 N 0 0 0
0:00:00.00 389561 N 0 0 0
0:00:00.00 389984 N 0 0 0
0:00:00.00 390416 N 0 0 0
0:00:00.00 390829 N 0 0 0
0:00:00.00 391219 N 0 0 0
0:00:00.00 391628 N 0 0 0
0:00:00.00 392060 N 0 0 0
0:00:00.00 392492 N 0 0 0
0:00:00.00 392917 N 0 0 0
0:00:00.00 393320 N 0 0 0
0:00:00.00 393734 N 0 0 0
0:00:00.00 394153 N 0 0 0
0:00:00.00 394580 N 0 0 0
0:00:00.00 395017 N 0 0 0
0:00:00.00 395424 N 0 0 0
0:00:00.00 395827 N 0 0 0
0:00:00.00 396252 N 0 0 0
0:00:00.00 396673 N 0 0 0
0:00:00.00 397112 N 0 0 0
0:00:00.00 397521 N 0 0 0
0:00:00.00 397919 N 0 0 0
0:00:00.00 398356 N 0 0 0
0:00:00.00 398801 N 0 0 0
0:00:00.00 399222 N 0 0 0
0:00:00.00 399631 N 0 0 0
0:00:00.00 400028 N 0 0 0
0:00:00.00 400455 N 0 0 0
0:00:00.00 400891 N 0 0 0
0:00:00.00 401319 N 0 0 0
0:00:00.00 401738 N 0 0 0
0:00:00.00 402140 N 0 0 0
0:00:00.00 402552 N 0 0 0
0:00:00.00 402980 N 0 0 0
0:00:00.00 403416 N 0 0 0
0:00:00.00 403835 N 0 0 0
0:00:00.00 404237 N 0 0 0
0:00:00.00 404417 N 0 0 0
0:00:00.00 404941 N 0 0 0
0:00:00.00 405142 N 0 0 0
0:00:00.00 405288 N 0 0 0
0:00:00.00 405666 N 0 0 0
0:00:00.00 405850 N 0 0 0
0:00:00.00 406336 N 0 0 0
0:00:00.00 406525 N 0 0 0
0:00:00.00 407023 N 0 0 0
0:00:00.00 407223 N 0 0 0
0:00:00.00 407731 N 0 0 0
0:00:00.00 407929 N 0 0 0
0:00:00.00 408071 N 0 0 0
0:00:00.00 408424 N 0 0 0
0:00:00.00 408604 N 0 0 0
0:00:00.00 409093 N 0 0 0
0:00:00.00 409295 N 0 0 0
0:00:00.00 409439 N 0 0 0
0:00:00.00 409822 N 0 0 0
0:00:00.00 410013 N 0 0 0
0:00:00.00 410162 N 0 0 0
0:00:00.00 410522 N 0 0 0
0:00:00.00 410699 N 0 0 0
0:00:00.00 411194 N 0 0 0
0:00:00.00 411395 N 0 0 0
0:00:00.00 411547 N 0 0 0
0:00:00.00 411709 N 0 0 0
0:00:00.00 411885 N 0 0 0
0:00:00.00 412092 N 0 0 0
0:00:00.00 412324 N 0 0 0
0:00:00.00 412520 N 0 0 0
0:00:00.00 412704 N 0 0 0
0:00:00.00 412877 N 0 0 0
0:00:00.00 413041 N 0 0 0
0:00:00.00 413258 N 0 0 0
0:00:00.00 413473 N 0 0 0
0:00:00.00 413656 N 0 0 0
0:00:00.00 413815 N 0 0 0
0:00:00.00 414077 N 0 0 0
0:00:00.00 414324 N 0 0 0
0:00:00.00 414524 N 0 0 0
0:00:00.00 414709 N 0 0 0
0:00:00.00 414878 N 0 0 0
0:00:00.00 415087 N 0 0 0
0:00:00.00 415253 N 0 0 0
0:00:00.00 415409 N 0 0 0
0:00:00.00 415633 N 0 0 0
0:00:00.00 415838 N 0 0 0
0:00:00.00 416066 N 0 0 0
0:00:00.00 416264 N 0 0 0
0:00:00.00 416457 N 0 0 0
0:00:00.00 416695 N 0 0 0
0:00:00.00 417157 N 0 0 0
0:00:00.00 417580 N 0 0 0
0:00:00.00 417766 N 0 0 0
0:00:00.00 417926 N 0 0 0
0:00:00.00 418354 N 0 0 0
0:00:00.00 418541 N 0 0 0
0:00:00.00 418698 N 0 0 0
0:00:00.00 419083 N 0 0 0
0:00:00.00 419256 N 0 0 0
0:00:00.00 419404 N 0 0 0
0:00:00.00 419789 N 0 0 0
0:00:00.00 419976 N 0 0 0
0:00:00.00 420145 N 0 0 0
0:00:00.00 420541 N 0 0 0
0:00:00.00 420721 N 0 0 0
0:00:00.00 421238 N 0 0 0
0:00:00.00 421421 N 0 0 0
0:00:00.00 421929 N 0 0 0
0:00:00.00 422107 N 0 0 0
0:00:00.00 422257 N 0 0 0
0:00:00.00 422647 N 0 0 0
0:00:00.00 422829 N 0 0 0
0:00:00.00 422989 N 0 0 0
0:00:00.00 423358 N 0 0 0
0:00:00.00 423535 N 0 0 0
0:00:00.00 423686 N 0 0 0
0:00:00.00 423950 N 0 0 0
0:00:00.00 424147 N 0 0 0
0:00:00.00 424337 N 0 0 0
0:00:00.00 424505 N 0 0 0
0:00:00.00 424838 N 0 0 0
0:00:00.00 425077 N 0 0 0
0:00:00.00 425264 N 0 0 0
0:00:00.00 425489 N 0 0 0
0:00:00.00 425801 N 0 0 0
0:00:00.00 426008 N 0 0 0
0:00:00.00 426247 N 0 0 0
0:00:00.00 426427 N 0 0 0
0:00:00.00 426611 N 0 0 0
0:00:00.00 426821 N 0 0 0
0:00:00.00 426994 N 0 0 0
0:00:00.00 427163 N 0 0 0
0:00:00.00 427340 N 0 0 0
0:00:00.00 427511 N 0 0 0
0:00:00.00 427680 N 0 0 0
0:00:00.00 427878 N 0 0 0
0:00:00.00 428072 N 0 0 0
0:00:00.00 428391 N 0 0 0
0:00:00.00 428587 N 0 0 0
0:00:00.00 428810 N 0 0 0
0:00:00.00 429019 N 0 0 0
0:00:00.00 429197 N 0 0 0
0:00:00.00 429376 N 0 0 0
0:00:00.00 429547 N 0 0 0
0:00:00.00 429721 N 0 0 0
0:00:00.00 429894 N 0 0 0
0:00:00.00 430079 N 0 0 0
0:00:00.00 430250 N 0 0 0
0:00:00.00 430423 N 0 0 0
0:00:00.00 430596 N 0 0 0
0:00:00.00 430767 N 0 0 0
0:00:00.00 430954 N 0 0 0
0:00:00.00 431138 N 0 0 0
0:00:00.00 431321 N 0 0 0
0:00:00.00 431494 N 0 0 0
0:00:00.00 431678 N 0 0 0
0:00:00.00 431914 N 0 0 0
0:00:00.00 432090 N 0 0 0
0:00:00.00 432261 N 0 0 0
0:00:00.00 432497 N 0 0 0
0:00:00.00 432722 N 0 0 0
0:00:00.00 432920 N 0 0 0
0:00:00.00 433172 N 0 0 0
0:00:00.00 433368 N 0 0 0
0:00:00.00 433548 N 0 0 0
0:00:00.00 433723 N 0 0 0
0:00:00.00 433892 N 0 0 0
0:00:00.00 434052 N 0 0 0
0:00:00.00 434216 N 0 0 0
0:00:00.00 434381 N 0 0 0
0:00:00.00 434543 N 0 0 0
0:00:00.00 434702 N 0 0 0
0:00:00.00 434925 N 0 0 0
0:00:00.00 435146 N 0 0 0
0:00:00.00 435319 N 0 0 0
0:00:00.00 435494 N 0 0 0
0:00:00.00 435665 N 0 0 0
0:00:00.00 435843 N 0 0 0
0:00:00.00 436028 N 0 0 0
0:00:00.00 436196 N 0 0 0
0:00:00.00 436358 N 0 0 0
0:00:00.00 436518 N 0 0 0
0:00:00.00 436682 N 0 0 0
0:00:00.00 436831 N 0 0 0
0:00:00.00 436997 N 0 0 0
0:00:00.00 437179 N 0 0 0
0:00:00.00 437344 N 0 0 0
0:00:00.00 437519 N 0 0 0
0:00:00.00 437692 N 0 0 0
0:00:00.00 437870 N 0 0 0
0:00:00.00 438041 N 0 0 0
0:00:00.00 438221 N 0 0 0
0:00:00.00 438390 N 0 0 0
0:00:00.00 438620 N 0 0 0
0:00:00.00 438800 N 0 0 0
0:00:00.00 439025 N 0 0 0
0:00:00.00 439245 N 0 0 0
0:00:00.00 439418 N 0 0 0
0:00:00.00 439596 N 0 0 0
0:00:00.00 439763 N 0 0 0
0:00:00.00 439938 N 0 0 0
0:00:00.00 440109 N 0 0 0
0:00:00.00 440289 N 0 0 0
0:00:00.00 440456 N 0 0 0
0:00:00.00 440663 N 0 0 0
0:00:00.00 440820 N 0 0 0
0:00:00.00 440984 N 0 0 0
0:00:00.00 441140 N 0 0 0
0:00:00.00 441313 N 0 0 0
0:00:00.00 441482 N 0 0 0
0:00:00.00 441738 N 0 0 0
0:00:00.00 441904 N 0 0 0
0:00:00.00 442089 N 0 0 0
0:00:00.00 442300 N 0 0 0
0:00:00.00 442478 N 0 0 0
0:00:00.00 442708 N 0 0 0
0:00:00.00 442915 N 0 0 0
0:00:00.00 443122 N 0 0 0
0:00:00.00 443327 N 0 0 0
0:00:00.00 443516 N 0 0 0
0:00:00.00 443770 N 0 0 0
0:00:00.00 443979 N 0 0 0
0:00:00.00 444213 N 0 0 0
0:00:00.00 444422 N 0 0 0
0:00:00.00 444643 N 0 0 0
0:00:00.00 444874 N 0 0 0
0:00:00.00 445028 N 0 0 0
0:00:00.00 445270 N 0 0 0
0:00:00.00 445423 N 0 0 0
0:00:00.00 445583 N 0 0 0
0:00:00.00 445736 N 0 0 0
0:00:00.00 445898 N 0 0 0
0:00:00.00 446067 N 0 0 0
0:00:00.00 446236 N 0 0 0
0:00:00.00 446398 N 0 0 0
0:00:00.00 446576 N 0 0 0
0:00:00.00 446738 N 0 0 0
0:00:00.00 446971 N 0 0 0
0:00:00.00 447131 N 0 0 0
0:00:00.00 447291 N 0 0 0
0:00:00.00 447523 N 0 0 0
0:00:00.00 447705 N 0 0 0
0:00:00.00 447921 N 0 0 0
0:00:00.00 448175 N 0 0 0
0:00:00.00 448349 N 0 0 0
0:00:00.00 448526 N 0 0 0
0:00:00.00 448819 N 0 0 0
0:00:00.00 448988 N 0 0 0
0:00:00.00 449145 N 0 0 0
0:00:00.00 449298 N 0 0 0
0:00:00.00 449451 N 0 0 0
0:00:00.00 449606 N 0 0 0
0:00:00.00 449761 N 0 0 0
0:00:00.00 449917 N 0 0 0
0:00:00.00 450076 N 0 0 0
0:00:00.00 450232 N 0 0 0
0:00:00.00 450396 N 0 0 0
0:00:00.00 450562 N 0 0 0
0:00:00.00 450725 N 0 0 0
0:00:00.00 450905 N 0 0 0
0:00:00.00 451075 N 0 0 0
0:00:00.00 451226 N 0 0 0
0:00:00.00 451384 N 0 0 0
0:00:00.00 451537 N 0 0 0
0:00:00.00 451697 N 0 0 0
0:00:00.00 451870 N 0 0 0
0:00:00.00 452079 N 0 0 0
0:00:00.00 452255 N 0 0 0
0:00:00.00 452466 N 0 0 0
0:00:00.00 452641 N 0 0 0
0:00:00.00 452810 N 0 0 0
0:00:00.00 452977 N 0 0 0
0:00:00.00 453136 N 0 0 0
0:00:00.00 453296 N 0 0 0
0:00:00.00 453454 N 0 0 0
0:00:00.00 453609 N 0 0 0
0:00:00.00 453764 N 0 0 0
0:00:00.00 453985 N 0 0 0
0:00:00.00 454313 N 0 0 0
0:00:00.00 454532 N 0 0 0
0:00:00.00 454705 N 0 0 0
0:00:00.00 454869 N 0 0 0
0:00:00.00 455031 N 0 0 0
0:00:00.00 455197 N 0 0 0
0:00:00.00 455357 N 0 0 0
0:00:00.00 455521 N 0 0 0
0:00:00.00 455674 N 0 0 0
0:00:00.00 455827 N 0 0 0
0:00:00.00 455990 N 0 0 0
0:00:00.00 456161 N 0 0 0
0:00:00.00 456307 N 0 0 0
0:00:00.00 456458 N 0 0 0
0:00:00.00 456631 N 0 0 0
0:00:00.00 456802 N 0 0 0
0:00:00.00 456975 N 0 0 0
0:00:00.00 457285 N 0 0 0
0:00:00.00 457459 N 0 0 0
0:00:00.00 457760 N 0 0 0
0:00:00.00 457915 N 0 0 0
0:00:00.00 458073 N 0 0 0
0:00:00.00 458217 N 0 0 0
0:00:00.00 458365 N 0 0 0
0:00:00.00 458509 N 0 0 0
0:00:00.00 458676 N 0 0 0
0:00:00.00 458977 N 0 0 0
0:00:00.00 459144 N 0 0 0
0:00:00.00 459311 N 0 0 0
0:00:00.00 459473 N 0 0 0
0:00:00.00 459655 N 0 0 0
0:00:00.00 459821 N 0 0 0
0:00:00.00 460260 N 0 0 0
0:00:00.00 460408 N 0 0 0
0:00:00.00 460568 N 0 0 0
0:00:00.00 460865 N 0 0 0
0:00:00.00 461039 N 0 0 0
0:00:00.00 461201 N 0 0 0
0:00:00.00 461369 N 0 0 0
0:00:00.00 461524 N 0 0 0
0:00:00.00 461684 N 0 0 0
0:00:00.00 461840 N 0 0 0
0:00:00.00 461997 N 0 0 0
0:00:00.00 462154 N 0 0 0
0:00:00.00 462305 N 0 0 0
0:00:00.00 462454 N 0 0 0
0:00:00.00 462607 N 0 0 0
0:00:00.00 462757 N 0 0 0
0:00:00.00 462935 N 0 0 0
0:00:00.00 463093 N 0 0 0
0:00:00.00 463259 N 0 0 0
0:00:00.00 463412 N 0 0 0
0:00:00.00 463572 N 0 0 0
0:00:00.00 463725 N 0 0 0
0:00:00.00 463889 N 0 0 0
0:00:00.00 464049 N 0 0 0
0:00:00.00 464206 N 0 0 0
0:00:00.00 464366 N 0 0 0
0:00:00.00 464519 N 0 0 0
0:00:00.00 464661 N 0 0 0
0:00:00.00 464866 N 0 0 0
0:00:00.00 465246 N 0 0 0
0:00:00.00 465820 N 0 0 0
0:00:00.00 466319 N 0 0 0
0:00:00.00 466481 N 0 0 0
0:00:00.00 467069 N 0 0 0
0:00:00.00 467237 N 0 0 0
0:00:00.00 467422 N 0 0 0
0:00:00.00 467872 N 0 0 0
0:00:00.00 468045 N 0 0 0
0:00:00.00 468607 N 0 0 0
0:00:00.00 468774 N 0 0 0
0:00:00.00 468936 N 0 0 0
0:00:00.00 469255 N 0 0 0
0:00:00.00 469487 N 0 0 0
0:00:00.00 469771 N 0 0 0
0:00:00.00 469989 N 0 0 0
0:00:00.00 470164 N 0 0 0
0:00:00.00 470353 N 0 0 0
0:00:00.00 470605 N 0 0 0
0:00:00.00 471067 N 0 0 0
0:00:00.00 471321 N 0 0 0
0:00:00.00 471514 N 0 0 0
0:00:00.00 471726 N 0 0 0
0:00:00.00 472021 N 0 0 0
0:00:00.00 472198 N 0 0 0
0:00:00.00 472356 N 0 0 0
0:00:00.00 472662 N 0 0 0
0:00:00.00 472977 N 0 0 0
0:00:00.00 473152 N 0 0 0
0:00:00.00 473440 N 0 0 0
0:00:00.00 473713 N 0 0 0
0:00:00.00 473913 N 0 0 0
0:00:00.00 474077 N 0 0 0
0:00:00.00 474408 N 0 0 0
0:00:00.00 474671 N 0 0 0
0:00:00.00 474836 N 0 0 0
0:00:00.00 474998 N 0 0 0
0:00:00.00 475139 N 0 0 0
0:00:00.00 475412 N 0 0 0
0:00:00.00 475639 N 0 0 0
0:00:00.00 475821 N 0 0 0
0:00:00.00 476030 N 0 0 0
0:00:00.00 476246 N 0 0 0
0:00:00.00 476433 N 0 0 0
0:00:00.00 476645 N 0 0 0
0:00:00.00 476804 N 0 0 0
0:00:00.00 476973 N 0 0 0
0:00:00.00 477238 N 0 0 0
0:00:00.00 477436 N 0 0 0
0:00:00.00 477572 N 0 0 0
0:00:00.00 477733 N 0 0 0
0:00:00.00 477945 N 0 0 0
0:00:00.00 478184 N 0 0 0
0:00:00.00 478451 N 0 0 0
0:00:00.00 478615 N 0 0 0
0:00:00.00 478825 N 0 0 0
0:00:00.00 478984 N 0 0 0
0:00:00.00 479223 N 0 0 0
0:00:00.00 479378 N 0 0 0
0:00:00.00 479713 N 0 0 0
0:00:00.00 479927 N 0 0 0
0:00:00.00 480188 N 0 0 0
0:00:00.00 480447 N 0 0 0
0:00:00.00 480742 N 0 0 0
0:00:00.00 480946 N 0 0 0
0:00:00.00 481178 N 0 0 0
0:00:00.00 481356 N 0 0 0
0:00:00.00 481583 N 0 0 0
0:00:00.00 481766 N 0 0 0
0:00:00.00 482252 N 0 0 0
0:00:00.00 482580 N 0 0 0
0:00:00.00 482782 N 0 0 0
0:00:00.00 483179 N 0 0 0
0:00:00.00 483383 N 0 0 0
0:00:00.00 483521 N 0 0 0
0:00:00.00 483728 N 0 0 0
0:00:00.00 483952 N 0 0 0
0:00:00.00 484200 N 0 0 0
0:00:00.00 484474 N 0 0 0
0:00:00.00 484742 N 0 0 0
0:00:00.00 485032 N 0 0 0
0:00:00.00 485291 N 0 0 0
0:00:00.00 485449 N 0 0 0
0:00:00.00 485708 N 0 0 0
0:00:00.00 485930 N 0 0 0
0:00:00.00 486196 N 0 0 0
0:00:00.00 486396 N 0 0 0
0:00:00.00 486643 N 0 0 0
0:00:00.00 486932 N 0 0 0
0:00:00.00 487217 N 0 0 0
0:00:00.00 487499 N 0 0 0
0:00:00.00 487679 N 0 0 0
0:00:00.00 487966 N 0 0 0
0:00:00.00 488302 N 0 0 0
0:00:00.00 488500 N 0 0 0
0:00:00.00 488698 N 0 0 0
0:00:00.00 489022 N 0 0 0
0:00:00.00 489236 N 0 0 0
0:00:00.00 489476 N 0 0 0
0:00:00.00 489681 N 0 0 0
0:00:00.00 489946 N 0 0 0
0:00:00.00 490180 N 0 0 0
0:00:00.00 490381 N 0 0 0
0:00:00.00 490640 N 0 0 0
0:00:00.00 490815 N 0 0 0
0:00:00.00 490979 N 0 0 0
0:00:00.00 491281 N 0 0 0
0:00:00.00 491512 N 0 0 0
0:00:00.00 491706 N 0 0 0
0:00:00.00 491944 N 0 0 0
0:00:00.00 492109 N 0 0 0
0:00:00.00 492311 N 0 0 0
0:00:00.00 492592 N 0 0 0
0:00:00.00 492851 N 0 0 0
0:00:00.00 493083 N 0 0 0
0:00:00.00 493290 N 0 0 0
0:00:00.00 493531 N 0 0 0
0:00:00.00 493801 N 0 0 0
0:00:00.00 494014 N 0 0 0
0:00:00.00 494219 N 0 0 0
0:00:00.00 494386 N 0 0 0
0:00:00.00 494613 N 0 0 0
0:00:00.00 494879 N 0 0 0
0:00:00.00 495302 N 0 0 0
0:00:00.00 495572 N 0 0 0
0:00:00.00 495875 N 0 0 0
0:00:00.00 496147 N 0 0 0
0:00:00.00 496408 N 0 0 0
0:00:00.00 496638 N 0 0 0
0:00:00.00 496930 N 0 0 0
0:00:00.00 497205 N 0 0 0
0:00:00.00 497414 N 0 0 0
0:00:00.00 497740 N 0 0 0
0:00:00.00 497943 N 0 0 0
0:00:00.00 498175 N 0 0 0
0:00:00.00 498343 N 0 0 0
0:00:00.00 498591 N 0 0 0
0:00:00.00 498776 N 0 0 0
0:00:00.00 498989 N 0 0 0
0:00:00.00 499203 N 0 0 0
0:00:00.00 499468 N 0 0 0
0:00:00.00 499689 N 0 0 0
0:00:00.00 500018 N 0 0 0
0:00:00.00 500454 N 0 0 0
0:00:00.00 500769 N 0 0 0
0:00:00.00 500987 N 0 0 0
0:00:00.00 501253 N 0 0 0
0:00:00.00 501548 N 0 0 0
0:00:00.00 501723 N 0 0 0
0:00:00.00 502011 N 0 0 0
0:00:00.00 502214 N 0 0 0
0:00:00.00 502432 N 0 0 0
0:00:00.00 502684 N 0 0 0
0:00:00.00 502873 N 0 0 0
0:00:00.00 503122 N 0 0 0
0:00:00.00 503276 N 0 0 0
0:00:00.00 503438 N 0 0 0
0:00:00.00 503665 N 0 0 0
0:00:00.00 503899 N 0 0 0
0:00:00.00 504074 N 0 0 0
0:00:00.00 504301 N 0 0 0
0:00:00.00 504679 N 0 0 0
0:00:00.00 504877 N 0 0 0
0:00:00.00 505150 N 0 0 0
0:00:00.00 505334 N 0 0 0
0:00:00.00 505516 N 0 0 0
0:00:00.00 505670 N 0 0 0
0:00:00.00 505874 N 0 0 0
0:00:00.00 506036 N 0 0 0
0:00:00.00 506250 N 0 0 0
0:00:00.00 506536 N 0 0 0
0:00:00.00 506835 N 0 0 0
0:00:00.00 507065 N 0 0 0
0:00:00.00 507294 N 0 0 0
0:00:00.00 507530 N 0 0 0
0:00:00.00 507821 N 0 0 0
0:00:00.00 508005 N 0 0 0
0:00:00.00 508246 N 0 0 0
0:00:00.00 508457 N 0 0 0
0:00:00.00 508729 N 0 0 0
0:00:00.00 508970 N 0 0 0
0:00:00.00 509152 N 0 0 0
0:00:00.00 509378 N 0 0 0
0:00:00.00 509692 N 0 0 0
0:00:00.00 509918 N 0 0 0
0:00:00.00 510165 N 0 0 0
0:00:00.00 510320 N 0 0 0
0:00:00.00 510566 N 0 0 0
0:00:00.00 510811 N 0 0 0
0:00:00.00 510984 N 0 0 0
0:00:00.00 511193 N 0 0 0
0:00:00.00 511396 N 0 0 0
0:00:00.00 511618 N 0 0 0
0:00:00.00 511839 N 0 0 0
0:00:00.00 512003 N 0 0 0
0:00:00.00 512212 N 0 0 0
0:00:00.00 512424 N 0 0 0
0:00:00.00 512584 N 0 0 0
0:00:00.00 512851 N 0 0 0
0:00:00.00 513018 N 0 0 0
0:00:00.00 513265 N 0 0 0
0:00:00.00 513526 N 0 0 0
0:00:00.00 513832 N 0 0 0
0:00:00.00 514123 N 0 0 0
0:00:00.00 514368 N 0 0 0
0:00:00.00 514645 N 0 0 0
0:00:00.00 514867 N 0 0 0
0:00:00.00 515090 N 0 0 0
0:00:00.00 515414 N 0 0 0
0:00:00.00 515693 N 0 0 0
0:00:00.00 515903 N 0 0 0
0:00:00.00 516127 N 0 0 0
0:00:00.00 516413 N 0 0 0
0:00:00.00 516647 N 0 0 0
0:00:00.00 516893 N 0 0 0
0:00:00.00 517118 N 0 0 0
0:00:00.00 517354 N 0 0 0
0:00:00.00 517588 N 0 0 0
0:00:00.00 517883 N 0 0 0
0:00:00.00 518204 N 0 0 0
0:00:00.00 518438 N 0 0 0
0:00:00.00 518598 N 0 0 0
0:00:00.00 518850 N 0 0 0
0:00:00.00 519050 N 0 0 0
0:00:00.00 519280 N 0 0 0
0:00:00.00 519552 N 0 0 0
0:00:00.00 519849 N 0 0 0
0:00:00.00 520076 N 0 0 0
0:00:00.00 520304 N 0 0 0
0:00:00.00 520492 N 0 0 0
0:00:00.00 520726 N 0 0 0
0:00:00.00 520970 N 0 0 0
0:00:00.00 521271 N 0 0 0
0:00:00.00 521537 N 0 0 0
0:00:00.00 521766 N 0 0 0
0:00:00.00 522011 N 0 0 0
0:00:00.00 522270 N 0 0 0
0:00:00.00 522502 N 0 0 0
0:00:00.00 522677 N 0 0 0
0:00:00.00 522936 N 0 0 0
0:00:00.00 523273 N 0 0 0
0:00:00.00 523467 N 0 0 0
0:00:00.00 523818 N 0 0 0
0:00:00.00 524021 N 0 0 0
0:00:00.00 524254 N 0 0 0
0:00:00.00 524477 N 0 0 0
0:00:00.00 524630 N 0 0 0
0:00:00.00 524860 N 0 0 0
0:00:00.00 525056 N 0 0 0
0:00:00.00 525283 N 0 0 0
0:00:00.00 525458 N 0 0 0
0:00:00.00 525668 N 0 0 0
0:00:00.00 525908 N 0 0 0
0:00:00.00 526136 N 0 0 0
0:00:00.00 526298 N 0 0 0
0:00:00.00 526487 N 0 0 0
0:00:00.00 526651 N 0 0 0
0:00:00.00 526968 N 0 0 0
0:00:00.00 527222 N 0 0 0
0:00:00.00 527423 N 0 0 0
0:00:00.00 527589 N 0 0 0
0:00:00.00 527747 N 0 0 0
0:00:00.00 527978 N 0 0 0
0:00:00.00 528169 N 0 0 0
0:00:00.00 528311 N 0 0 0
0:00:00.00 528548 N 0 0 0
0:00:00.00 528781 N 0 0 0
0:00:00.00 528982 N 0 0 0
0:00:00.00 529252 N 0 0 0
0:00:00.00 529402 N 0 0 0
0:00:00.00 529574 N 0 0 0
0:00:00.00 529826 N 0 0 0
0:00:00.00 530138 N 0 0 0
0:00:00.00 530406 N 0 0 0
0:00:00.00 530696 N 0 0 0
0:00:00.00 530912 N 0 0 0
0:00:00.00 531223 N 0 0 0
0:00:00.00 531396 N 0 0 0
0:00:00.00 531614 N 0 0 0
0:00:00.00 531878 N 0 0 0
0:00:00.00 532273 N 0 0 0
0:00:00.00 532591 N 0 0 0
0:00:00.00 532805 N 0 0 0
0:00:00.00 533083 N 0 0 0
0:00:00.00 533290 N 0 0 0
0:00:00.00 533592 N 0 0 0
0:00:00.00 533821 N 0 0 0
0:00:00.00 533965 N 0 0 0
0:00:00.00 534125 N 0 0 0
0:00:00.00 534361 N 0 0 0
0:00:00.00 534548 N 0 0 0
0:00:00.00 534827 N 0 0 0
0:00:00.00 535003 N 0 0 0
0:00:00.00 535252 N 0 0 0
0:00:00.00 535574 N 0 0 0
0:00:00.00 535905 N 0 0 0
0:00:00.00 536094 N 0 0 0
0:00:00.00 536249 N 0 0 0
0:00:00.00 536425 N 0 0 0
0:00:00.00 536738 N 0 0 0
0:00:00.00 536987 N 0 0 0
0:00:00.00 537206 N 0 0 0
0:00:00.00 537404 N 0 0 0
0:00:00.00 537676 N 0 0 0
0:00:00.00 537934 N 0 0 0
0:00:00.00 538096 N 0 0 0
0:00:00.00 538303 N 0 0 0
0:00:00.00 538490 N 0 0 0
0:00:00.00 538742 N 0 0 0
0:00:00.00 538985 N 0 0 0
0:00:00.00 539282 N 0 0 0
0:00:00.00 539590 N 0 0 0
0:00:00.00 539845 N 0 0 0
0:00:00.00 540054 N 0 0 0
0:00:00.00 540198 N 0 0 0
0:00:00.00 540506 N 0 0 0
0:00:00.00 540790 N 0 0 0
0:00:00.00 541138 N 0 0 0
0:00:00.00 541373 N 0 0 0
0:00:00.00 541678 N 0 0 0
0:00:00.00 541957 N 0 0 0
0:00:00.00 542245 N 0 0 0
0:00:00.00 542432 N 0 0 0
0:00:00.00 542799 N 0 0 0
0:00:00.00 543040 N 0 0 0
0:00:00.00 543285 N 0 0 0
0:00:00.00 543472 N 0 0 0
0:00:00.00 543677 N 0 0 0
0:00:00.00 543899 N 0 0 0
0:00:00.00 544113 N 0 0 0
0:00:00.00 544340 N 0 0 0
0:00:00.00 544608 N 0 0 0
0:00:00.00 544849 N 0 0 0
0:00:00.00 545004 N 0 0 0
0:00:00.00 545305 N 0 0 0
0:00:00.00 545562 N 0 0 0
0:00:00.00 545789 N 0 0 0
0:00:00.00 546048 N 0 0 0
0:00:00.00 546289 N 0 0 0
0:00:00.00 546534 N 0 0 0
0:00:00.00 546777 N 0 0 0
0:00:00.00 547074 N 0 0 0
0:00:00.00 547353 N 0 0 0
0:00:00.00 547533 N 0 0 0
0:00:00.00 547801 N 0 0 0
0:00:00.00 548095 N 0 0 0
0:00:00.00 548269 N 0 0 0
0:00:00.00 548561 N 0 0 0
0:00:00.00 548762 N 0 0 0
0:00:00.00 549009 N 0 0 0
0:00:00.00 549178 N 0 0 0
0:00:00.00 549409 N 0 0 0
0:00:00.00 549682 N 0 0 0
0:00:00.00 549943 N 0 0 0
0:00:00.00 550156 N 0 0 0
0:00:00.00 550330 N 0 0 0
0:00:00.00 550507 N 0 0 0
0:00:00.00 550710 N 0 0 0
0:00:00.00 550868 N 0 0 0
0:00:00.00 551036 N 0 0 0
0:00:00.00 551198 N 0 0 0
0:00:00.00 551358 N 0 0 0
0:00:00.00 551522 N 0 0 0
0:00:00.00 551689 N 0 0 0
0:00:00.00 551862 N 0 0 0
0:00:00.00 552037 N 0 0 0
0:00:00.00 552199 N 0 0 0
0:00:00.00 552368 N 0 0 0
0:00:00.00 552528 N 0 0 0
0:00:00.00 552690 N 0 0 0
0:00:00.00 552852 N 0 0 0
0:00:00.00 553014 N 0 0 0
0:00:00.00 553180 N 0 0 0
0:00:00.00 553342 N 0 0 0
0:00:00.00 553507 N 0 0 0
0:00:00.00 553680 N 0 0 0
0:00:00.00 553849 N 0 0 0
0:00:00.00 554024 N 0 0 0
0:00:00.00 554200 N 0 0 0
0:00:00.00 554377 N 0 0 0
0:00:00.00 554564 N 0 0 0
0:00:00.00 554807 N 0 0 0
0:00:00.00 555021 N 0 0 0
0:00:00.00 555188 N 0 0 0
0:00:00.00 555345 N 0 0 0
0:00:00.00 555503 N 0 0 0
0:00:00.00 555667 N 0 0 0
0:00:00.00 555824 N 0 0 0
0:00:00.00 555986 N 0 0 0
0:00:00.00 556155 N 0 0 0
0:00:00.00 556328 N 0 0 0
0:00:00.00 556504 N 0 0 0
0:00:00.00 556675 N 0 0 0
0:00:00.00 556841 N 0 0 0
0:00:00.00 557006 N 0 0 0
0:00:00.00 557165 N 0 0 0
0:00:00.00 557320 N 0 0 0
0:00:00.00 557476 N 0 0 0
0:00:00.00 557633 N 0 0 0
0:00:00.00 557791 N 0 0 0
0:00:00.00 557948 N 0 0 0
0:00:00.00 558112 N 0 0 0
0:00:00.00 558281 N 0 0 0
0:00:00.00 558452 N 0 0 0
0:00:00.00 558625 N 0 0 0
0:00:00.00 558788 N 0 0 0
0:00:00.00 558954 N 0 0 0
0:00:00.00 559118 N 0 0 0
0:00:00.00 559276 N 0 0 0
0:00:00.00 559433 N 0 0 0
0:00:00.00 559588 N 0 0 0
0:00:00.00 559744 N 0 0 0
0:00:00.00 559904 N 0 0 0
0:00:00.00 560063 N 0 0 0
0:00:00.00 560230 N 0 0 0
0:00:00.00 560398 N 0 0 0
0:00:00.00 560561 N 0 0 0
0:00:00.00 560729 N 0 0 0
0:00:00.00 560894 N 0 0 0
0:00:00.00 561060 N 0 0 0
0:00:00.00 561224 N 0 0 0
0:00:00.00 561382 N 0 0 0
0:00:00.00 561544 N 0 0 0
0:00:00.00 561699 N 0 0 0
0:00:00.00 561856 N 0 0 0
0:00:00.00 562012 N 0 0 0
0:00:00.00 562167 N 0 0 0
0:00:00.00 562329 N 0 0 0
0:00:00.00 562491 N 0 0 0
0:00:00.00 562640 N 0 0 0
0:00:00.00 562806 N 0 0 0
0:00:00.00 562968 N 0 0 0
0:00:00.00 563135 N 0 0 0
0:00:00.00 563303 N 0 0 0
0:00:00.00 563459 N 0 0 0
0:00:00.00 563618 N 0 0 0
0:00:00.00 563767 N 0 0 0
0:00:00.00 563915 N 0 0 0
0:00:00.00 564070 N 0 0 0
0:00:00.00 564224 N 0 0 0
0:00:00.00 564381 N 0 0 0
0:00:00.00 564534 N 0 0 0
0:00:00.00 564694 N 0 0 0
0:00:00.00 564860 N 0 0 0
0:00:00.00 565029 N 0 0 0
0:00:00.00 565196 N 0 0 0
0:00:00.00 565362 N 0 0 0
0:00:00.00 565520 N 0 0 0
0:00:00.00 565677 N 0 0 0
0:00:00.00 565834 N 0 0 0
0:00:00.00 565985 N 0 0 0
0:00:00.00 566138 N 0 0 0
0:00:00.00 566293 N 0 0 0
0:00:00.00 566447 N 0 0 0
0:00:00.00 566606 N 0 0 0
0:00:00.00 566764 N 0 0 0
0:00:00.00 566926 N 0 0 0
0:00:00.00 567157 N 0 0 0
0:00:00.00 567385 N 0 0 0
0:00:00.00 567643 N 0 0 0
0:00:00.00 567866 N 0 0 0
0:00:00.00 568075 N 0 0 0
0:00:00.00 568354 N 0 0 0
0:00:00.00 568586 N 0 0 0
0:00:00.00 568773 N 0 0 0
0:00:00.00 569068 N 0 0 0
0:00:00.00 569315 N 0 0 0
0:00:00.00 569509 N 0 0 0
0:00:00.00 569894 N 0 0 0
0:00:00.00 570465 N 0 0 0
0:00:00.00 570722 N 0 0 0
0:00:00.00 570911 N 0 0 0
0:00:00.00 571244 N 0 0 0
0:00:00.00 571520 N 0 0 0
0:00:00.00 571799 N 0 0 0
0:00:00.00 572051 N 0 0 0
0:00:00.00 572258 N 0 0 0
0:00:00.00 572409 N 0 0 0
0:00:00.00 572630 N 0 0 0
0:00:00.00 572839 N 0 0 0
0:00:00.00 573214 N 0 0 0
0:00:00.00 573426 N 0 0 0
0:00:00.00 573669 N 0 0 0
0:00:00.00 573923 N 0 0 0
0:00:00.00 574124 N 0 0 0
0:00:00.00 574364 N 0 0 0
0:00:00.00 574589 N 0 0 0
0:00:00.00 574846 N 0 0 0
0:00:00.00 575100 N 0 0 0
0:00:00.00 575296 N 0 0 0
0:00:00.00 575471 N 0 0 0
0:00:00.00 575705 N 0 0 0
0:00:00.00 575986 N 0 0 0
0:00:00.00 576241 N 0 0 0
0:00:00.00 576389 N 0 0 0
0:00:00.00 576707 N 0 0 0
0:00:00.00 576947 N 0 0 0
0:00:00.00 577118 N 0 0 0
0:00:00.00 577391 N 0 0 0
0:00:00.00 577642 N 0 0 0
0:00:00.00 577894 N 0 0 0
0:00:00.00 578236 N 0 0 0
0:00:00.00 578484 N 0 0 0
0:00:00.00 578783 N 0 0 0
0:00:00.00 578974 N 0 0 0
0:00:00.00 579163 N 0 0 0
0:00:00.00 579440 N 0 0 0
0:00:00.00 579751 N 0 0 0
0:00:00.00 580084 N 0 0 0
0:00:00.00 580342 N 0 0 0
0:00:00.00 580588 N 0 0 0
0:00:00.00 580730 N 0 0 0
0:00:00.00 581000 N 0 0 0
0:00:00.00 581186 N 0 0 0
0:00:00.00 581402 N 0 0 0
0:00:00.00 581697 N 0 0 0
0:00:00.00 581926 N 0 0 0
0:00:00.00 582201 N 0 0 0
0:00:00.00 582377 N 0 0 0
0:00:00.00 582530 N 0 0 0
0:00:00.00 582669 N 0 0 0
0:00:00.00 582838 N 0 0 0
0:00:00.00 583060 N 0 0 0
0:00:00.00 583268 N 0 0 0
0:00:00.00 583490 N 0 0 0
0:00:00.00 583695 N 0 0 0
0:00:00.00 584055 N 0 0 0
0:00:00.00 584320 N 0 0 0
0:00:00.00 584620 N 0 0 0
0:00:00.00 584881 N 0 0 0
0:00:00.00 585083 N 0 0 0
0:00:00.00 585310 N 0 0 0
0:00:00.00 585470 N 0 0 0
0:00:00.00 585623 N 0 0 0
0:00:00.00 585817 N 0 0 0
0:00:00.00 586042 N 0 0 0
0:00:00.00 586260 N 0 0 0
0:00:00.00 586525 N 0 0 0
0:00:00.00 586706 N 0 0 0
0:00:00.00 586876 N 0 0 0
0:00:00.00 587137 N 0 0 0
0:00:00.00 587299 N 0 0 0
0:00:00.00 587592 N 0 0 0
0:00:00.00 587801 N 0 0 0
0:00:00.00 588047 N 0 0 0
0:00:00.00 588393 N 0 0 0
0:00:00.00 588721 N 0 0 0
0:00:00.00 589043 N 0 0 0
0:00:00.00 589315 N 0 0 0
0:00:00.00 589543 N 0 0 0
0:00:00.00 589754 N 0 0 0
0:00:00.00 589973 N 0 0 0
0:00:00.00 590315 N 0 0 0
0:00:00.00 590575 N 0 0 0
0:00:00.00 590792 N 0 0 0
0:00:00.00 591053 N 0 0 0
0:00:00.00 591223 N 0 0 0
0:00:00.00 591539 N 0 0 0
0:00:00.00 591757 N 0 0 0
0:00:00.00 591988 N 0 0 0
0:00:00.00 592236 N 0 0 0
0:00:00.00 592625 N 0 0 0
0:00:00.00 592893 N 0 0 0
0:00:00.00 593147 N 0 0 0
0:00:00.00 593424 N 0 0 0
0:00:00.00 593669 N 0 0 0
0:00:00.00 593863 N 0 0 0
0:00:00.00 594101 N 0 0 0
0:00:00.00 594270 N 0 0 0
0:00:00.00 594477 N 0 0 0
0:00:00.00 594718 N 0 0 0
0:00:00.00 595058 N 0 0 0
0:00:00.00 595282 N 0 0 0
0:00:00.00 595481 N 0 0 0
0:00:00.00 595813 N 0 0 0
0:00:00.00 596021 N 0 0 0
0:00:00.00 596281 N 0 0 0
0:00:00.00 596506 N 0 0 0
0:00:00.00 596714 N 0 0 0
0:00:00.00 596853 N 0 0 0
0:00:00.00 597146 N 0 0 0
0:00:00.00 597415 N 0 0 0
0:00:00.00 597667 N 0 0 0
0:00:00.00 597958 N 0 0 0
0:00:00.00 598232 N 0 0 0
0:00:00.00 598433 N 0 0 0
0:00:00.00 598684 N 0 0 0
0:00:00.00 598855 N 0 0 0
0:00:00.00 599197 N 0 0 0
0:00:00.00 599393 N 0 0 0
0:00:00.00 599629 N 0 0 0
0:00:00.00 599800 N 0 0 0
0:00:00.00 600070 N 0 0 0
0:00:00.00 600358 N 0 0 0
0:00:00.00 600613 N 0 0 0
0:00:00.00 600831 N 0 0 0
0:00:00.00 601094 N 0 0 0
0:00:00.00 601468 N 0 0 0
0:00:00.00 601727 N 0 0 0
0:00:00.00 601960 N 0 0 0
0:00:00.00 602215 N 0 0 0
0:00:00.00 602374 N 0 0 0
0:00:00.00 602667 N 0 0 0
0:00:00.00 602896 N 0 0 0
0:00:00.00 603155 N 0 0 0
0:00:00.00 603463 N 0 0 0
0:00:00.00 603662 N 0 0 0
0:00:00.00 604004 N 0 0 0
0:00:00.00 604213 N 0 0 0
0:00:00.00 604408 N 0 0 0
0:00:00.00 604670 N 0 0 0
0:00:00.00 604894 N 0 0 0
0:00:00.00 605261 N 0 0 0
0:00:00.00 605434 N 0 0 0
0:00:00.00 605691 N 0 0 0
0:00:00.00 605959 N 0 0 0
0:00:00.00 606226 N 0 0 0
0:00:00.00 606566 N 0 0 0
0:00:00.00 606778 N 0 0 0
0:00:00.00 607048 N 0 0 0
0:00:00.00 607270 N 0 0 0
0:00:00.00 607468 N 0 0 0
0:00:00.00 607660 N 0 0 0
0:00:00.00 607858 N 0 0 0
0:00:00.00 608188 N 0 0 0
0:00:00.00 608360 N 0 0 0
0:00:00.00 608558 N 0 0 0
0:00:00.00 608834 N 0 0 0
0:00:00.00 609071 N 0 0 0
0:00:00.00 609268 N 0 0 0
0:00:00.00 609530 N 0 0 0
0:00:00.00 609752 N 0 0 0
0:00:00.00 609908 N 0 0 0
0:00:00.00 610160 N 0 0 0
0:00:00.00 610402 N 0 0 0
0:00:00.00 610695 N 0 0 0
0:00:00.00 611086 N 0 0 0
0:00:00.00 611300 N 0 0 0
0:00:00.00 611478 N 0 0 0
0:00:00.00 611726 N 0 0 0
0:00:00.00 611982 N 0 0 0
0:00:00.00 612162 N 0 0 0
0:00:00.00 612385 N 0 0 0
0:00:00.00 612693 N 0 0 0
0:00:00.00 612994 N 0 0 0
0:00:00.00 613184 N 0 0 0
0:00:00.00 613402 N 0 0 0
0:00:00.00 613580 N 0 0 0
0:00:00.00 613804 N 0 0 0
0:00:00.00 614039 N 0 0 0
0:00:00.00 614212 N 0 0 0
0:00:00.00 614511 N 0 0 0
0:00:00.00 614830 N 0 0 0
0:00:00.00 615118 N 0 0 0
0:00:00.00 615407 N 0 0 0
0:00:00.00 615688 N 0 0 0
0:00:00.00 615938 N 0 0 0
0:00:00.00 616257 N 0 0 0
0:00:00.00 616513 N 0 0 0
0:00:00.00 616759 N 0 0 0
0:00:00.00 616986 N 0 0 0
0:00:00.00 617171 N 0 0 0
0:00:00.00 617454 N 0 0 0
0:00:00.00 617742 N 0 0 0
0:00:00.00 618044 N 0 0 0
0:00:00.00 618221 N 0 0 0
0:00:00.00 618523 N 0 0 0
0:00:00.00 618689 N 0 0 0
0:00:00.00 619007 N 0 0 0
0:00:00.00 619348 N 0 0 0
0:00:00.00 619544 N 0 0 0
0:00:00.00 619841 N 0 0 0
0:00:00.00 620087 N 0 0 0
0:00:00.00 620314 N 0 0 0
0:00:00.00 620620 N 0 0 0
0:00:00.00 620833 N 0 0 0
0:00:00.00 621032 N 0 0 0
0:00:00.00 621349 N 0 0 0
0:00:00.00 621621 N 0 0 0
0:00:00.00 621914 N 0 0 0
0:00:00.00 622147 N 0 0 0
0:00:00.00 622449 N 0 0 0
0:00:00.00 622694 N 0 0 0
0:00:00.00 622863 N 0 0 0
0:00:00.00 623086 N 0 0 0
0:00:00.00 623340 N 0 0 0
0:00:00.00 623597 N 0 0 0
0:00:00.00 623855 N 0 0 0
0:00:00.00 624037 N 0 0 0
0:00:00.00 624377 N 0 0 0
0:00:00.00 624551 N 0 0 0
0:00:00.00 624758 N 0 0 0
0:00:00.00 624899 N 0 0 0
0:00:00.00 625041 N 0 0 0
0:00:00.00 625205 N 0 0 0
0:00:00.00 625450 N 0 0 0
0:00:00.00 625637 N 0 0 0
0:00:00.00 625919 N 0 0 0
0:00:00.00 626177 N 0 0 0
0:00:00.00 626553 N 0 0 0
0:00:00.00 626755 N 0 0 0
0:00:00.00 626960 N 0 0 0
0:00:00.00 627158 N 0 0 0
0:00:00.00 627374 N 0 0 0
0:00:00.00 627647 N 0 0 0
0:00:00.00 627867 N 0 0 0
0:00:00.00 628097 N 0 0 0
0:00:00.00 628308 N 0 0 0
0:00:00.00 628511 N 0 0 0
0:00:00.00 628785 N 0 0 0
0:00:00.00 629026 N 0 0 0
0:00:00.00 629350 N 0 0 0
0:00:00.00 629566 N 0 0 0
0:00:00.00 629851 N 0 0 0
0:00:00.00 630198 N 0 0 0
0:00:00.00 630430 N 0 0 0
0:00:00.00 630691 N 0 0 0
0:00:00.00 630877 N 0 0 0
0:00:00.00 631136 N 0 0 0
0:00:00.00 631318 N 0 0 0
0:00:00.00 631478 N 0 0 0
0:00:00.00 631697 N 0 0 0
0:00:00.00 631894 N 0 0 0
0:00:00.00 632065 N 0 0 0
0:00:00.00 632320 N 0 0 0
0:00:00.00 632484 N 0 0 0
0:00:00.00 632619 N 0 0 0
0:00:00.00 632824 N 0 0 0
0:00:00.00 633119 N 0 0 0
0:00:00.00 633359 N 0 0 0
0:00:00.00 633616 N 0 0 0
0:00:00.00 633944 N 0 0 0
0:00:00.00 634160 N 0 0 0
0:00:00.00 634426 N 0 0 0
0:00:00.00 634660 N 0 0 0
0:00:00.00 634936 N 0 0 0
0:00:00.00 635209 N 0 0 0
0:00:00.00 635436 N 0 0 0
0:00:00.00 635758 N 0 0 0
0:00:00.00 636133 N 0 0 0
0:00:00.00 636322 N 0 0 0
0:00:00.00 636613 N 0 0 0
0:00:00.00 636835 N 0 0 0
0:00:00.00 636968 N 0 0 0
0:00:00.00 637243 N 0 0 0
0:00:00.00 637475 N 0 0 0
0:00:00.00 637663 N 0 0 0
0:00:00.00 637816 N 0 0 0
0:00:00.00 638082 N 0 0 0
0:00:00.00 638366 N 0 0 0
0:00:00.00 638645 N 0 0 0
0:00:00.00 638928 N 0 0 0
0:00:00.00 639085 N 0 0 0
0:00:00.00 639301 N 0 0 0
0:00:00.00 639646 N 0 0 0
0:00:00.00 639875 N 0 0 0
0:00:00.00 640141 N 0 0 0
0:00:00.00 640465 N 0 0 0
0:00:00.00 640739 N 0 0 0
0:00:00.00 640955 N 0 0 0
0:00:00.00 641214 N 0 0 0
0:00:00.00 641358 N 0 0 0
0:00:00.00 641624 N 0 0 0
0:00:00.00 641853 N 0 0 0
0:00:00.00 642073 N 0 0 0
0:00:00.00 642278 N 0 0 0
0:00:00.00 642584 N 0 0 0
0:00:00.00 642895 N 0 0 0
0:00:00.00 643109 N 0 0 0
0:00:00.00 643390 N 0 0 0
0:00:00.00 643637 N 0 0 0
0:00:00.00 643837 N 0 0 0
0:00:00.00 644020 N 0 0 0
0:00:00.00 644312 N 0 0 0
0:00:00.00 644528 N 0 0 0
0:00:00.00 644724 N 0 0 0
0:00:00.00 645026 N 0 0 0
0:00:00.00 645295 N 0 0 0
0:00:00.00 645608 N 0 0 0
0:00:00.00 645898 N 0 0 0
0:00:00.00 646310 N 0 0 0
0:00:00.00 646463 N 0 0 0
0:00:00.00 646594 N 0 0 0
0:00:00.00 646859 N 0 0 0
0:00:00.00 647039 N 0 0 0
0:00:00.00 647309 N 0 0 0
0:00:00.00 647636 N 0 0 0
0:00:00.00 647863 N 0 0 0
0:00:00.00 648126 N 0 0 0
0:00:00.00 648347 N 0 0 0
0:00:00.00 648560 N 0 0 0
0:00:00.00 648727 N 0 0 0
0:00:00.00 649094 N 0 0 0
0:00:00.00 649345 N 0 0 0
0:00:00.00 649618 N 0 0 0
0:00:00.00 649879 N 0 0 0
