0:00:00.00 9 N 0 0 0
0:00:00.00 81 N 0 0 0
0:00:00.00 160 N 0 0 0
0:00:00.00 434 N 0 0 0
0:00:00.00 662 N 0 0 0
0:00:00.00 862 N 0 0 0
0:00:00.00 1003 N 0 0 0
0:00:00.00 1273 N 0 0 0
0:00:00.00 1485 N 0 0 0
0:00:00.00 1721 N 0 0 0
0:00:00.00 1879 N 0 0 0
0:00:00.00 1951 N 0 0 0
0:00:00.00 2102 N 0 0 0
0:00:00.00 2237 N 0 0 0
0:00:00.00 2315 N 0 0 0
0:00:00.00 2392 N 0 0 0
0:00:00.00 2515 N 0 0 0
0:00:00.00 2587 N 0 0 0
0:00:00.00 2659 N 0 0 0
0:00:00.00 2792 N 0 0 0
0:00:00.00 2934 N 0 0 0
0:00:00.00 3134 N 0 0 0
0:00:00.00 3339 N 0 0 0
0:00:00.00 3469 N 0 0 0
0:00:00.00 3717 N 0 0 0
0:00:00.00 3996 N 0 0 0
0:00:00.00 4241 N 0 0 0
0:00:00.00 4531 N 0 0 0
0:00:00.00 4698 N 0 0 0
0:00:00.00 4862 N 0 0 0
0:00:00.00 5085 N 0 0 0
0:00:00.00 5251 N 0 0 0
0:00:00.00 5438 N 0 0 0
0:00:00.00 5652 N 0 0 0
0:00:00.00 5798 N 0 0 0
0:00:00.00 6034 N 0 0 0
0:00:00.00 6205 N 0 0 0
0:00:00.00 6439 N 0 0 0
0:00:00.00 6716 N 0 0 0
0:00:00.00 6948 N 0 0 0
0:00:00.00 7281 N 0 0 0
0:00:00.00 7591 N 0 0 0
0:00:00.00 7753 N 0 0 0
0:00:00.00 7884 N 0 0 0
0:00:00.00 8158 N 0 0 0
0:00:00.00 8316 N 0 0 0
0:00:00.00 8546 N 0 0 0
0:00:00.00 8881 N 0 0 0
0:00:00.00 9119 N 0 0 0
0:00:00.00 9299 N 0 0 0
0:00:00.00 9436 N 0 0 0
0:00:00.00 9677 N 0 0 0
0:00:00.00 9954 N 0 0 0
0:00:00.00 10172 N 0 0 0
0:00:00.00 10499 N 0 0 0
0:00:00.00 10834 N 0 0 0
0:00:00.00 11084 N 0 0 0
0:00:00.00 11347 N 0 0 0
0:00:00.00 11657 N 0 0 0
0:00:00.00 11862 N 0 0 0
0:00:00.00 12022 N 0 0 0
0:00:00.00 12281 N 0 0 0
0:00:00.00 12530 N 0 0 0
0:00:00.00 12758 N 0 0 0
0:00:00.00 12996 N 0 0 0
0:00:00.00 13205 N 0 0 0
0:00:00.00 13543 N 0 0 0
0:00:00.00 13783 N 0 0 0
0:00:00.00 14018 N 0 0 0
0:00:00.00 14292 N 0 0 0
0:00:00.00 14593 N 0 0 0
0:00:00.00 14791 N 0 0 0
0:00:00.00 14931 N 0 0 0
0:00:00.00 15248 N 0 0 0
0:00:00.00 15439 N 0 0 0
0:00:00.00 15635 N 0 0 0
0:00:00.00 15934 N 0 0 0
0:00:00.00 16058 N 0 0 0
0:00:00.00 16308 N 0 0 0
0:00:00.00 16583 N 0 0 0
0:00:00.00 16731 N 0 0 0
0:00:00.00 16819 N 0 0 0
0:00:00.00 16893 N 0 0 0
0:00:00.00 16969 N 0 0 0
0:00:00.00 17240 N 0 0 0
0:00:00.00 17314 N 0 0 0
0:00:00.00 17417 N 0 0 0
0:00:00.00 17654 N 0 0 0
0:00:00.00 17899 N 0 0 0
0:00:00.00 18230 N 0 0 0
0:00:00.00 18423 N 0 0 0
0:00:00.00 18644 N 0 0 0
0:00:00.00 18913 N 0 0 0
0:00:00.00 19120 N 0 0 0
0:00:00.00 19262 N 0 0 0
0:00:00.00 19395 N 0 0 0
0:00:00.00 19748 N 0 0 0
0:00:00.00 19885 N 0 0 0
0:00:00.00 20104 N 0 0 0
0:00:00.00 20297 N 0 0 0
0:00:00.00 20455 N 0 0 0
0:00:00.00 20583 N 0 0 0
0:00:00.00 20711 N 0 0 0
0:00:00.00 20902 N 0 0 0
0:00:00.00 21038 N 0 0 0
0:00:00.00 21161 N 0 0 0
0:00:00.00 21281 N 0 0 0
0:00:00.00 21411 N 0 0 0
0:00:00.00 21710 N 0 0 0
0:00:00.00 21852 N 0 0 0
0:00:00.00 21976 N 0 0 0
0:00:00.00 22144 N 0 0 0
0:00:00.00 22248 N 0 0 0
0:00:00.00 22390 N 0 0 0
0:00:00.00 22516 N 0 0 0
0:00:00.00 22651 N 0 0 0
0:00:00.00 22772 N 0 0 0
0:00:00.00 22887 N 0 0 0
0:00:00.00 23265 N 0 0 0
0:00:00.00 23400 N 0 0 0
0:00:00.00 23762 N 0 0 0
0:00:00.00 24079 N 0 0 0
0:00:00.00 24232 N 0 0 0
0:00:00.00 24365 N 0 0 0
0:00:00.00 24491 N 0 0 0
0:00:00.00 24728 N 0 0 0
0:00:00.00 24885 N 0 0 0
0:00:00.00 25006 N 0 0 0
0:00:00.00 25303 N 0 0 0
0:00:00.00 25456 N 0 0 0
0:00:00.00 25677 N 0 0 0
0:00:00.00 26003 N 0 0 0
0:00:00.00 26305 N 0 0 0
0:00:00.00 26579 N 0 0 0
0:00:00.00 26824 N 0 0 0
0:00:00.00 26975 N 0 0 0
0:00:00.00 27220 N 0 0 0
0:00:00.00 27522 N 0 0 0
0:00:00.00 27832 N 0 0 0
0:00:00.00 27990 N 0 0 0
0:00:00.00 28222 N 0 0 0
0:00:00.00 28454 N 0 0 0
0:00:00.00 28640 N 0 0 0
0:00:00.00 28867 N 0 0 0
0:00:00.00 29029 N 0 0 0
0:00:00.00 29345 N 0 0 0
0:00:00.00 29524 N 0 0 0
0:00:00.00 29788 N 0 0 0
0:00:00.00 30065 N 0 0 0
0:00:00.00 30283 N 0 0 0
0:00:00.00 30595 N 0 0 0
0:00:00.00 30733 N 0 0 0
0:00:00.00 31012 N 0 0 0
0:00:00.00 31252 N 0 0 0
0:00:00.00 31579 N 0 0 0
0:00:00.00 31853 N 0 0 0
0:00:00.00 32011 N 0 0 0
0:00:00.00 32247 N 0 0 0
0:00:00.00 32521 N 0 0 0
0:00:00.00 32733 N 0 0 0
0:00:00.00 32987 N 0 0 0
0:00:00.00 33138 N 0 0 0
0:00:00.00 33273 N 0 0 0
0:00:00.00 33381 N 0 0 0
0:00:00.00 33768 N 0 0 0
0:00:00.00 33898 N 0 0 0
0:00:00.00 34288 N 0 0 0
0:00:00.00 34432 N 0 0 0
0:00:00.00 34560 N 0 0 0
0:00:00.00 34695 N 0 0 0
0:00:00.00 34988 N 0 0 0
0:00:00.00 35123 N 0 0 0
0:00:00.00 35269 N 0 0 0
0:00:00.00 35536 N 0 0 0
0:00:00.00 35656 N 0 0 0
0:00:00.00 35795 N 0 0 0
0:00:00.00 35933 N 0 0 0
0:00:00.00 36081 N 0 0 0
0:00:00.00 36299 N 0 0 0
0:00:00.00 36479 N 0 0 0
0:00:00.00 36558 N 0 0 0
0:00:00.00 36923 N 0 0 0
0:00:00.00 37298 N 0 0 0
0:00:00.00 37543 N 0 0 0
0:00:00.00 37748 N 0 0 0
0:00:00.00 37883 N 0 0 0
0:00:00.00 37989 N 0 0 0
0:00:00.00 38110 N 0 0 0
0:00:00.00 38396 N 0 0 0
0:00:00.00 38614 N 0 0 0
0:00:00.00 38848 N 0 0 0
0:00:00.00 38990 N 0 0 0
0:00:00.00 39116 N 0 0 0
0:00:00.00 39272 N 0 0 0
0:00:00.00 39472 N 0 0 0
0:00:00.00 39647 N 0 0 0
0:00:00.00 39773 N 0 0 0
0:00:00.00 39902 N 0 0 0
0:00:00.00 40025 N 0 0 0
0:00:00.00 40239 N 0 0 0
0:00:00.00 40381 N 0 0 0
0:00:00.00 40705 N 0 0 0
0:00:00.00 40838 N 0 0 0
0:00:00.00 41222 N 0 0 0
0:00:00.00 41384 N 0 0 0
0:00:00.00 41663 N 0 0 0
0:00:00.00 41792 N 0 0 0
0:00:00.00 42129 N 0 0 0
0:00:00.00 42419 N 0 0 0
0:00:00.00 42662 N 0 0 0
0:00:00.00 42894 N 0 0 0
0:00:00.00 43043 N 0 0 0
0:00:00.00 43403 N 0 0 0
0:00:00.00 43546 N 0 0 0
0:00:00.00 43677 N 0 0 0
0:00:00.00 43846 N 0 0 0
0:00:00.00 43967 N 0 0 0
0:00:00.00 44226 N 0 0 0
0:00:00.00 44458 N 0 0 0
0:00:00.00 44627 N 0 0 0
0:00:00.00 44735 N 0 0 0
0:00:00.00 44865 N 0 0 0
0:00:00.00 45014 N 0 0 0
0:00:00.00 45144 N 0 0 0
0:00:00.00 45268 N 0 0 0
0:00:00.00 45545 N 0 0 0
0:00:00.00 45711 N 0 0 0
0:00:00.00 45997 N 0 0 0
0:00:00.00 46105 N 0 0 0
0:00:00.00 46337 N 0 0 0
0:00:00.00 46451 N 0 0 0
0:00:00.00 46712 N 0 0 0
0:00:00.00 46849 N 0 0 0
0:00:00.00 47065 N 0 0 0
0:00:00.00 47237 N 0 0 0
0:00:00.00 47340 N 0 0 0
0:00:00.00 47596 N 0 0 0
0:00:00.00 48008 N 0 0 0
0:00:00.00 48188 N 0 0 0
0:00:00.00 48382 N 0 0 0
0:00:00.00 48719 N 0 0 0
0:00:00.00 49041 N 0 0 0
0:00:00.00 49181 N 0 0 0
0:00:00.00 49421 N 0 0 0
0:00:00.00 49550 N 0 0 0
0:00:00.00 49680 N 0 0 0
0:00:00.00 49918 N 0 0 0
0:00:00.00 50101 N 0 0 0
0:00:00.00 50431 N 0 0 0
0:00:00.00 50724 N 0 0 0
0:00:00.00 51035 N 0 0 0
0:00:00.00 51176 N 0 0 0
0:00:00.00 51293 N 0 0 0
0:00:00.00 51430 N 0 0 0
0:00:00.00 51656 N 0 0 0
0:00:00.00 51887 N 0 0 0
0:00:00.00 52160 N 0 0 0
0:00:00.00 52477 N 0 0 0
0:00:00.00 52915 N 0 0 0
0:00:00.00 53170 N 0 0 0
0:00:00.00 53357 N 0 0 0
0:00:00.00 53728 N 0 0 0
0:00:00.00 54110 N 0 0 0
0:00:00.00 54333 N 0 0 0
0:00:00.00 54475 N 0 0 0
0:00:00.00 54751 N 0 0 0
0:00:00.00 54927 N 0 0 0
0:00:00.00 55143 N 0 0 0
0:00:00.00 55427 N 0 0 0
0:00:00.00 55676 N 0 0 0
0:00:00.00 55813 N 0 0 0
0:00:00.00 55980 N 0 0 0
0:00:00.00 56236 N 0 0 0
0:00:00.00 56362 N 0 0 0
0:00:00.00 56848 N 0 0 0
0:00:00.00 56993 N 0 0 0
0:00:00.00 57271 N 0 0 0
0:00:00.00 57530 N 0 0 0
0:00:00.00 57800 N 0 0 0
0:00:00.00 58088 N 0 0 0
0:00:00.00 58349 N 0 0 0
0:00:00.00 58583 N 0 0 0
0:00:00.00 58820 N 0 0 0
0:00:00.00 59054 N 0 0 0
0:00:00.00 59368 N 0 0 0
0:00:00.00 59636 N 0 0 0
0:00:00.00 59899 N 0 0 0
0:00:00.00 60106 N 0 0 0
0:00:00.00 60421 N 0 0 0
0:00:00.00 60617 N 0 0 0
0:00:00.00 60811 N 0 0 0
0:00:00.00 60968 N 0 0 0
0:00:00.00 61213 N 0 0 0
0:00:00.00 61501 N 0 0 0
0:00:00.00 61695 N 0 0 0
0:00:00.00 61907 N 0 0 0
0:00:00.00 62120 N 0 0 0
0:00:00.00 62284 N 0 0 0
0:00:00.00 62519 N 0 0 0
0:00:00.00 62789 N 0 0 0
0:00:00.00 63074 N 0 0 0
0:00:00.00 63257 N 0 0 0
0:00:00.00 63547 N 0 0 0
0:00:00.00 63751 N 0 0 0
0:00:00.00 63893 N 0 0 0
0:00:00.00 64010 N 0 0 0
0:00:00.00 64134 N 0 0 0
0:00:00.00 64357 N 0 0 0
0:00:00.00 64613 N 0 0 0
0:00:00.00 64856 N 0 0 0
0:00:00.00 65068 N 0 0 0
0:00:00.00 65345 N 0 0 0
0:00:00.00 65612 N 0 0 0
0:00:00.00 65880 N 0 0 0
0:00:00.00 66047 N 0 0 0
0:00:00.00 66213 N 0 0 0
0:00:00.00 66461 N 0 0 0
0:00:00.00 66694 N 0 0 0
0:00:00.00 66892 N 0 0 0
0:00:00.00 67064 N 0 0 0
0:00:00.00 67212 N 0 0 0
0:00:00.00 67329 N 0 0 0
0:00:00.00 67495 N 0 0 0
0:00:00.00 67783 N 0 0 0
0:00:00.00 67957 N 0 0 0
0:00:00.00 68105 N 0 0 0
0:00:00.00 68384 N 0 0 0
0:00:00.00 68627 N 0 0 0
0:00:00.00 68877 N 0 0 0
0:00:00.00 69152 N 0 0 0
0:00:00.00 69408 N 0 0 0
0:00:00.00 69635 N 0 0 0
0:00:00.00 69890 N 0 0 0
0:00:00.00 70265 N 0 0 0
0:00:00.00 70528 N 0 0 0
0:00:00.00 70745 N 0 0 0
0:00:00.00 70999 N 0 0 0
0:00:00.00 71395 N 0 0 0
0:00:00.00 71624 N 0 0 0
0:00:00.00 71932 N 0 0 0
0:00:00.00 72097 N 0 0 0
0:00:00.00 72362 N 0 0 0
0:00:00.00 72522 N 0 0 0
0:00:00.00 72763 N 0 0 0
0:00:00.00 72965 N 0 0 0
0:00:00.00 73177 N 0 0 0
0:00:00.00 73397 N 0 0 0
0:00:00.00 73656 N 0 0 0
0:00:00.00 73831 N 0 0 0
0:00:00.00 74054 N 0 0 0
0:00:00.00 74216 N 0 0 0
0:00:00.00 74432 N 0 0 0
0:00:00.00 74774 N 0 0 0
0:00:00.00 74930 N 0 0 0
0:00:00.00 75157 N 0 0 0
0:00:00.00 75485 N 0 0 0
0:00:00.00 75757 N 0 0 0
0:00:00.00 75955 N 0 0 0
0:00:00.00 76113 N 0 0 0
0:00:00.00 76259 N 0 0 0
0:00:00.00 76511 N 0 0 0
0:00:00.00 76709 N 0 0 0
0:00:00.00 76993 N 0 0 0
0:00:00.00 77152 N 0 0 0
0:00:00.00 77270 N 0 0 0
0:00:00.00 77569 N 0 0 0
0:00:00.00 77722 N 0 0 0
0:00:00.00 78115 N 0 0 0
0:00:00.00 78257 N 0 0 0
0:00:00.00 78556 N 0 0 0
0:00:00.00 78820 N 0 0 0
0:00:00.00 79288 N 0 0 0
0:00:00.00 79438 N 0 0 0
0:00:00.00 79799 N 0 0 0
0:00:00.00 80073 N 0 0 0
0:00:00.00 80311 N 0 0 0
0:00:00.00 80456 N 0 0 0
0:00:00.00 80554 N 0 0 0
0:00:00.00 81002 N 0 0 0
0:00:00.00 81130 N 0 0 0
0:00:00.00 81396 N 0 0 0
0:00:00.00 81646 N 0 0 0
0:00:00.00 81873 N 0 0 0
0:00:00.00 82136 N 0 0 0
0:00:00.00 82399 N 0 0 0
0:00:00.00 82670 N 0 0 0
0:00:00.00 82976 N 0 0 0
0:00:00.00 83176 N 0 0 0
0:00:00.00 83363 N 0 0 0
0:00:00.00 83689 N 0 0 0
0:00:00.00 83893 N 0 0 0
0:00:00.00 84051 N 0 0 0
0:00:00.00 84298 N 0 0 0
0:00:00.00 84568 N 0 0 0
0:00:00.00 84818 N 0 0 0
0:00:00.00 85111 N 0 0 0
0:00:00.00 85325 N 0 0 0
0:00:00.00 85455 N 0 0 0
0:00:00.00 85595 N 0 0 0
0:00:00.00 85837 N 0 0 0
0:00:00.00 86053 N 0 0 0
0:00:00.00 86296 N 0 0 0
0:00:00.00 86494 N 0 0 0
0:00:00.00 86818 N 0 0 0
0:00:00.00 87091 N 0 0 0
0:00:00.00 87325 N 0 0 0
0:00:00.00 87619 N 0 0 0
0:00:00.00 87872 N 0 0 0
0:00:00.00 88130 N 0 0 0
0:00:00.00 88380 N 0 0 0
0:00:00.00 88538 N 0 0 0
0:00:00.00 88792 N 0 0 0
0:00:00.00 89014 N 0 0 0
0:00:00.00 89240 N 0 0 0
0:00:00.00 89449 N 0 0 0
0:00:00.00 89665 N 0 0 0
0:00:00.00 89793 N 0 0 0
0:00:00.00 89933 N 0 0 0
0:00:00.00 90076 N 0 0 0
0:00:00.00 90196 N 0 0 0
0:00:00.00 90306 N 0 0 0
0:00:00.00 90515 N 0 0 0
0:00:00.00 90785 N 0 0 0
0:00:00.00 91087 N 0 0 0
0:00:00.00 91388 N 0 0 0
0:00:00.00 91629 N 0 0 0
0:00:00.00 92108 N 0 0 0
0:00:00.00 92279 N 0 0 0
0:00:00.00 92637 N 0 0 0
0:00:00.00 92776 N 0 0 0
0:00:00.00 93197 N 0 0 0
0:00:00.00 93434 N 0 0 0
0:00:00.00 93667 N 0 0 0
0:00:00.00 93960 N 0 0 0
0:00:00.00 94081 N 0 0 0
0:00:00.00 94253 N 0 0 0
0:00:00.00 94464 N 0 0 0
0:00:00.00 94673 N 0 0 0
0:00:00.00 94995 N 0 0 0
0:00:00.00 95287 N 0 0 0
0:00:00.00 95641 N 0 0 0
0:00:00.00 95818 N 0 0 0
0:00:00.00 95940 N 0 0 0
0:00:00.00 96259 N 0 0 0
0:00:00.00 96406 N 0 0 0
0:00:00.00 96750 N 0 0 0
0:00:00.00 96874 N 0 0 0
0:00:00.00 97024 N 0 0 0
0:00:00.00 97398 N 0 0 0
0:00:00.00 97643 N 0 0 0
0:00:00.00 97933 N 0 0 0
0:00:00.00 98154 N 0 0 0
0:00:00.00 98417 N 0 0 0
0:00:00.00 98699 N 0 0 0
0:00:00.00 98854 N 0 0 0
0:00:00.00 98984 N 0 0 0
0:00:00.00 99117 N 0 0 0
0:00:00.00 99248 N 0 0 0
0:00:00.00 99666 N 0 0 0
0:00:00.00 99810 N 0 0 0
0:00:00.00 100172 N 0 0 0
0:00:00.00 100307 N 0 0 0
0:00:00.00 100433 N 0 0 0
0:00:00.00 100696 N 0 0 0
0:00:00.00 101122 N 0 0 0
0:00:00.00 101299 N 0 0 0
0:00:00.00 101525 N 0 0 0
0:00:00.00 101781 N 0 0 0
0:00:00.00 102051 N 0 0 0
0:00:00.00 102312 N 0 0 0
0:00:00.00 102632 N 0 0 0
0:00:00.00 102857 N 0 0 0
0:00:00.00 103111 N 0 0 0
0:00:00.00 103516 N 0 0 0
0:00:00.00 103649 N 0 0 0
0:00:00.00 103790 N 0 0 0
0:00:00.00 104020 N 0 0 0
0:00:00.00 104211 N 0 0 0
0:00:00.00 104524 N 0 0 0
0:00:00.00 104706 N 0 0 0
0:00:00.00 105109 N 0 0 0
0:00:00.00 105251 N 0 0 0
0:00:00.00 105588 N 0 0 0
0:00:00.00 105826 N 0 0 0
0:00:00.00 106016 N 0 0 0
0:00:00.00 106263 N 0 0 0
0:00:00.00 106398 N 0 0 0
0:00:00.00 106547 N 0 0 0
0:00:00.00 106628 N 0 0 0
0:00:00.00 106871 N 0 0 0
0:00:00.00 107107 N 0 0 0
0:00:00.00 107390 N 0 0 0
0:00:00.00 107656 N 0 0 0
0:00:00.00 107845 N 0 0 0
0:00:00.00 107953 N 0 0 0
0:00:00.00 108209 N 0 0 0
0:00:00.00 108479 N 0 0 0
0:00:00.00 108607 N 0 0 0
0:00:00.00 108749 N 0 0 0
0:00:00.00 108839 N 0 0 0
0:00:00.00 108974 N 0 0 0
0:00:00.00 109112 N 0 0 0
0:00:00.00 109382 N 0 0 0
0:00:00.00 109516 N 0 0 0
0:00:00.00 109634 N 0 0 0
0:00:00.00 109784 N 0 0 0
0:00:00.00 109924 N 0 0 0
0:00:00.00 110050 N 0 0 0
0:00:00.00 110158 N 0 0 0
0:00:00.00 110320 N 0 0 0
0:00:00.00 110459 N 0 0 0
0:00:00.00 110810 N 0 0 0
0:00:00.00 110947 N 0 0 0
0:00:00.00 111226 N 0 0 0
0:00:00.00 111359 N 0 0 0
0:00:00.00 111523 N 0 0 0
0:00:00.00 111744 N 0 0 0
0:00:00.00 111863 N 0 0 0
0:00:00.00 112142 N 0 0 0
0:00:00.00 112412 N 0 0 0
0:00:00.00 112750 N 0 0 0
0:00:00.00 112943 N 0 0 0
0:00:00.00 113263 N 0 0 0
0:00:00.00 113447 N 0 0 0
0:00:00.00 113684 N 0 0 0
0:00:00.00 113812 N 0 0 0
0:00:00.00 114104 N 0 0 0
0:00:00.00 114356 N 0 0 0
0:00:00.00 114606 N 0 0 0
0:00:00.00 114745 N 0 0 0
0:00:00.00 115038 N 0 0 0
0:00:00.00 115304 N 0 0 0
0:00:00.00 115463 N 0 0 0
0:00:00.00 115742 N 0 0 0
0:00:00.00 116014 N 0 0 0
0:00:00.00 116287 N 0 0 0
0:00:00.00 116446 N 0 0 0
0:00:00.00 116590 N 0 0 0
0:00:00.00 116734 N 0 0 0
0:00:00.00 117009 N 0 0 0
0:00:00.00 117283 N 0 0 0
0:00:00.00 117529 N 0 0 0
0:00:00.00 117736 N 0 0 0
0:00:00.00 117848 N 0 0 0
0:00:00.00 118015 N 0 0 0
0:00:00.00 118240 N 0 0 0
0:00:00.00 118381 N 0 0 0
0:00:00.00 118544 N 0 0 0
0:00:00.00 118766 N 0 0 0
0:00:00.00 119043 N 0 0 0
0:00:00.00 119302 N 0 0 0
0:00:00.00 119646 N 0 0 0
0:00:00.00 119921 N 0 0 0
0:00:00.00 120188 N 0 0 0
0:00:00.00 120366 N 0 0 0
0:00:00.00 120611 N 0 0 0
0:00:00.00 120859 N 0 0 0
0:00:00.00 121028 N 0 0 0
0:00:00.00 121275 N 0 0 0
0:00:00.00 121552 N 0 0 0
0:00:00.00 121716 N 0 0 0
0:00:00.00 121847 N 0 0 0
0:00:00.00 122080 N 0 0 0
0:00:00.00 122396 N 0 0 0
0:00:00.00 122670 N 0 0 0
0:00:00.00 123043 N 0 0 0
0:00:00.00 123187 N 0 0 0
0:00:00.00 123467 N 0 0 0
0:00:00.00 123624 N 0 0 0
0:00:00.00 123759 N 0 0 0
0:00:00.00 123896 N 0 0 0
0:00:00.00 124027 N 0 0 0
0:00:00.00 124268 N 0 0 0
0:00:00.00 124450 N 0 0 0
0:00:00.00 124688 N 0 0 0
0:00:00.00 125019 N 0 0 0
0:00:00.00 125219 N 0 0 0
0:00:00.00 125359 N 0 0 0
0:00:00.00 125741 N 0 0 0
0:00:00.00 125887 N 0 0 0
0:00:00.00 126171 N 0 0 0
0:00:00.00 126401 N 0 0 0
0:00:00.00 126608 N 0 0 0
0:00:00.00 126914 N 0 0 0
0:00:00.00 127048 N 0 0 0
0:00:00.00 127244 N 0 0 0
0:00:00.00 127420 N 0 0 0
0:00:00.00 127654 N 0 0 0
0:00:00.00 127973 N 0 0 0
0:00:00.00 128200 N 0 0 0
0:00:00.00 128488 N 0 0 0
0:00:00.00 128727 N 0 0 0
0:00:00.00 128866 N 0 0 0
0:00:00.00 128984 N 0 0 0
0:00:00.00 129101 N 0 0 0
0:00:00.00 129220 N 0 0 0
0:00:00.00 129469 N 0 0 0
0:00:00.00 129586 N 0 0 0
0:00:00.00 129857 N 0 0 0
0:00:00.00 130255 N 0 0 0
0:00:00.00 130504 N 0 0 0
0:00:00.00 130860 N 0 0 0
0:00:00.00 131110 N 0 0 0
0:00:00.00 131350 N 0 0 0
0:00:00.00 131762 N 0 0 0
0:00:00.00 132035 N 0 0 0
0:00:00.00 132368 N 0 0 0
0:00:00.00 132649 N 0 0 0
0:00:00.00 132973 N 0 0 0
0:00:00.00 133205 N 0 0 0
0:00:00.00 133558 N 0 0 0
0:00:00.00 133852 N 0 0 0
0:00:00.00 134078 N 0 0 0
0:00:00.00 134410 N 0 0 0
0:00:00.00 134631 N 0 0 0
0:00:00.00 134822 N 0 0 0
0:00:00.00 135058 N 0 0 0
0:00:00.00 135297 N 0 0 0
0:00:00.00 135619 N 0 0 0
0:00:00.00 135770 N 0 0 0
0:00:00.00 135877 N 0 0 0
0:00:00.00 136301 N 0 0 0
0:00:00.00 136453 N 0 0 0
0:00:00.00 136683 N 0 0 0
0:00:00.00 136825 N 0 0 0
0:00:00.00 137047 N 0 0 0
0:00:00.00 137212 N 0 0 0
0:00:00.00 137331 N 0 0 0
0:00:00.00 137473 N 0 0 0
0:00:00.00 137700 N 0 0 0
0:00:00.00 137858 N 0 0 0
0:00:00.00 138008 N 0 0 0
0:00:00.00 138244 N 0 0 0
0:00:00.00 138366 N 0 0 0
0:00:00.00 138506 N 0 0 0
0:00:00.00 138776 N 0 0 0
0:00:00.00 139050 N 0 0 0
0:00:00.00 139439 N 0 0 0
0:00:00.00 139640 N 0 0 0
0:00:00.00 139813 N 0 0 0
0:00:00.00 140042 N 0 0 0
0:00:00.00 140292 N 0 0 0
0:00:00.00 140560 N 0 0 0
0:00:00.00 140859 N 0 0 0
0:00:00.00 140933 N 0 0 0
0:00:00.00 141174 N 0 0 0
0:00:00.00 141487 N 0 0 0
0:00:00.00 141680 N 0 0 0
0:00:00.00 141766 N 0 0 0
0:00:00.00 142027 N 0 0 0
0:00:00.00 142313 N 0 0 0
0:00:00.00 142531 N 0 0 0
0:00:00.00 142789 N 0 0 0
0:00:00.00 143059 N 0 0 0
0:00:00.00 143237 N 0 0 0
0:00:00.00 143453 N 0 0 0
0:00:00.00 143582 N 0 0 0
0:00:00.00 143851 N 0 0 0
0:00:00.00 144126 N 0 0 0
0:00:00.00 144319 N 0 0 0
0:00:00.00 144538 N 0 0 0
0:00:00.00 144677 N 0 0 0
0:00:00.00 144932 N 0 0 0
0:00:00.00 145075 N 0 0 0
0:00:00.00 145323 N 0 0 0
0:00:00.00 145525 N 0 0 0
0:00:00.00 145634 N 0 0 0
0:00:00.00 145775 N 0 0 0
0:00:00.00 145921 N 0 0 0
0:00:00.00 146048 N 0 0 0
0:00:00.00 146171 N 0 0 0
0:00:00.00 146293 N 0 0 0
0:00:00.00 146443 N 0 0 0
0:00:00.00 146761 N 0 0 0
0:00:00.00 147031 N 0 0 0
0:00:00.00 147269 N 0 0 0
0:00:00.00 147499 N 0 0 0
0:00:00.00 147757 N 0 0 0
0:00:00.00 148135 N 0 0 0
0:00:00.00 148441 N 0 0 0
0:00:00.00 148572 N 0 0 0
0:00:00.00 148777 N 0 0 0
0:00:00.00 148918 N 0 0 0
0:00:00.00 149180 N 0 0 0
0:00:00.00 149330 N 0 0 0
0:00:00.00 149578 N 0 0 0
0:00:00.00 149859 N 0 0 0
0:00:00.00 150179 N 0 0 0
0:00:00.00 150388 N 0 0 0
0:00:00.00 150568 N 0 0 0
0:00:00.00 150700 N 0 0 0
0:00:00.00 150964 N 0 0 0
0:00:00.00 151214 N 0 0 0
0:00:00.00 151466 N 0 0 0
0:00:00.00 151807 N 0 0 0
0:00:00.00 152141 N 0 0 0
0:00:00.00 152330 N 0 0 0
0:00:00.00 152534 N 0 0 0
0:00:00.00 152777 N 0 0 0
0:00:00.00 153041 N 0 0 0
0:00:00.00 153329 N 0 0 0
0:00:00.00 153466 N 0 0 0
0:00:00.00 153587 N 0 0 0
0:00:00.00 153860 N 0 0 0
0:00:00.00 154129 N 0 0 0
0:00:00.00 154256 N 0 0 0
0:00:00.00 154388 N 0 0 0
0:00:00.00 154620 N 0 0 0
0:00:00.00 154870 N 0 0 0
0:00:00.00 155014 N 0 0 0
0:00:00.00 155266 N 0 0 0
0:00:00.00 155493 N 0 0 0
0:00:00.00 155885 N 0 0 0
0:00:00.00 156101 N 0 0 0
0:00:00.00 156447 N 0 0 0
0:00:00.00 156713 N 0 0 0
0:00:00.00 156953 N 0 0 0
0:00:00.00 157210 N 0 0 0
0:00:00.00 157367 N 0 0 0
0:00:00.00 157725 N 0 0 0
0:00:00.00 157873 N 0 0 0
0:00:00.00 158107 N 0 0 0
0:00:00.00 158362 N 0 0 0
0:00:00.00 158614 N 0 0 0
0:00:00.00 158870 N 0 0 0
0:00:00.00 158998 N 0 0 0
0:00:00.00 159147 N 0 0 0
0:00:00.00 159460 N 0 0 0
0:00:00.00 159601 N 0 0 0
0:00:00.00 159867 N 0 0 0
0:00:00.00 160205 N 0 0 0
0:00:00.00 160414 N 0 0 0
0:00:00.00 160691 N 0 0 0
0:00:00.00 160819 N 0 0 0
0:00:00.00 160934 N 0 0 0
0:00:00.00 161195 N 0 0 0
0:00:00.00 161330 N 0 0 0
0:00:00.00 161602 N 0 0 0
0:00:00.00 161730 N 0 0 0
0:00:00.00 161890 N 0 0 0
0:00:00.00 162038 N 0 0 0
0:00:00.00 162317 N 0 0 0
0:00:00.00 162540 N 0 0 0
0:00:00.00 162934 N 0 0 0
0:00:00.00 163069 N 0 0 0
0:00:00.00 163337 N 0 0 0
0:00:00.00 163460 N 0 0 0
0:00:00.00 163699 N 0 0 0
0:00:00.00 164032 N 0 0 0
0:00:00.00 164227 N 0 0 0
0:00:00.00 164473 N 0 0 0
0:00:00.00 164713 N 0 0 0
0:00:00.00 164943 N 0 0 0
0:00:00.00 165141 N 0 0 0
0:00:00.00 165278 N 0 0 0
0:00:00.00 165564 N 0 0 0
0:00:00.00 165704 N 0 0 0
0:00:00.00 165933 N 0 0 0
0:00:00.00 166234 N 0 0 0
0:00:00.00 166532 N 0 0 0
0:00:00.00 166901 N 0 0 0
0:00:00.00 167047 N 0 0 0
0:00:00.00 167425 N 0 0 0
0:00:00.00 167744 N 0 0 0
0:00:00.00 168012 N 0 0 0
0:00:00.00 168140 N 0 0 0
0:00:00.00 168331 N 0 0 0
0:00:00.00 168633 N 0 0 0
0:00:00.00 168782 N 0 0 0
0:00:00.00 168856 N 0 0 0
0:00:00.00 168986 N 0 0 0
0:00:00.00 169153 N 0 0 0
0:00:00.00 169294 N 0 0 0
0:00:00.00 169425 N 0 0 0
0:00:00.00 169555 N 0 0 0
0:00:00.00 169812 N 0 0 0
0:00:00.00 169942 N 0 0 0
0:00:00.00 170230 N 0 0 0
0:00:00.00 170393 N 0 0 0
0:00:00.00 170636 N 0 0 0
0:00:00.00 170773 N 0 0 0
0:00:00.00 170896 N 0 0 0
0:00:00.00 171182 N 0 0 0
0:00:00.00 171322 N 0 0 0
0:00:00.00 171641 N 0 0 0
0:00:00.00 171812 N 0 0 0
0:00:00.00 171967 N 0 0 0
0:00:00.00 172166 N 0 0 0
0:00:00.00 172463 N 0 0 0
0:00:00.00 172663 N 0 0 0
0:00:00.00 172800 N 0 0 0
0:00:00.00 172953 N 0 0 0
0:00:00.00 173084 N 0 0 0
0:00:00.00 173237 N 0 0 0
0:00:00.00 173567 N 0 0 0
0:00:00.00 173698 N 0 0 0
0:00:00.00 173853 N 0 0 0
0:00:00.00 174092 N 0 0 0
0:00:00.00 174344 N 0 0 0
0:00:00.00 174609 N 0 0 0
0:00:00.00 174877 N 0 0 0
0:00:00.00 175005 N 0 0 0
0:00:00.00 175225 N 0 0 0
0:00:00.00 175523 N 0 0 0
0:00:00.00 175707 N 0 0 0
0:00:00.00 175984 N 0 0 0
0:00:00.00 176225 N 0 0 0
0:00:00.00 176431 N 0 0 0
0:00:00.00 176780 N 0 0 0
0:00:00.00 177032 N 0 0 0
0:00:00.00 177259 N 0 0 0
0:00:00.00 177415 N 0 0 0
0:00:00.00 177680 N 0 0 0
0:00:00.00 177887 N 0 0 0
0:00:00.00 178036 N 0 0 0
0:00:00.00 178279 N 0 0 0
0:00:00.00 178402 N 0 0 0
0:00:00.00 178553 N 0 0 0
0:00:00.00 178803 N 0 0 0
0:00:00.00 178987 N 0 0 0
0:00:00.00 179235 N 0 0 0
0:00:00.00 179368 N 0 0 0
0:00:00.00 179530 N 0 0 0
0:00:00.00 179672 N 0 0 0
0:00:00.00 179807 N 0 0 0
0:00:00.00 180050 N 0 0 0
0:00:00.00 180191 N 0 0 0
0:00:00.00 180373 N 0 0 0
0:00:00.00 180581 N 0 0 0
0:00:00.00 180859 N 0 0 0
0:00:00.00 181039 N 0 0 0
0:00:00.00 181161 N 0 0 0
0:00:00.00 181305 N 0 0 0
0:00:00.00 181532 N 0 0 0
0:00:00.00 181769 N 0 0 0
0:00:00.00 182117 N 0 0 0
0:00:00.00 182248 N 0 0 0
0:00:00.00 182610 N 0 0 0
0:00:00.00 182885 N 0 0 0
0:00:00.00 183136 N 0 0 0
0:00:00.00 183254 N 0 0 0
0:00:00.00 183382 N 0 0 0
0:00:00.00 183539 N 0 0 0
0:00:00.00 183843 N 0 0 0
0:00:00.00 183985 N 0 0 0
0:00:00.00 184124 N 0 0 0
0:00:00.00 184394 N 0 0 0
0:00:00.00 184702 N 0 0 0
0:00:00.00 184833 N 0 0 0
0:00:00.00 185063 N 0 0 0
0:00:00.00 185332 N 0 0 0
0:00:00.00 185659 N 0 0 0
0:00:00.00 185814 N 0 0 0
0:00:00.00 186131 N 0 0 0
0:00:00.00 186541 N 0 0 0
0:00:00.00 186678 N 0 0 0
0:00:00.00 186962 N 0 0 0
0:00:00.00 187162 N 0 0 0
0:00:00.00 187429 N 0 0 0
0:00:00.00 187601 N 0 0 0
0:00:00.00 187852 N 0 0 0
0:00:00.00 188132 N 0 0 0
0:00:00.00 188438 N 0 0 0
0:00:00.00 188896 N 0 0 0
0:00:00.00 189292 N 0 0 0
0:00:00.00 189475 N 0 0 0
0:00:00.00 189731 N 0 0 0
0:00:00.00 189868 N 0 0 0
0:00:00.00 189988 N 0 0 0
0:00:00.00 190276 N 0 0 0
0:00:00.00 190597 N 0 0 0
0:00:00.00 190831 N 0 0 0
0:00:00.00 191088 N 0 0 0
0:00:00.00 191300 N 0 0 0
0:00:00.00 191421 N 0 0 0
0:00:00.00 191596 N 0 0 0
0:00:00.00 191840 N 0 0 0
0:00:00.00 191966 N 0 0 0
0:00:00.00 192091 N 0 0 0
0:00:00.00 192308 N 0 0 0
0:00:00.00 192409 N 0 0 0
0:00:00.00 192487 N 0 0 0
0:00:00.00 192559 N 0 0 0
0:00:00.00 192631 N 0 0 0
0:00:00.00 192703 N 0 0 0
0:00:00.00 192775 N 0 0 0
0:00:00.00 192848 N 0 0 0
0:00:00.00 192922 N 0 0 0
0:00:00.00 193064 N 0 0 0
0:00:00.00 193304 N 0 0 0
0:00:00.00 193493 N 0 0 0
0:00:00.00 193595 N 0 0 0
0:00:00.00 193891 N 0 0 0
0:00:00.00 194117 N 0 0 0
0:00:00.00 194240 N 0 0 0
0:00:00.00 194405 N 0 0 0
0:00:00.00 194515 N 0 0 0
0:00:00.00 194672 N 0 0 0
0:00:00.00 194873 N 0 0 0
0:00:00.00 195147 N 0 0 0
0:00:00.00 195278 N 0 0 0
0:00:00.00 195554 N 0 0 0
0:00:00.00 195800 N 0 0 0
0:00:00.00 195989 N 0 0 0
0:00:00.00 196198 N 0 0 0
0:00:00.00 196421 N 0 0 0
0:00:00.00 196547 N 0 0 0
0:00:00.00 196675 N 0 0 0
0:00:00.00 196981 N 0 0 0
0:00:00.00 197111 N 0 0 0
0:00:00.00 197361 N 0 0 0
0:00:00.00 197626 N 0 0 0
0:00:00.00 197872 N 0 0 0
0:00:00.00 197993 N 0 0 0
0:00:00.00 198155 N 0 0 0
0:00:00.00 198263 N 0 0 0
0:00:00.00 198526 N 0 0 0
0:00:00.00 198653 N 0 0 0
0:00:00.00 198819 N 0 0 0
0:00:00.00 199021 N 0 0 0
0:00:00.00 199141 N 0 0 0
0:00:00.00 200518 N 0 0 0
0:00:00.00 200981 N 0 0 0
0:00:00.00 201188 N 0 0 0
0:00:00.00 201456 N 0 0 0
0:00:00.00 201661 N 0 0 0
0:00:00.00 201839 N 0 0 0
0:00:00.00 202010 N 0 0 0
0:00:00.00 202315 N 0 0 0
0:00:00.00 202514 N 0 0 0
0:00:00.00 202727 N 0 0 0
0:00:00.00 202874 N 0 0 0
0:00:00.00 203015 N 0 0 0
0:00:00.00 203213 N 0 0 0
0:00:00.00 203409 N 0 0 0
0:00:00.00 203627 N 0 0 0
0:00:00.00 203846 N 0 0 0
0:00:00.00 204037 N 0 0 0
0:00:00.00 204205 N 0 0 0
0:00:00.00 204449 N 0 0 0
0:00:00.00 204570 N 0 0 0
0:00:00.00 204766 N 0 0 0
0:00:00.00 205038 N 0 0 0
0:00:00.00 205258 N 0 0 0
0:00:00.00 205524 N 0 0 0
0:00:00.00 205738 N 0 0 0
0:00:00.00 206010 N 0 0 0
0:00:00.00 206140 N 0 0 0
0:00:00.00 206402 N 0 0 0
0:00:00.00 206546 N 0 0 0
0:00:00.00 206770 N 0 0 0
0:00:00.00 206941 N 0 0 0
0:00:00.00 207184 N 0 0 0
0:00:00.00 207344 N 0 0 0
0:00:00.00 207493 N 0 0 0
0:00:00.00 207797 N 0 0 0
0:00:00.00 207940 N 0 0 0
0:00:00.00 208202 N 0 0 0
0:00:00.00 208553 N 0 0 0
0:00:00.00 208811 N 0 0 0
0:00:00.00 209041 N 0 0 0
0:00:00.00 209284 N 0 0 0
0:00:00.00 209513 N 0 0 0
0:00:00.00 209686 N 0 0 0
0:00:00.00 209939 N 0 0 0
0:00:00.00 210166 N 0 0 0
0:00:00.00 210294 N 0 0 0
0:00:00.00 210568 N 0 0 0
0:00:00.00 210703 N 0 0 0
0:00:00.00 210827 N 0 0 0
0:00:00.00 211203 N 0 0 0
0:00:00.00 211331 N 0 0 0
0:00:00.00 211711 N 0 0 0
0:00:00.00 211860 N 0 0 0
0:00:00.00 212200 N 0 0 0
0:00:00.00 212395 N 0 0 0
0:00:00.00 212614 N 0 0 0
0:00:00.00 212753 N 0 0 0
0:00:00.00 212875 N 0 0 0
0:00:00.00 213181 N 0 0 0
0:00:00.00 213318 N 0 0 0
0:00:00.00 213611 N 0 0 0
0:00:00.00 213741 N 0 0 0
0:00:00.00 213880 N 0 0 0
0:00:00.00 214155 N 0 0 0
0:00:00.00 214445 N 0 0 0
0:00:00.00 214717 N 0 0 0
0:00:00.00 214954 N 0 0 0
0:00:00.00 215266 N 0 0 0
0:00:00.00 215390 N 0 0 0
0:00:00.00 215647 N 0 0 0
0:00:00.00 215863 N 0 0 0
0:00:00.00 216011 N 0 0 0
0:00:00.00 216149 N 0 0 0
0:00:00.00 216430 N 0 0 0
0:00:00.00 216657 N 0 0 0
0:00:00.00 216801 N 0 0 0
0:00:00.00 217001 N 0 0 0
0:00:00.00 217112 N 0 0 0
0:00:00.00 217478 N 0 0 0
0:00:00.00 217724 N 0 0 0
0:00:00.00 217957 N 0 0 0
0:00:00.00 218198 N 0 0 0
0:00:00.00 218421 N 0 0 0
0:00:00.00 218587 N 0 0 0
0:00:00.00 218822 N 0 0 0
0:00:00.00 218957 N 0 0 0
0:00:00.00 219202 N 0 0 0
0:00:00.00 219452 N 0 0 0
0:00:00.00 219577 N 0 0 0
0:00:00.00 219863 N 0 0 0
0:00:00.00 220113 N 0 0 0
0:00:00.00 220376 N 0 0 0
0:00:00.00 220617 N 0 0 0
0:00:00.00 220757 N 0 0 0
0:00:00.00 220862 N 0 0 0
0:00:00.00 221022 N 0 0 0
0:00:00.00 221211 N 0 0 0
0:00:00.00 221434 N 0 0 0
0:00:00.00 221589 N 0 0 0
0:00:00.00 221805 N 0 0 0
0:00:00.00 222073 N 0 0 0
0:00:00.00 222250 N 0 0 0
0:00:00.00 222511 N 0 0 0
0:00:00.00 222784 N 0 0 0
0:00:00.00 222907 N 0 0 0
0:00:00.00 223022 N 0 0 0
0:00:00.00 223096 N 0 0 0
0:00:00.00 223171 N 0 0 0
0:00:00.00 223245 N 0 0 0
0:00:00.00 223317 N 0 0 0
0:00:00.00 223389 N 0 0 0
0:00:00.00 223477 N 0 0 0
0:00:00.00 223700 N 0 0 0
0:00:00.00 223893 N 0 0 0
0:00:00.00 224096 N 0 0 0
0:00:00.00 224341 N 0 0 0
0:00:00.00 224555 N 0 0 0
0:00:00.00 224746 N 0 0 0
0:00:00.00 224964 N 0 0 0
0:00:00.00 225193 N 0 0 0
0:00:00.00 225616 N 0 0 0
0:00:00.00 225774 N 0 0 0
0:00:00.00 226121 N 0 0 0
0:00:00.00 226364 N 0 0 0
0:00:00.00 226499 N 0 0 0
0:00:00.00 226616 N 0 0 0
0:00:00.00 226787 N 0 0 0
0:00:00.00 226897 N 0 0 0
0:00:00.00 227191 N 0 0 0
0:00:00.00 227383 N 0 0 0
0:00:00.00 227518 N 0 0 0
0:00:00.00 227797 N 0 0 0
0:00:00.00 227941 N 0 0 0
0:00:00.00 228193 N 0 0 0
0:00:00.00 228303 N 0 0 0
0:00:00.00 228559 N 0 0 0
0:00:00.00 228812 N 0 0 0
0:00:00.00 229073 N 0 0 0
0:00:00.00 229232 N 0 0 0
0:00:00.00 229441 N 0 0 0
0:00:00.00 229559 N 0 0 0
0:00:00.00 229810 N 0 0 0
0:00:00.00 230033 N 0 0 0
0:00:00.00 230225 N 0 0 0
0:00:00.00 230321 N 0 0 0
0:00:00.00 230490 N 0 0 0
0:00:00.00 230746 N 0 0 0
0:00:00.00 230866 N 0 0 0
0:00:00.00 230974 N 0 0 0
0:00:00.00 231098 N 0 0 0
0:00:00.00 231235 N 0 0 0
0:00:00.00 231475 N 0 0 0
0:00:00.00 231678 N 0 0 0
0:00:00.00 232000 N 0 0 0
0:00:00.00 232205 N 0 0 0
0:00:00.00 232324 N 0 0 0
0:00:00.00 232465 N 0 0 0
0:00:00.00 232799 N 0 0 0
0:00:00.00 232933 N 0 0 0
0:00:00.00 233199 N 0 0 0
0:00:00.00 233431 N 0 0 0
0:00:00.00 233647 N 0 0 0
0:00:00.00 233780 N 0 0 0
0:00:00.00 234040 N 0 0 0
0:00:00.00 234164 N 0 0 0
0:00:00.00 234304 N 0 0 0
0:00:00.00 234436 N 0 0 0
0:00:00.00 234695 N 0 0 0
0:00:00.00 234823 N 0 0 0
0:00:00.00 235112 N 0 0 0
0:00:00.00 235307 N 0 0 0
0:00:00.00 235557 N 0 0 0
0:00:00.00 235804 N 0 0 0
0:00:00.00 236097 N 0 0 0
0:00:00.00 236218 N 0 0 0
0:00:00.00 236344 N 0 0 0
0:00:00.00 236707 N 0 0 0
0:00:00.00 236990 N 0 0 0
0:00:00.00 237262 N 0 0 0
0:00:00.00 237454 N 0 0 0
0:00:00.00 237663 N 0 0 0
0:00:00.00 237901 N 0 0 0
0:00:00.00 238190 N 0 0 0
0:00:00.00 238390 N 0 0 0
0:00:00.00 238527 N 0 0 0
0:00:00.00 238761 N 0 0 0
0:00:00.00 239049 N 0 0 0
0:00:00.00 239283 N 0 0 0
0:00:00.00 239465 N 0 0 0
0:00:00.00 239665 N 0 0 0
0:00:00.00 239933 N 0 0 0
0:00:00.00 240194 N 0 0 0
0:00:00.00 240314 N 0 0 0
0:00:00.00 240527 N 0 0 0
0:00:00.00 240755 N 0 0 0
0:00:00.00 240874 N 0 0 0
0:00:00.00 241166 N 0 0 0
0:00:00.00 241403 N 0 0 0
0:00:00.00 241691 N 0 0 0
0:00:00.00 241889 N 0 0 0
0:00:00.00 241965 N 0 0 0
0:00:00.00 242264 N 0 0 0
0:00:00.00 242631 N 0 0 0
0:00:00.00 242879 N 0 0 0
0:00:00.00 243151 N 0 0 0
0:00:00.00 243401 N 0 0 0
0:00:00.00 243596 N 0 0 0
0:00:00.00 243734 N 0 0 0
0:00:00.00 243862 N 0 0 0
0:00:00.00 244129 N 0 0 0
0:00:00.00 244312 N 0 0 0
0:00:00.00 244625 N 0 0 0
0:00:00.00 244874 N 0 0 0
0:00:00.00 245097 N 0 0 0
0:00:00.00 245331 N 0 0 0
0:00:00.00 245585 N 0 0 0
0:00:00.00 245749 N 0 0 0
0:00:00.00 246044 N 0 0 0
0:00:00.00 246256 N 0 0 0
0:00:00.00 246416 N 0 0 0
0:00:00.00 246643 N 0 0 0
0:00:00.00 246796 N 0 0 0
0:00:00.00 247000 N 0 0 0
0:00:00.00 247212 N 0 0 0
0:00:00.00 247491 N 0 0 0
0:00:00.00 247619 N 0 0 0
0:00:00.00 247912 N 0 0 0
0:00:00.00 248134 N 0 0 0
0:00:00.00 248254 N 0 0 0
0:00:00.00 248427 N 0 0 0
0:00:00.00 248735 N 0 0 0
0:00:00.00 248987 N 0 0 0
0:00:00.00 249100 N 0 0 0
0:00:00.00 249359 N 0 0 0
0:00:00.00 249484 N 0 0 0
0:00:00.00 249737 N 0 0 0
0:00:00.00 249959 N 0 0 0
0:00:00.00 250193 N 0 0 0
0:00:00.00 250360 N 0 0 0
0:00:00.00 250519 N 0 0 0
0:00:00.00 250709 N 0 0 0
0:00:00.00 250832 N 0 0 0
0:00:00.00 250965 N 0 0 0
0:00:00.00 251172 N 0 0 0
0:00:00.00 251303 N 0 0 0
0:00:00.00 251469 N 0 0 0
0:00:00.00 251676 N 0 0 0
0:00:00.00 251786 N 0 0 0
0:00:00.00 251991 N 0 0 0
0:00:00.00 252241 N 0 0 0
0:00:00.00 252437 N 0 0 0
0:00:00.00 252583 N 0 0 0
0:00:00.00 252715 N 0 0 0
0:00:00.00 252952 N 0 0 0
0:00:00.00 253096 N 0 0 0
0:00:00.00 253298 N 0 0 0
0:00:00.00 253496 N 0 0 0
0:00:00.00 253751 N 0 0 0
0:00:00.00 253982 N 0 0 0
0:00:00.00 254119 N 0 0 0
0:00:00.00 254252 N 0 0 0
0:00:00.00 254516 N 0 0 0
0:00:00.00 254848 N 0 0 0
0:00:00.00 255002 N 0 0 0
0:00:00.00 255271 N 0 0 0
0:00:00.00 255530 N 0 0 0
0:00:00.00 255645 N 0 0 0
0:00:00.00 255755 N 0 0 0
0:00:00.00 255874 N 0 0 0
0:00:00.00 256095 N 0 0 0
0:00:00.00 256336 N 0 0 0
0:00:00.00 256628 N 0 0 0
0:00:00.00 256795 N 0 0 0
0:00:00.00 257033 N 0 0 0
0:00:00.00 257166 N 0 0 0
0:00:00.00 257440 N 0 0 0
0:00:00.00 257566 N 0 0 0
0:00:00.00 257866 N 0 0 0
0:00:00.00 258005 N 0 0 0
0:00:00.00 258102 N 0 0 0
0:00:00.00 258284 N 0 0 0
0:00:00.00 258516 N 0 0 0
0:00:00.00 258631 N 0 0 0
0:00:00.00 258872 N 0 0 0
0:00:00.00 258991 N 0 0 0
0:00:00.00 259265 N 0 0 0
0:00:00.00 259501 N 0 0 0
0:00:00.00 259702 N 0 0 0
0:00:00.00 259828 N 0 0 0
0:00:00.00 260039 N 0 0 0
0:00:00.00 260237 N 0 0 0
0:00:00.00 260404 N 0 0 0
0:00:00.00 260591 N 0 0 0
0:00:00.00 260849 N 0 0 0
0:00:00.00 261002 N 0 0 0
0:00:00.00 261218 N 0 0 0
0:00:00.00 261347 N 0 0 0
0:00:00.00 261506 N 0 0 0
0:00:00.00 261749 N 0 0 0
0:00:00.00 262060 N 0 0 0
0:00:00.00 262172 N 0 0 0
0:00:00.00 262271 N 0 0 0
0:00:00.00 262465 N 0 0 0
0:00:00.00 262674 N 0 0 0
0:00:00.00 262787 N 0 0 0
0:00:00.00 262863 N 0 0 0
0:00:00.00 263039 N 0 0 0
0:00:00.00 263254 N 0 0 0
0:00:00.00 263520 N 0 0 0
0:00:00.00 263743 N 0 0 0
0:00:00.00 263992 N 0 0 0
0:00:00.00 264119 N 0 0 0
0:00:00.00 264384 N 0 0 0
0:00:00.00 264580 N 0 0 0
0:00:00.00 264773 N 0 0 0
0:00:00.00 264987 N 0 0 0
0:00:00.00 265122 N 0 0 0
0:00:00.00 265253 N 0 0 0
0:00:00.00 265381 N 0 0 0
0:00:00.00 265581 N 0 0 0
0:00:00.00 265831 N 0 0 0
0:00:00.00 266098 N 0 0 0
0:00:00.00 266328 N 0 0 0
0:00:00.00 266549 N 0 0 0
0:00:00.00 266809 N 0 0 0
0:00:00.00 266927 N 0 0 0
0:00:00.00 267016 N 0 0 0
0:00:00.00 267142 N 0 0 0
0:00:00.00 267273 N 0 0 0
0:00:00.00 267523 N 0 0 0
0:00:00.00 267638 N 0 0 0
0:00:00.00 267889 N 0 0 0
0:00:00.00 268119 N 0 0 0
0:00:00.00 268360 N 0 0 0
0:00:00.00 268510 N 0 0 0
0:00:00.00 268837 N 0 0 0
0:00:00.00 269096 N 0 0 0
0:00:00.00 269206 N 0 0 0
0:00:00.00 269321 N 0 0 0
0:00:00.00 269456 N 0 0 0
0:00:00.00 269680 N 0 0 0
0:00:00.00 269883 N 0 0 0
0:00:00.00 270058 N 0 0 0
0:00:00.00 270281 N 0 0 0
0:00:00.00 270477 N 0 0 0
0:00:00.00 270679 N 0 0 0
0:00:00.00 270783 N 0 0 0
0:00:00.00 270904 N 0 0 0
0:00:00.00 271093 N 0 0 0
0:00:00.00 271373 N 0 0 0
0:00:00.00 271487 N 0 0 0
0:00:00.00 271602 N 0 0 0
0:00:00.00 271859 N 0 0 0
0:00:00.00 271987 N 0 0 0
0:00:00.00 272210 N 0 0 0
0:00:00.00 272513 N 0 0 0
0:00:00.00 272788 N 0 0 0
0:00:00.00 272907 N 0 0 0
0:00:00.00 273033 N 0 0 0
0:00:00.00 273146 N 0 0 0
0:00:00.00 273267 N 0 0 0
0:00:00.00 273532 N 0 0 0
0:00:00.00 273706 N 0 0 0
0:00:00.00 273931 N 0 0 0
0:00:00.00 274068 N 0 0 0
0:00:00.00 274316 N 0 0 0
0:00:00.00 274550 N 0 0 0
0:00:00.00 274792 N 0 0 0
0:00:00.00 274991 N 0 0 0
0:00:00.00 275063 N 0 0 0
0:00:00.00 275229 N 0 0 0
0:00:00.00 275344 N 0 0 0
0:00:00.00 275458 N 0 0 0
0:00:00.00 275580 N 0 0 0
0:00:00.00 275755 N 0 0 0
0:00:00.00 275854 N 0 0 0
0:00:00.00 276151 N 0 0 0
0:00:00.00 276286 N 0 0 0
0:00:00.00 276494 N 0 0 0
0:00:00.00 276674 N 0 0 0
0:00:00.00 276889 N 0 0 0
0:00:00.00 277054 N 0 0 0
0:00:00.00 277245 N 0 0 0
0:00:00.00 277434 N 0 0 0
0:00:00.00 277677 N 0 0 0
0:00:00.00 277891 N 0 0 0
0:00:00.00 278030 N 0 0 0
0:00:00.00 278118 N 0 0 0
0:00:00.00 278249 N 0 0 0
0:00:00.00 278501 N 0 0 0
0:00:00.00 278739 N 0 0 0
0:00:00.00 278858 N 0 0 0
0:00:00.00 278986 N 0 0 0
0:00:00.00 279286 N 0 0 0
0:00:00.00 279409 N 0 0 0
0:00:00.00 279545 N 0 0 0
0:00:00.00 279736 N 0 0 0
0:00:00.00 279911 N 0 0 0
0:00:00.00 280136 N 0 0 0
0:00:00.00 280409 N 0 0 0
0:00:00.00 280642 N 0 0 0
0:00:00.00 280937 N 0 0 0
0:00:00.00 281122 N 0 0 0
0:00:00.00 281372 N 0 0 0
0:00:00.00 281520 N 0 0 0
0:00:00.00 281626 N 0 0 0
0:00:00.00 281736 N 0 0 0
0:00:00.00 281970 N 0 0 0
0:00:00.00 282202 N 0 0 0
0:00:00.00 282377 N 0 0 0
0:00:00.00 282510 N 0 0 0
0:00:00.00 282659 N 0 0 0
0:00:00.00 282825 N 0 0 0
0:00:00.00 283070 N 0 0 0
0:00:00.00 283239 N 0 0 0
0:00:00.00 283462 N 0 0 0
0:00:00.00 283594 N 0 0 0
0:00:00.00 283711 N 0 0 0
0:00:00.00 283869 N 0 0 0
0:00:00.00 284110 N 0 0 0
0:00:00.00 284335 N 0 0 0
0:00:00.00 284603 N 0 0 0
0:00:00.00 284863 N 0 0 0
0:00:00.00 284983 N 0 0 0
0:00:00.00 285138 N 0 0 0
0:00:00.00 285318 N 0 0 0
0:00:00.00 285493 N 0 0 0
0:00:00.00 285626 N 0 0 0
0:00:00.00 285757 N 0 0 0
0:00:00.00 285959 N 0 0 0
0:00:00.00 286083 N 0 0 0
0:00:00.00 286310 N 0 0 0
0:00:00.00 286553 N 0 0 0
0:00:00.00 286657 N 0 0 0
0:00:00.00 286805 N 0 0 0
0:00:00.00 286987 N 0 0 0
0:00:00.00 287118 N 0 0 0
0:00:00.00 287246 N 0 0 0
0:00:00.00 287485 N 0 0 0
0:00:00.00 287820 N 0 0 0
0:00:00.00 287937 N 0 0 0
0:00:00.00 288061 N 0 0 0
0:00:00.00 288306 N 0 0 0
0:00:00.00 288475 N 0 0 0
0:00:00.00 288743 N 0 0 0
0:00:00.00 288963 N 0 0 0
0:00:00.00 289058 N 0 0 0
0:00:00.00 289355 N 0 0 0
0:00:00.00 289490 N 0 0 0
0:00:00.00 289714 N 0 0 0
0:00:00.00 290002 N 0 0 0
0:00:00.00 290124 N 0 0 0
0:00:00.00 290381 N 0 0 0
0:00:00.00 290558 N 0 0 0
0:00:00.00 290727 N 0 0 0
0:00:00.00 291053 N 0 0 0
0:00:00.00 291172 N 0 0 0
0:00:00.00 291443 N 0 0 0
0:00:00.00 291749 N 0 0 0
0:00:00.00 291962 N 0 0 0
0:00:00.00 292142 N 0 0 0
0:00:00.00 292459 N 0 0 0
0:00:00.00 292633 N 0 0 0
0:00:00.00 292756 N 0 0 0
0:00:00.00 292840 N 0 0 0
0:00:00.00 293008 N 0 0 0
0:00:00.00 293281 N 0 0 0
0:00:00.00 293395 N 0 0 0
0:00:00.00 293611 N 0 0 0
0:00:00.00 293731 N 0 0 0
0:00:00.00 293940 N 0 0 0
0:00:00.00 294053 N 0 0 0
0:00:00.00 294203 N 0 0 0
0:00:00.00 294541 N 0 0 0
0:00:00.00 294664 N 0 0 0
0:00:00.00 294923 N 0 0 0
0:00:00.00 295139 N 0 0 0
0:00:00.00 295403 N 0 0 0
0:00:00.00 295551 N 0 0 0
0:00:00.00 295738 N 0 0 0
0:00:00.00 295992 N 0 0 0
0:00:00.00 296172 N 0 0 0
0:00:00.00 296311 N 0 0 0
0:00:00.00 296435 N 0 0 0
0:00:00.00 296561 N 0 0 0
0:00:00.00 296842 N 0 0 0
0:00:00.00 296989 N 0 0 0
0:00:00.00 297097 N 0 0 0
0:00:00.00 297232 N 0 0 0
0:00:00.00 297448 N 0 0 0
0:00:00.00 297659 N 0 0 0
0:00:00.00 297920 N 0 0 0
0:00:00.00 298175 N 0 0 0
0:00:00.00 298413 N 0 0 0
0:00:00.00 298562 N 0 0 0
0:00:00.00 298660 N 0 0 0
0:00:00.00 298804 N 0 0 0
0:00:00.00 299039 N 0 0 0
0:00:00.00 299293 N 0 0 0
0:00:00.00 299461 N 0 0 0
0:00:00.00 299619 N 0 0 0
0:00:00.00 299830 N 0 0 0
0:00:00.00 300123 N 0 0 0
0:00:00.00 300256 N 0 0 0
0:00:00.00 300501 N 0 0 0
0:00:00.00 300764 N 0 0 0
0:00:00.00 300969 N 0 0 0
0:00:00.00 301138 N 0 0 0
0:00:00.00 301356 N 0 0 0
0:00:00.00 301478 N 0 0 0
0:00:00.00 301621 N 0 0 0
0:00:00.00 301698 N 0 0 0
0:00:00.00 301871 N 0 0 0
0:00:00.00 302146 N 0 0 0
0:00:00.00 302269 N 0 0 0
0:00:00.00 302432 N 0 0 0
0:00:00.00 302654 N 0 0 0
0:00:00.00 302783 N 0 0 0
0:00:00.00 303169 N 0 0 0
0:00:00.00 303296 N 0 0 0
0:00:00.00 303523 N 0 0 0
0:00:00.00 303737 N 0 0 0
0:00:00.00 303845 N 0 0 0
0:00:00.00 304029 N 0 0 0
0:00:00.00 304229 N 0 0 0
0:00:00.00 304495 N 0 0 0
0:00:00.00 304700 N 0 0 0
0:00:00.00 304844 N 0 0 0
0:00:00.00 305030 N 0 0 0
0:00:00.00 305138 N 0 0 0
0:00:00.00 305383 N 0 0 0
0:00:00.00 305739 N 0 0 0
0:00:00.00 305987 N 0 0 0
0:00:00.00 306275 N 0 0 0
0:00:00.00 306592 N 0 0 0
0:00:00.00 306855 N 0 0 0
0:00:00.00 307031 N 0 0 0
0:00:00.00 307301 N 0 0 0
0:00:00.00 307417 N 0 0 0
0:00:00.00 307494 N 0 0 0
0:00:00.00 307750 N 0 0 0
0:00:00.00 307987 N 0 0 0
0:00:00.00 308063 N 0 0 0
0:00:00.00 308135 N 0 0 0
0:00:00.00 308414 N 0 0 0
0:00:00.00 308585 N 0 0 0
0:00:00.00 308815 N 0 0 0
0:00:00.00 309137 N 0 0 0
0:00:00.00 309251 N 0 0 0
0:00:00.00 309470 N 0 0 0
0:00:00.00 309839 N 0 0 0
0:00:00.00 310000 N 0 0 0
0:00:00.00 310129 N 0 0 0
0:00:00.00 310235 N 0 0 0
0:00:00.00 310487 N 0 0 0
0:00:00.00 310748 N 0 0 0
0:00:00.00 311056 N 0 0 0
0:00:00.00 311299 N 0 0 0
0:00:00.00 311533 N 0 0 0
0:00:00.00 311819 N 0 0 0
0:00:00.00 312028 N 0 0 0
0:00:00.00 312235 N 0 0 0
0:00:00.00 312428 N 0 0 0
0:00:00.00 312622 N 0 0 0
0:00:00.00 312894 N 0 0 0
0:00:00.00 313020 N 0 0 0
0:00:00.00 313132 N 0 0 0
0:00:00.00 313279 N 0 0 0
0:00:00.00 313389 N 0 0 0
0:00:00.00 313614 N 0 0 0
0:00:00.00 313897 N 0 0 0
0:00:00.00 314120 N 0 0 0
0:00:00.00 314278 N 0 0 0
0:00:00.00 314408 N 0 0 0
0:00:00.00 314498 N 0 0 0
0:00:00.00 314645 N 0 0 0
0:00:00.00 314829 N 0 0 0
0:00:00.00 315085 N 0 0 0
0:00:00.00 315324 N 0 0 0
0:00:00.00 315457 N 0 0 0
0:00:00.00 315695 N 0 0 0
0:00:00.00 315904 N 0 0 0
0:00:00.00 316015 N 0 0 0
0:00:00.00 316130 N 0 0 0
0:00:00.00 316240 N 0 0 0
0:00:00.00 316481 N 0 0 0
0:00:00.00 316607 N 0 0 0
0:00:00.00 316847 N 0 0 0
0:00:00.00 317075 N 0 0 0
0:00:00.00 317198 N 0 0 0
0:00:00.00 317482 N 0 0 0
0:00:00.00 317727 N 0 0 0
0:00:00.00 317837 N 0 0 0
0:00:00.00 317992 N 0 0 0
0:00:00.00 318173 N 0 0 0
0:00:00.00 318420 N 0 0 0
0:00:00.00 318611 N 0 0 0
0:00:00.00 318685 N 0 0 0
0:00:00.00 318766 N 0 0 0
0:00:00.00 318839 N 0 0 0
0:00:00.00 318983 N 0 0 0
0:00:00.00 319201 N 0 0 0
0:00:00.00 319421 N 0 0 0
0:00:00.00 319644 N 0 0 0
0:00:00.00 319788 N 0 0 0
0:00:00.00 320045 N 0 0 0
0:00:00.00 320296 N 0 0 0
0:00:00.00 320409 N 0 0 0
0:00:00.00 320774 N 0 0 0
0:00:00.00 320895 N 0 0 0
0:00:00.00 321104 N 0 0 0
0:00:00.00 321197 N 0 0 0
0:00:00.00 321422 N 0 0 0
0:00:00.00 321669 N 0 0 0
0:00:00.00 321894 N 0 0 0
0:00:00.00 322038 N 0 0 0
0:00:00.00 322169 N 0 0 0
0:00:00.00 322283 N 0 0 0
0:00:00.00 322447 N 0 0 0
0:00:00.00 322587 N 0 0 0
0:00:00.00 322904 N 0 0 0
0:00:00.00 323028 N 0 0 0
0:00:00.00 323239 N 0 0 0
0:00:00.00 323417 N 0 0 0
0:00:00.00 323582 N 0 0 0
0:00:00.00 323757 N 0 0 0
0:00:00.00 323899 N 0 0 0
0:00:00.00 323993 N 0 0 0
0:00:00.00 324274 N 0 0 0
0:00:00.00 324538 N 0 0 0
0:00:00.00 324682 N 0 0 0
0:00:00.00 324814 N 0 0 0
0:00:00.00 325044 N 0 0 0
0:00:00.00 325283 N 0 0 0
0:00:00.00 325438 N 0 0 0
0:00:00.00 325535 N 0 0 0
0:00:00.00 325676 N 0 0 0
0:00:00.00 325973 N 0 0 0
0:00:00.00 326236 N 0 0 0
0:00:00.00 326365 N 0 0 0
0:00:00.00 326572 N 0 0 0
0:00:00.00 326687 N 0 0 0
0:00:00.00 326943 N 0 0 0
0:00:00.00 327173 N 0 0 0
0:00:00.00 327409 N 0 0 0
0:00:00.00 327578 N 0 0 0
0:00:00.00 327650 N 0 0 0
0:00:00.00 327798 N 0 0 0
0:00:00.00 327942 N 0 0 0
0:00:00.00 328162 N 0 0 0
0:00:00.00 328361 N 0 0 0
0:00:00.00 328671 N 0 0 0
0:00:00.00 328916 N 0 0 0
0:00:00.00 329168 N 0 0 0
0:00:00.00 329272 N 0 0 0
0:00:00.00 329456 N 0 0 0
0:00:00.00 329557 N 0 0 0
0:00:00.00 329639 N 0 0 0
0:00:00.00 329713 N 0 0 0
0:00:00.00 329852 N 0 0 0
0:00:00.00 329972 N 0 0 0
0:00:00.00 330104 N 0 0 0
0:00:00.00 330448 N 0 0 0
0:00:00.00 330694 N 0 0 0
0:00:00.00 330950 N 0 0 0
0:00:00.00 331218 N 0 0 0
0:00:00.00 331412 N 0 0 0
0:00:00.00 331594 N 0 0 0
0:00:00.00 331772 N 0 0 0
0:00:00.00 331882 N 0 0 0
0:00:00.00 332096 N 0 0 0
0:00:00.00 332330 N 0 0 0
0:00:00.00 332624 N 0 0 0
0:00:00.00 332753 N 0 0 0
0:00:00.00 332874 N 0 0 0
0:00:00.00 333031 N 0 0 0
0:00:00.00 333146 N 0 0 0
0:00:00.00 333365 N 0 0 0
0:00:00.00 333666 N 0 0 0
0:00:00.00 333810 N 0 0 0
0:00:00.00 333929 N 0 0 0
0:00:00.00 334192 N 0 0 0
0:00:00.00 334458 N 0 0 0
0:00:00.00 334728 N 0 0 0
0:00:00.00 334858 N 0 0 0
0:00:00.00 335147 N 0 0 0
0:00:00.00 335407 N 0 0 0
0:00:00.00 335569 N 0 0 0
0:00:00.00 335740 N 0 0 0
0:00:00.00 335995 N 0 0 0
0:00:00.00 336181 N 0 0 0
0:00:00.00 336308 N 0 0 0
0:00:00.00 336542 N 0 0 0
0:00:00.00 336686 N 0 0 0
0:00:00.00 336917 N 0 0 0
0:00:00.00 337176 N 0 0 0
0:00:00.00 337468 N 0 0 0
0:00:00.00 337687 N 0 0 0
0:00:00.00 337954 N 0 0 0
0:00:00.00 338303 N 0 0 0
0:00:00.00 338524 N 0 0 0
0:00:00.00 338722 N 0 0 0
0:00:00.00 338983 N 0 0 0
0:00:00.00 339350 N 0 0 0
0:00:00.00 339595 N 0 0 0
0:00:00.00 339894 N 0 0 0
0:00:00.00 340020 N 0 0 0
0:00:00.00 340146 N 0 0 0
0:00:00.00 340297 N 0 0 0
0:00:00.00 340411 N 0 0 0
0:00:00.00 340628 N 0 0 0
0:00:00.00 340765 N 0 0 0
0:00:00.00 341069 N 0 0 0
0:00:00.00 341411 N 0 0 0
0:00:00.00 341696 N 0 0 0
0:00:00.00 341993 N 0 0 0
0:00:00.00 342283 N 0 0 0
0:00:00.00 342499 N 0 0 0
0:00:00.00 342727 N 0 0 0
0:00:00.00 342880 N 0 0 0
0:00:00.00 343118 N 0 0 0
0:00:00.00 343316 N 0 0 0
0:00:00.00 343618 N 0 0 0
0:00:00.00 343890 N 0 0 0
0:00:00.00 344106 N 0 0 0
0:00:00.00 344225 N 0 0 0
0:00:00.00 344372 N 0 0 0
0:00:00.00 344513 N 0 0 0
0:00:00.00 344740 N 0 0 0
0:00:00.00 344903 N 0 0 0
0:00:00.00 345132 N 0 0 0
0:00:00.00 345494 N 0 0 0
0:00:00.00 345784 N 0 0 0
0:00:00.00 345969 N 0 0 0
0:00:00.00 346268 N 0 0 0
0:00:00.00 346545 N 0 0 0
0:00:00.00 346885 N 0 0 0
0:00:00.00 347098 N 0 0 0
0:00:00.00 347251 N 0 0 0
0:00:00.00 347371 N 0 0 0
0:00:00.00 347501 N 0 0 0
0:00:00.00 347643 N 0 0 0
0:00:00.00 347927 N 0 0 0
0:00:00.00 348071 N 0 0 0
0:00:00.00 348309 N 0 0 0
0:00:00.00 348422 N 0 0 0
0:00:00.00 348714 N 0 0 0
0:00:00.00 348916 N 0 0 0
0:00:00.00 349133 N 0 0 0
0:00:00.00 349364 N 0 0 0
0:00:00.00 349650 N 0 0 0
0:00:00.00 349882 N 0 0 0
0:00:00.00 350188 N 0 0 0
0:00:00.00 350415 N 0 0 0
0:00:00.00 350557 N 0 0 0
0:00:00.00 350667 N 0 0 0
0:00:00.00 350912 N 0 0 0
0:00:00.00 351043 N 0 0 0
0:00:00.00 351268 N 0 0 0
0:00:00.00 351508 N 0 0 0
0:00:00.00 351871 N 0 0 0
0:00:00.00 352172 N 0 0 0
0:00:00.00 352368 N 0 0 0
0:00:00.00 352705 N 0 0 0
0:00:00.00 353014 N 0 0 0
0:00:00.00 353315 N 0 0 0
0:00:00.00 353515 N 0 0 0
0:00:00.00 353790 N 0 0 0
0:00:00.00 354096 N 0 0 0
0:00:00.00 354379 N 0 0 0
0:00:00.00 354631 N 0 0 0
0:00:00.00 354884 N 0 0 0
0:00:00.00 355199 N 0 0 0
0:00:00.00 355473 N 0 0 0
0:00:00.00 355702 N 0 0 0
0:00:00.00 355811 N 0 0 0
0:00:00.00 356141 N 0 0 0
0:00:00.00 356278 N 0 0 0
0:00:00.00 356422 N 0 0 0
0:00:00.00 356686 N 0 0 0
0:00:00.00 356954 N 0 0 0
0:00:00.00 357329 N 0 0 0
0:00:00.00 357757 N 0 0 0
0:00:00.00 357881 N 0 0 0
0:00:00.00 358362 N 0 0 0
0:00:00.00 358592 N 0 0 0
0:00:00.00 358711 N 0 0 0
0:00:00.00 358870 N 0 0 0
0:00:00.00 359203 N 0 0 0
0:00:00.00 359348 N 0 0 0
0:00:00.00 359681 N 0 0 0
0:00:00.00 359933 N 0 0 0
0:00:00.00 360320 N 0 0 0
0:00:00.00 360558 N 0 0 0
0:00:00.00 360671 N 0 0 0
0:00:00.00 361030 N 0 0 0
0:00:00.00 361323 N 0 0 0
0:00:00.00 361672 N 0 0 0
0:00:00.00 361894 N 0 0 0
0:00:00.00 362122 N 0 0 0
0:00:00.00 362381 N 0 0 0
0:00:00.00 362549 N 0 0 0
0:00:00.00 362777 N 0 0 0
0:00:00.00 363017 N 0 0 0
0:00:00.00 363134 N 0 0 0
0:00:00.00 363247 N 0 0 0
0:00:00.00 363438 N 0 0 0
0:00:00.00 363559 N 0 0 0
0:00:00.00 363728 N 0 0 0
0:00:00.00 363841 N 0 0 0
0:00:00.00 363971 N 0 0 0
0:00:00.00 364162 N 0 0 0
0:00:00.00 364351 N 0 0 0
0:00:00.00 364504 N 0 0 0
0:00:00.00 364745 N 0 0 0
0:00:00.00 364927 N 0 0 0
0:00:00.00 365206 N 0 0 0
0:00:00.00 365407 N 0 0 0
0:00:00.00 365746 N 0 0 0
0:00:00.00 365891 N 0 0 0
0:00:00.00 366239 N 0 0 0
0:00:00.00 366471 N 0 0 0
0:00:00.00 366682 N 0 0 0
0:00:00.00 367036 N 0 0 0
0:00:00.00 367321 N 0 0 0
0:00:00.00 367434 N 0 0 0
0:00:00.00 367585 N 0 0 0
0:00:00.00 367749 N 0 0 0
0:00:00.00 367992 N 0 0 0
0:00:00.00 368161 N 0 0 0
0:00:00.00 368336 N 0 0 0
0:00:00.00 368471 N 0 0 0
0:00:00.00 368834 N 0 0 0
0:00:00.00 368968 N 0 0 0
0:00:00.00 369218 N 0 0 0
0:00:00.00 369473 N 0 0 0
0:00:00.00 369709 N 0 0 0
0:00:00.00 369923 N 0 0 0
0:00:00.00 370188 N 0 0 0
0:00:00.00 370415 N 0 0 0
0:00:00.00 370762 N 0 0 0
0:00:00.00 370883 N 0 0 0
0:00:00.00 371149 N 0 0 0
0:00:00.00 371333 N 0 0 0
0:00:00.00 371574 N 0 0 0
0:00:00.00 371785 N 0 0 0
0:00:00.00 371938 N 0 0 0
0:00:00.00 372047 N 0 0 0
0:00:00.00 372260 N 0 0 0
0:00:00.00 372337 N 0 0 0
0:00:00.00 372415 N 0 0 0
0:00:00.00 372793 N 0 0 0
0:00:00.00 372933 N 0 0 0
0:00:00.00 373117 N 0 0 0
0:00:00.00 373288 N 0 0 0
0:00:00.00 373622 N 0 0 0
0:00:00.00 373793 N 0 0 0
0:00:00.00 373975 N 0 0 0
0:00:00.00 374112 N 0 0 0
0:00:00.00 374249 N 0 0 0
0:00:00.00 374614 N 0 0 0
0:00:00.00 374738 N 0 0 0
0:00:00.00 375145 N 0 0 0
0:00:00.00 375541 N 0 0 0
0:00:00.00 375802 N 0 0 0
0:00:00.00 376047 N 0 0 0
0:00:00.00 376380 N 0 0 0
0:00:00.00 376630 N 0 0 0
0:00:00.00 376945 N 0 0 0
0:00:00.00 377217 N 0 0 0
0:00:00.00 377332 N 0 0 0
0:00:00.00 377563 N 0 0 0
0:00:00.00 377829 N 0 0 0
0:00:00.00 378063 N 0 0 0
0:00:00.00 378441 N 0 0 0
0:00:00.00 378754 N 0 0 0
0:00:00.00 378977 N 0 0 0
0:00:00.00 379204 N 0 0 0
0:00:00.00 379451 N 0 0 0
0:00:00.00 379568 N 0 0 0
0:00:00.00 379829 N 0 0 0
0:00:00.00 380083 N 0 0 0
0:00:00.00 380335 N 0 0 0
0:00:00.00 380459 N 0 0 0
0:00:00.00 380912 N 0 0 0
0:00:00.00 381049 N 0 0 0
0:00:00.00 381337 N 0 0 0
0:00:00.00 381589 N 0 0 0
0:00:00.00 381812 N 0 0 0
0:00:00.00 381964 N 0 0 0
0:00:00.00 382252 N 0 0 0
0:00:00.00 382556 N 0 0 0
0:00:00.00 382876 N 0 0 0
0:00:00.00 383281 N 0 0 0
0:00:00.00 383467 N 0 0 0
0:00:00.00 383600 N 0 0 0
0:00:00.00 383830 N 0 0 0
0:00:00.00 383949 N 0 0 0
0:00:00.00 384320 N 0 0 0
0:00:00.00 384460 N 0 0 0
0:00:00.00 384752 N 0 0 0
0:00:00.00 385060 N 0 0 0
0:00:00.00 385193 N 0 0 0
0:00:00.00 385319 N 0 0 0
0:00:00.00 385565 N 0 0 0
0:00:00.00 385949 N 0 0 0
0:00:00.00 386086 N 0 0 0
0:00:00.00 386339 N 0 0 0
0:00:00.00 386604 N 0 0 0
0:00:00.00 386881 N 0 0 0
0:00:00.00 387016 N 0 0 0
0:00:00.00 387281 N 0 0 0
0:00:00.00 387425 N 0 0 0
0:00:00.00 387698 N 0 0 0
0:00:00.00 387806 N 0 0 0
0:00:00.00 388150 N 0 0 0
0:00:00.00 388276 N 0 0 0
0:00:00.00 388588 N 0 0 0
0:00:00.00 388917 N 0 0 0
0:00:00.00 389293 N 0 0 0
0:00:00.00 389682 N 0 0 0
0:00:00.00 389938 N 0 0 0
0:00:00.00 390161 N 0 0 0
0:00:00.00 390294 N 0 0 0
0:00:00.00 390402 N 0 0 0
0:00:00.00 390794 N 0 0 0
0:00:00.00 390938 N 0 0 0
0:00:00.00 391338 N 0 0 0
0:00:00.00 391658 N 0 0 0
0:00:00.00 391999 N 0 0 0
0:00:00.00 392188 N 0 0 0
0:00:00.00 392378 N 0 0 0
0:00:00.00 392490 N 0 0 0
0:00:00.00 392765 N 0 0 0
0:00:00.00 393003 N 0 0 0
0:00:00.00 393273 N 0 0 0
0:00:00.00 393408 N 0 0 0
0:00:00.00 393734 N 0 0 0
0:00:00.00 393907 N 0 0 0
0:00:00.00 394139 N 0 0 0
0:00:00.00 394373 N 0 0 0
0:00:00.00 394488 N 0 0 0
0:00:00.00 394706 N 0 0 0
0:00:00.00 394983 N 0 0 0
0:00:00.00 395190 N 0 0 0
0:00:00.00 395449 N 0 0 0
0:00:00.00 395791 N 0 0 0
0:00:00.00 396031 N 0 0 0
0:00:00.00 396529 N 0 0 0
0:00:00.00 396824 N 0 0 0
0:00:00.00 396950 N 0 0 0
0:00:00.00 397064 N 0 0 0
0:00:00.00 397328 N 0 0 0
0:00:00.00 397643 N 0 0 0
0:00:00.00 397971 N 0 0 0
0:00:00.00 398313 N 0 0 0
0:00:00.00 398486 N 0 0 0
0:00:00.00 398785 N 0 0 0
0:00:00.00 399028 N 0 0 0
0:00:00.00 399321 N 0 0 0
0:00:00.00 399595 N 0 0 0
0:00:00.00 399877 N 0 0 0
0:00:00.00 400021 N 0 0 0
0:00:00.00 400336 N 0 0 0
0:00:00.00 400531 N 0 0 0
0:00:00.00 400721 N 0 0 0
0:00:00.00 400910 N 0 0 0
0:00:00.00 401018 N 0 0 0
0:00:00.00 401234 N 0 0 0
0:00:00.00 401539 N 0 0 0
0:00:00.00 401771 N 0 0 0
0:00:00.00 402061 N 0 0 0
0:00:00.00 402277 N 0 0 0
0:00:00.00 402664 N 0 0 0
0:00:00.00 402989 N 0 0 0
0:00:00.00 403180 N 0 0 0
0:00:00.00 403290 N 0 0 0
0:00:00.00 403456 N 0 0 0
0:00:00.00 403677 N 0 0 0
0:00:00.00 403796 N 0 0 0
0:00:00.00 403918 N 0 0 0
0:00:00.00 404080 N 0 0 0
0:00:00.00 404352 N 0 0 0
0:00:00.00 404604 N 0 0 0
0:00:00.00 404831 N 0 0 0
0:00:00.00 404977 N 0 0 0
0:00:00.00 405243 N 0 0 0
0:00:00.00 405373 N 0 0 0
0:00:00.00 405484 N 0 0 0
0:00:00.00 405594 N 0 0 0
0:00:00.00 405772 N 0 0 0
0:00:00.00 405959 N 0 0 0
0:00:00.00 406084 N 0 0 0
0:00:00.00 406474 N 0 0 0
0:00:00.00 406618 N 0 0 0
0:00:00.00 406933 N 0 0 0
0:00:00.00 407198 N 0 0 0
0:00:00.00 407425 N 0 0 0
0:00:00.00 407540 N 0 0 0
0:00:00.00 407626 N 0 0 0
0:00:00.00 407698 N 0 0 0
0:00:00.00 407963 N 0 0 0
0:00:00.00 408269 N 0 0 0
0:00:00.00 408490 N 0 0 0
0:00:00.00 408679 N 0 0 0
0:00:00.00 408890 N 0 0 0
0:00:00.00 409014 N 0 0 0
0:00:00.00 409135 N 0 0 0
0:00:00.00 409255 N 0 0 0
0:00:00.00 409397 N 0 0 0
0:00:00.00 409511 N 0 0 0
0:00:00.00 409774 N 0 0 0
0:00:00.00 409896 N 0 0 0
0:00:00.00 410067 N 0 0 0
0:00:00.00 410170 N 0 0 0
0:00:00.00 410458 N 0 0 0
0:00:00.00 410598 N 0 0 0
0:00:00.00 410958 N 0 0 0
0:00:00.00 411102 N 0 0 0
0:00:00.00 411334 N 0 0 0
0:00:00.00 411570 N 0 0 0
0:00:00.00 411862 N 0 0 0
0:00:00.00 412132 N 0 0 0
0:00:00.00 412519 N 0 0 0
0:00:00.00 412794 N 0 0 0
0:00:00.00 412938 N 0 0 0
0:00:00.00 413255 N 0 0 0
0:00:00.00 413408 N 0 0 0
0:00:00.00 413615 N 0 0 0
0:00:00.00 413919 N 0 0 0
0:00:00.00 414047 N 0 0 0
0:00:00.00 414569 N 0 0 0
0:00:00.00 414716 N 0 0 0
0:00:00.00 414949 N 0 0 0
0:00:00.00 415069 N 0 0 0
0:00:00.00 415199 N 0 0 0
0:00:00.00 415312 N 0 0 0
0:00:00.00 415447 N 0 0 0
0:00:00.00 415804 N 0 0 0
0:00:00.00 415942 N 0 0 0
0:00:00.00 416146 N 0 0 0
0:00:00.00 416344 N 0 0 0
0:00:00.00 416450 N 0 0 0
0:00:00.00 416637 N 0 0 0
0:00:00.00 416893 N 0 0 0
0:00:00.00 417013 N 0 0 0
0:00:00.00 417139 N 0 0 0
0:00:00.00 417382 N 0 0 0
0:00:00.00 417686 N 0 0 0
0:00:00.00 418304 N 0 0 0
0:00:00.00 418435 N 0 0 0
0:00:00.00 418552 N 0 0 0
0:00:00.00 418624 N 0 0 0
0:00:00.00 418795 N 0 0 0
0:00:00.00 418936 N 0 0 0
0:00:00.00 419150 N 0 0 0
0:00:00.00 419222 N 0 0 0
0:00:00.00 419294 N 0 0 0
0:00:00.00 419368 N 0 0 0
0:00:00.00 419611 N 0 0 0
0:00:00.00 419684 N 0 0 0
0:00:00.00 419760 N 0 0 0
0:00:00.00 419832 N 0 0 0
0:00:00.00 419992 N 0 0 0
0:00:00.00 420124 N 0 0 0
0:00:00.00 420277 N 0 0 0
0:00:00.00 420482 N 0 0 0
0:00:00.00 420705 N 0 0 0
0:00:00.00 421016 N 0 0 0
0:00:00.00 421191 N 0 0 0
0:00:00.00 421319 N 0 0 0
0:00:00.00 421630 N 0 0 0
0:00:00.00 421886 N 0 0 0
0:00:00.00 422140 N 0 0 0
0:00:00.00 422393 N 0 0 0
0:00:00.00 422509 N 0 0 0
0:00:00.00 422746 N 0 0 0
0:00:00.00 422978 N 0 0 0
0:00:00.00 423292 N 0 0 0
0:00:00.00 423427 N 0 0 0
0:00:00.00 423718 N 0 0 0
0:00:00.00 424078 N 0 0 0
0:00:00.00 424346 N 0 0 0
0:00:00.00 424584 N 0 0 0
0:00:00.00 424742 N 0 0 0
0:00:00.00 424931 N 0 0 0
0:00:00.00 425227 N 0 0 0
0:00:00.00 425601 N 0 0 0
0:00:00.00 425799 N 0 0 0
0:00:00.00 426015 N 0 0 0
0:00:00.00 426136 N 0 0 0
0:00:00.00 426253 N 0 0 0
0:00:00.00 426418 N 0 0 0
0:00:00.00 426692 N 0 0 0
0:00:00.00 426872 N 0 0 0
0:00:00.00 427181 N 0 0 0
0:00:00.00 427446 N 0 0 0
0:00:00.00 427694 N 0 0 0
0:00:00.00 427910 N 0 0 0
0:00:00.00 428130 N 0 0 0
0:00:00.00 428279 N 0 0 0
0:00:00.00 428405 N 0 0 0
0:00:00.00 428549 N 0 0 0
0:00:00.00 428657 N 0 0 0
0:00:00.00 428845 N 0 0 0
0:00:00.00 429037 N 0 0 0
0:00:00.00 429314 N 0 0 0
0:00:00.00 429604 N 0 0 0
0:00:00.00 429849 N 0 0 0
0:00:00.00 430038 N 0 0 0
0:00:00.00 430357 N 0 0 0
0:00:00.00 430628 N 0 0 0
0:00:00.00 430754 N 0 0 0
0:00:00.00 431089 N 0 0 0
0:00:00.00 431305 N 0 0 0
0:00:00.00 431449 N 0 0 0
0:00:00.00 431577 N 0 0 0
0:00:00.00 431843 N 0 0 0
0:00:00.00 431982 N 0 0 0
0:00:00.00 432329 N 0 0 0
0:00:00.00 432632 N 0 0 0
0:00:00.00 432889 N 0 0 0
0:00:00.00 433013 N 0 0 0
0:00:00.00 433273 N 0 0 0
0:00:00.00 433519 N 0 0 0
0:00:00.00 433784 N 0 0 0
0:00:00.00 433969 N 0 0 0
0:00:00.00 434183 N 0 0 0
0:00:00.00 434351 N 0 0 0
0:00:00.00 434563 N 0 0 0
0:00:00.00 434806 N 0 0 0
0:00:00.00 435089 N 0 0 0
0:00:00.00 435281 N 0 0 0
0:00:00.00 435506 N 0 0 0
0:00:00.00 435778 N 0 0 0
0:00:00.00 435994 N 0 0 0
0:00:00.00 436259 N 0 0 0
0:00:00.00 436606 N 0 0 0
0:00:00.00 436741 N 0 0 0
0:00:00.00 436889 N 0 0 0
0:00:00.00 437110 N 0 0 0
0:00:00.00 437350 N 0 0 0
0:00:00.00 437470 N 0 0 0
0:00:00.00 437589 N 0 0 0
0:00:00.00 437762 N 0 0 0
0:00:00.00 437895 N 0 0 0
0:00:00.00 438032 N 0 0 0
0:00:00.00 438172 N 0 0 0
0:00:00.00 438437 N 0 0 0
0:00:00.00 438581 N 0 0 0
0:00:00.00 438804 N 0 0 0
0:00:00.00 439054 N 0 0 0
0:00:00.00 439238 N 0 0 0
0:00:00.00 439376 N 0 0 0
0:00:00.00 439711 N 0 0 0
0:00:00.00 439841 N 0 0 0
0:00:00.00 440093 N 0 0 0
0:00:00.00 440347 N 0 0 0
0:00:00.00 440654 N 0 0 0
0:00:00.00 440892 N 0 0 0
0:00:00.00 441110 N 0 0 0
0:00:00.00 441421 N 0 0 0
0:00:00.00 441727 N 0 0 0
0:00:00.00 441999 N 0 0 0
0:00:00.00 442195 N 0 0 0
0:00:00.00 442483 N 0 0 0
0:00:00.00 442822 N 0 0 0
0:00:00.00 443111 N 0 0 0
0:00:00.00 443417 N 0 0 0
0:00:00.00 443545 N 0 0 0
0:00:00.00 443698 N 0 0 0
0:00:00.00 444046 N 0 0 0
0:00:00.00 444173 N 0 0 0
0:00:00.00 444357 N 0 0 0
0:00:00.00 444530 N 0 0 0
0:00:00.00 444789 N 0 0 0
0:00:00.00 445205 N 0 0 0
0:00:00.00 445624 N 0 0 0
0:00:00.00 445918 N 0 0 0
0:00:00.00 446218 N 0 0 0
0:00:00.00 446483 N 0 0 0
0:00:00.00 446737 N 0 0 0
0:00:00.00 446999 N 0 0 0
0:00:00.00 447187 N 0 0 0
0:00:00.00 447329 N 0 0 0
0:00:00.00 447466 N 0 0 0
0:00:00.00 447867 N 0 0 0
0:00:00.00 448007 N 0 0 0
0:00:00.00 448371 N 0 0 0
0:00:00.00 448594 N 0 0 0
0:00:00.00 448947 N 0 0 0
0:00:00.00 449222 N 0 0 0
0:00:00.00 449370 N 0 0 0
0:00:00.00 449674 N 0 0 0
0:00:00.00 449991 N 0 0 0
0:00:00.00 450259 N 0 0 0
0:00:00.00 450524 N 0 0 0
0:00:00.00 450801 N 0 0 0
0:00:00.00 451085 N 0 0 0
0:00:00.00 451235 N 0 0 0
0:00:00.00 451363 N 0 0 0
0:00:00.00 451616 N 0 0 0
0:00:00.00 451780 N 0 0 0
0:00:00.00 452048 N 0 0 0
0:00:00.00 452376 N 0 0 0
0:00:00.00 452623 N 0 0 0
0:00:00.00 452763 N 0 0 0
0:00:00.00 453121 N 0 0 0
0:00:00.00 453271 N 0 0 0
0:00:00.00 453596 N 0 0 0
0:00:00.00 453839 N 0 0 0
0:00:00.00 454077 N 0 0 0
0:00:00.00 454484 N 0 0 0
0:00:00.00 454846 N 0 0 0
0:00:00.00 455040 N 0 0 0
0:00:00.00 455166 N 0 0 0
0:00:00.00 455391 N 0 0 0
0:00:00.00 455623 N 0 0 0
0:00:00.00 455837 N 0 0 0
0:00:00.00 455992 N 0 0 0
0:00:00.00 456277 N 0 0 0
0:00:00.00 456493 N 0 0 0
0:00:00.00 456737 N 0 0 0
0:00:00.00 456854 N 0 0 0
0:00:00.00 456964 N 0 0 0
0:00:00.00 457119 N 0 0 0
0:00:00.00 457216 N 0 0 0
0:00:00.00 457355 N 0 0 0
0:00:00.00 457470 N 0 0 0
0:00:00.00 457726 N 0 0 0
0:00:00.00 457949 N 0 0 0
0:00:00.00 458023 N 0 0 0
0:00:00.00 458095 N 0 0 0
0:00:00.00 458168 N 0 0 0
0:00:00.00 458345 N 0 0 0
0:00:00.00 458471 N 0 0 0
0:00:00.00 458555 N 0 0 0
0:00:00.00 458627 N 0 0 0
0:00:00.00 458708 N 0 0 0
0:00:00.00 458851 N 0 0 0
0:00:00.00 459061 N 0 0 0
0:00:00.00 459227 N 0 0 0
0:00:00.00 459434 N 0 0 0
0:00:00.00 459697 N 0 0 0
0:00:00.00 459855 N 0 0 0
0:00:00.00 460078 N 0 0 0
0:00:00.00 460249 N 0 0 0
0:00:00.00 460431 N 0 0 0
0:00:00.00 460582 N 0 0 0
0:00:00.00 460834 N 0 0 0
0:00:00.00 461088 N 0 0 0
0:00:00.00 461390 N 0 0 0
0:00:00.00 461695 N 0 0 0
0:00:00.00 461875 N 0 0 0
0:00:00.00 462022 N 0 0 0
0:00:00.00 462157 N 0 0 0
0:00:00.00 462283 N 0 0 0
0:00:00.00 462438 N 0 0 0
0:00:00.00 462663 N 0 0 0
0:00:00.00 462902 N 0 0 0
0:00:00.00 463043 N 0 0 0
0:00:00.00 463169 N 0 0 0
0:00:00.00 463356 N 0 0 0
0:00:00.00 463799 N 0 0 0
0:00:00.00 463932 N 0 0 0
0:00:00.00 464170 N 0 0 0
0:00:00.00 464371 N 0 0 0
0:00:00.00 464679 N 0 0 0
0:00:00.00 464940 N 0 0 0
0:00:00.00 465188 N 0 0 0
0:00:00.00 465455 N 0 0 0
0:00:00.00 465617 N 0 0 0
0:00:00.00 465966 N 0 0 0
0:00:00.00 466132 N 0 0 0
0:00:00.00 466456 N 0 0 0
0:00:00.00 466722 N 0 0 0
0:00:00.00 467098 N 0 0 0
0:00:00.00 467438 N 0 0 0
0:00:00.00 467635 N 0 0 0
0:00:00.00 467932 N 0 0 0
0:00:00.00 468056 N 0 0 0
0:00:00.00 468401 N 0 0 0
0:00:00.00 468736 N 0 0 0
0:00:00.00 469010 N 0 0 0
0:00:00.00 469258 N 0 0 0
0:00:00.00 469535 N 0 0 0
0:00:00.00 469791 N 0 0 0
0:00:00.00 470050 N 0 0 0
0:00:00.00 470216 N 0 0 0
0:00:00.00 470507 N 0 0 0
0:00:00.00 470678 N 0 0 0
0:00:00.00 470801 N 0 0 0
0:00:00.00 470948 N 0 0 0
0:00:00.00 471294 N 0 0 0
0:00:00.00 471436 N 0 0 0
0:00:00.00 471800 N 0 0 0
0:00:00.00 471928 N 0 0 0
0:00:00.00 472172 N 0 0 0
0:00:00.00 472525 N 0 0 0
0:00:00.00 472802 N 0 0 0
0:00:00.00 473162 N 0 0 0
0:00:00.00 473436 N 0 0 0
0:00:00.00 473650 N 0 0 0
0:00:00.00 473789 N 0 0 0
0:00:00.00 474007 N 0 0 0
0:00:00.00 474385 N 0 0 0
0:00:00.00 474804 N 0 0 0
0:00:00.00 475052 N 0 0 0
0:00:00.00 475360 N 0 0 0
0:00:00.00 475598 N 0 0 0
0:00:00.00 475834 N 0 0 0
0:00:00.00 476215 N 0 0 0
0:00:00.00 476460 N 0 0 0
0:00:00.00 476573 N 0 0 0
0:00:00.00 476914 N 0 0 0
0:00:00.00 477272 N 0 0 0
0:00:00.00 477565 N 0 0 0
0:00:00.00 477697 N 0 0 0
0:00:00.00 477808 N 0 0 0
0:00:00.00 478202 N 0 0 0
0:00:00.00 478328 N 0 0 0
0:00:00.00 478647 N 0 0 0
0:00:00.00 479027 N 0 0 0
0:00:00.00 479376 N 0 0 0
0:00:00.00 479673 N 0 0 0
0:00:00.00 479956 N 0 0 0
0:00:00.00 480202 N 0 0 0
0:00:00.00 480454 N 0 0 0
0:00:00.00 480578 N 0 0 0
0:00:00.00 480899 N 0 0 0
0:00:00.00 481145 N 0 0 0
0:00:00.00 481448 N 0 0 0
0:00:00.00 481696 N 0 0 0
0:00:00.00 481903 N 0 0 0
0:00:00.00 482029 N 0 0 0
0:00:00.00 482184 N 0 0 0
0:00:00.00 482416 N 0 0 0
0:00:00.00 482603 N 0 0 0
0:00:00.00 482866 N 0 0 0
0:00:00.00 483124 N 0 0 0
0:00:00.00 483323 N 0 0 0
0:00:00.00 483507 N 0 0 0
0:00:00.00 483655 N 0 0 0
0:00:00.00 483871 N 0 0 0
0:00:00.00 484159 N 0 0 0
0:00:00.00 484364 N 0 0 0
0:00:00.00 484475 N 0 0 0
0:00:00.00 484632 N 0 0 0
0:00:00.00 484862 N 0 0 0
0:00:00.00 484970 N 0 0 0
0:00:00.00 485212 N 0 0 0
0:00:00.00 485379 N 0 0 0
0:00:00.00 485665 N 0 0 0
0:00:00.00 485914 N 0 0 0
0:00:00.00 486182 N 0 0 0
0:00:00.00 486320 N 0 0 0
0:00:00.00 486668 N 0 0 0
0:00:00.00 486961 N 0 0 0
0:00:00.00 487190 N 0 0 0
0:00:00.00 487417 N 0 0 0
0:00:00.00 487705 N 0 0 0
0:00:00.00 487969 N 0 0 0
0:00:00.00 488322 N 0 0 0
0:00:00.00 488461 N 0 0 0
0:00:00.00 488842 N 0 0 0
0:00:00.00 488997 N 0 0 0
0:00:00.00 489298 N 0 0 0
0:00:00.00 489479 N 0 0 0
0:00:00.00 489690 N 0 0 0
0:00:00.00 489866 N 0 0 0
0:00:00.00 490091 N 0 0 0
0:00:00.00 490304 N 0 0 0
0:00:00.00 490451 N 0 0 0
0:00:00.00 490732 N 0 0 0
0:00:00.00 490882 N 0 0 0
0:00:00.00 491135 N 0 0 0
0:00:00.00 491398 N 0 0 0
0:00:00.00 491668 N 0 0 0
0:00:00.00 491992 N 0 0 0
0:00:00.00 492250 N 0 0 0
0:00:00.00 492536 N 0 0 0
0:00:00.00 492748 N 0 0 0
0:00:00.00 493018 N 0 0 0
0:00:00.00 493259 N 0 0 0
0:00:00.00 493531 N 0 0 0
0:00:00.00 493682 N 0 0 0
0:00:00.00 493922 N 0 0 0
0:00:00.00 494329 N 0 0 0
0:00:00.00 494627 N 0 0 0
0:00:00.00 494858 N 0 0 0
0:00:00.00 495169 N 0 0 0
0:00:00.00 495389 N 0 0 0
0:00:00.00 495686 N 0 0 0
0:00:00.00 495918 N 0 0 0
0:00:00.00 496206 N 0 0 0
0:00:00.00 496478 N 0 0 0
0:00:00.00 496733 N 0 0 0
0:00:00.00 497068 N 0 0 0
0:00:00.00 497273 N 0 0 0
0:00:00.00 497455 N 0 0 0
0:00:00.00 497729 N 0 0 0
0:00:00.00 497970 N 0 0 0
0:00:00.00 498168 N 0 0 0
0:00:00.00 498413 N 0 0 0
0:00:00.00 498622 N 0 0 0
0:00:00.00 498870 N 0 0 0
0:00:00.00 499136 N 0 0 0
0:00:00.00 499374 N 0 0 0
0:00:00.00 499689 N 0 0 0
0:00:00.00 499858 N 0 0 0
0:00:00.00 500099 N 0 0 0
0:00:00.00 500306 N 0 0 0
0:00:00.00 500474 N 0 0 0
0:00:00.00 500722 N 0 0 0
0:00:00.00 501035 N 0 0 0
0:00:00.00 501334 N 0 0 0
0:00:00.00 501469 N 0 0 0
0:00:00.00 501572 N 0 0 0
0:00:00.00 501829 N 0 0 0
0:00:00.00 502056 N 0 0 0
0:00:00.00 502254 N 0 0 0
0:00:00.00 502524 N 0 0 0
0:00:00.00 502834 N 0 0 0
0:00:00.00 503060 N 0 0 0
0:00:00.00 503267 N 0 0 0
0:00:00.00 503478 N 0 0 0
0:00:00.00 503777 N 0 0 0
0:00:00.00 504016 N 0 0 0
0:00:00.00 504322 N 0 0 0
0:00:00.00 504536 N 0 0 0
0:00:00.00 504713 N 0 0 0
0:00:00.00 504958 N 0 0 0
0:00:00.00 505172 N 0 0 0
0:00:00.00 505384 N 0 0 0
0:00:00.00 505532 N 0 0 0
0:00:00.00 505676 N 0 0 0
0:00:00.00 505843 N 0 0 0
0:00:00.00 506065 N 0 0 0
0:00:00.00 506322 N 0 0 0
0:00:00.00 506534 N 0 0 0
0:00:00.00 506678 N 0 0 0
0:00:00.00 506817 N 0 0 0
0:00:00.00 507087 N 0 0 0
0:00:00.00 507217 N 0 0 0
0:00:00.00 507362 N 0 0 0
0:00:00.00 507476 N 0 0 0
0:00:00.00 507708 N 0 0 0
0:00:00.00 507868 N 0 0 0
0:00:00.00 507987 N 0 0 0
0:00:00.00 508064 N 0 0 0
0:00:00.00 508167 N 0 0 0
0:00:00.00 508288 N 0 0 0
0:00:00.00 508360 N 0 0 0
0:00:00.00 508617 N 0 0 0
0:00:00.00 508759 N 0 0 0
0:00:00.00 508999 N 0 0 0
0:00:00.00 509121 N 0 0 0
0:00:00.00 509249 N 0 0 0
0:00:00.00 509366 N 0 0 0
0:00:00.00 509704 N 0 0 0
0:00:00.00 509837 N 0 0 0
0:00:00.00 510102 N 0 0 0
0:00:00.00 510235 N 0 0 0
0:00:00.00 510502 N 0 0 0
0:00:00.00 510716 N 0 0 0
0:00:00.00 510849 N 0 0 0
0:00:00.00 511114 N 0 0 0
0:00:00.00 511252 N 0 0 0
0:00:00.00 511659 N 0 0 0
0:00:00.00 511821 N 0 0 0
0:00:00.00 512001 N 0 0 0
0:00:00.00 512221 N 0 0 0
0:00:00.00 512341 N 0 0 0
0:00:00.00 512485 N 0 0 0
0:00:00.00 512755 N 0 0 0
0:00:00.00 512986 N 0 0 0
0:00:00.00 513275 N 0 0 0
0:00:00.00 513396 N 0 0 0
0:00:00.00 513668 N 0 0 0
0:00:00.00 513817 N 0 0 0
0:00:00.00 513950 N 0 0 0
0:00:00.00 514028 N 0 0 0
0:00:00.00 514141 N 0 0 0
0:00:00.00 514395 N 0 0 0
0:00:00.00 514660 N 0 0 0
0:00:00.00 514766 N 0 0 0
0:00:00.00 514838 N 0 0 0
0:00:00.00 515081 N 0 0 0
0:00:00.00 515293 N 0 0 0
0:00:00.00 515453 N 0 0 0
0:00:00.00 515594 N 0 0 0
0:00:00.00 515912 N 0 0 0
0:00:00.00 516445 N 0 0 0
0:00:00.00 516735 N 0 0 0
0:00:00.00 517064 N 0 0 0
0:00:00.00 517221 N 0 0 0
0:00:00.00 517498 N 0 0 0
0:00:00.00 517642 N 0 0 0
0:00:00.00 517885 N 0 0 0
0:00:00.00 518056 N 0 0 0
0:00:00.00 518305 N 0 0 0
0:00:00.00 518427 N 0 0 0
0:00:00.00 518549 N 0 0 0
0:00:00.00 518836 N 0 0 0
0:00:00.00 518911 N 0 0 0
0:00:00.00 518987 N 0 0 0
0:00:00.00 519183 N 0 0 0
0:00:00.00 519403 N 0 0 0
0:00:00.00 519619 N 0 0 0
0:00:00.00 519867 N 0 0 0
0:00:00.00 520033 N 0 0 0
0:00:00.00 520191 N 0 0 0
0:00:00.00 520324 N 0 0 0
0:00:00.00 520558 N 0 0 0
0:00:00.00 520855 N 0 0 0
0:00:00.00 521116 N 0 0 0
0:00:00.00 521300 N 0 0 0
0:00:00.00 521519 N 0 0 0
0:00:00.00 521766 N 0 0 0
0:00:00.00 521885 N 0 0 0
0:00:00.00 522220 N 0 0 0
0:00:00.00 522362 N 0 0 0
0:00:00.00 522504 N 0 0 0
0:00:00.00 522758 N 0 0 0
0:00:00.00 522895 N 0 0 0
0:00:00.00 523249 N 0 0 0
0:00:00.00 523512 N 0 0 0
0:00:00.00 523766 N 0 0 0
0:00:00.00 524059 N 0 0 0
0:00:00.00 524378 N 0 0 0
0:00:00.00 524632 N 0 0 0
0:00:00.00 524779 N 0 0 0
0:00:00.00 525087 N 0 0 0
0:00:00.00 525339 N 0 0 0
0:00:00.00 525605 N 0 0 0
0:00:00.00 525911 N 0 0 0
0:00:00.00 526104 N 0 0 0
0:00:00.00 526306 N 0 0 0
0:00:00.00 526448 N 0 0 0
0:00:00.00 526563 N 0 0 0
0:00:00.00 526815 N 0 0 0
0:00:00.00 527096 N 0 0 0
0:00:00.00 527429 N 0 0 0
0:00:00.00 527828 N 0 0 0
0:00:00.00 528079 N 0 0 0
0:00:00.00 528487 N 0 0 0
0:00:00.00 528836 N 0 0 0
0:00:00.00 529018 N 0 0 0
0:00:00.00 529286 N 0 0 0
0:00:00.00 529612 N 0 0 0
0:00:00.00 529848 N 0 0 0
0:00:00.00 529987 N 0 0 0
0:00:00.00 530199 N 0 0 0
0:00:00.00 530496 N 0 0 0
0:00:00.00 530735 N 0 0 0
0:00:00.00 530885 N 0 0 0
0:00:00.00 531027 N 0 0 0
0:00:00.00 531157 N 0 0 0
0:00:00.00 531394 N 0 0 0
0:00:00.00 531623 N 0 0 0
0:00:00.00 531992 N 0 0 0
0:00:00.00 532201 N 0 0 0
0:00:00.00 532424 N 0 0 0
0:00:00.00 532670 N 0 0 0
0:00:00.00 532867 N 0 0 0
0:00:00.00 533185 N 0 0 0
0:00:00.00 533484 N 0 0 0
0:00:00.00 533907 N 0 0 0
0:00:00.00 534215 N 0 0 0
0:00:00.00 534343 N 0 0 0
0:00:00.00 534659 N 0 0 0
0:00:00.00 534987 N 0 0 0
0:00:00.00 535185 N 0 0 0
0:00:00.00 535356 N 0 0 0
0:00:00.00 535457 N 0 0 0
0:00:00.00 535595 N 0 0 0
0:00:00.00 535837 N 0 0 0
0:00:00.00 535912 N 0 0 0
0:00:00.00 536999 N 0 0 0
0:00:00.00 537088 N 0 0 0
0:00:00.00 537210 N 0 0 0
0:00:00.00 537327 N 0 0 0
0:00:00.00 537435 N 0 0 0
0:00:00.00 537660 N 0 0 0
0:00:00.00 538002 N 0 0 0
0:00:00.00 538231 N 0 0 0
0:00:00.00 538567 N 0 0 0
0:00:00.00 538796 N 0 0 0
0:00:00.00 538933 N 0 0 0
0:00:00.00 539010 N 0 0 0
0:00:00.00 539131 N 0 0 0
0:00:00.00 539203 N 0 0 0
0:00:00.00 539370 N 0 0 0
0:00:00.00 539539 N 0 0 0
0:00:00.00 539834 N 0 0 0
0:00:00.00 539998 N 0 0 0
0:00:00.00 540401 N 0 0 0
0:00:00.00 540664 N 0 0 0
0:00:00.00 540927 N 0 0 0
0:00:00.00 541100 N 0 0 0
0:00:00.00 541256 N 0 0 0
0:00:00.00 541474 N 0 0 0
0:00:00.00 541750 N 0 0 0
0:00:00.00 542036 N 0 0 0
0:00:00.00 542333 N 0 0 0
0:00:00.00 542624 N 0 0 0
0:00:00.00 542790 N 0 0 0
0:00:00.00 543035 N 0 0 0
0:00:00.00 543272 N 0 0 0
0:00:00.00 543575 N 0 0 0
0:00:00.00 543809 N 0 0 0
0:00:00.00 544034 N 0 0 0
0:00:00.00 544313 N 0 0 0
0:00:00.00 544541 N 0 0 0
0:00:00.00 544693 N 0 0 0
0:00:00.00 544945 N 0 0 0
0:00:00.00 545206 N 0 0 0
0:00:00.00 545503 N 0 0 0
0:00:00.00 545756 N 0 0 0
0:00:00.00 545908 N 0 0 0
0:00:00.00 546046 N 0 0 0
0:00:00.00 546151 N 0 0 0
0:00:00.00 546379 N 0 0 0
0:00:00.00 546516 N 0 0 0
0:00:00.00 546833 N 0 0 0
0:00:00.00 547009 N 0 0 0
0:00:00.00 547168 N 0 0 0
0:00:00.00 547391 N 0 0 0
0:00:00.00 547558 N 0 0 0
0:00:00.00 547936 N 0 0 0
0:00:00.00 548071 N 0 0 0
0:00:00.00 548528 N 0 0 0
0:00:00.00 548951 N 0 0 0
0:00:00.00 549119 N 0 0 0
0:00:00.00 549362 N 0 0 0
0:00:00.00 549583 N 0 0 0
0:00:00.00 549697 N 0 0 0
0:00:00.00 549806 N 0 0 0
0:00:00.00 550004 N 0 0 0
0:00:00.00 550264 N 0 0 0
0:00:00.00 550498 N 0 0 0
0:00:00.00 550730 N 0 0 0
0:00:00.00 550989 N 0 0 0
0:00:00.00 551275 N 0 0 0
0:00:00.00 551416 N 0 0 0
0:00:00.00 551754 N 0 0 0
0:00:00.00 551979 N 0 0 0
0:00:00.00 552229 N 0 0 0
0:00:00.00 552479 N 0 0 0
0:00:00.00 552607 N 0 0 0
0:00:00.00 552807 N 0 0 0
0:00:00.00 552974 N 0 0 0
0:00:00.00 553246 N 0 0 0
0:00:00.00 553482 N 0 0 0
0:00:00.00 553721 N 0 0 0
0:00:00.00 553833 N 0 0 0
0:00:00.00 554060 N 0 0 0
0:00:00.00 554198 N 0 0 0
0:00:00.00 554429 N 0 0 0
0:00:00.00 554661 N 0 0 0
0:00:00.00 554866 N 0 0 0
0:00:00.00 555124 N 0 0 0
0:00:00.00 555358 N 0 0 0
0:00:00.00 555655 N 0 0 0
0:00:00.00 555935 N 0 0 0
0:00:00.00 556214 N 0 0 0
0:00:00.00 556409 N 0 0 0
0:00:00.00 556646 N 0 0 0
0:00:00.00 556841 N 0 0 0
0:00:00.00 557084 N 0 0 0
0:00:00.00 557323 N 0 0 0
0:00:00.00 557530 N 0 0 0
0:00:00.00 557770 N 0 0 0
0:00:00.00 557996 N 0 0 0
0:00:00.00 558247 N 0 0 0
0:00:00.00 558371 N 0 0 0
0:00:00.00 558481 N 0 0 0
0:00:00.00 558612 N 0 0 0
0:00:00.00 558842 N 0 0 0
0:00:00.00 558968 N 0 0 0
0:00:00.00 559460 N 0 0 0
0:00:00.00 559609 N 0 0 0
0:00:00.00 559969 N 0 0 0
0:00:00.00 560205 N 0 0 0
0:00:00.00 560437 N 0 0 0
0:00:00.00 560696 N 0 0 0
0:00:00.00 560817 N 0 0 0
0:00:00.00 561101 N 0 0 0
0:00:00.00 561312 N 0 0 0
0:00:00.00 561487 N 0 0 0
0:00:00.00 561830 N 0 0 0
0:00:00.00 562145 N 0 0 0
0:00:00.00 562356 N 0 0 0
0:00:00.00 562502 N 0 0 0
0:00:00.00 562756 N 0 0 0
0:00:00.00 562934 N 0 0 0
0:00:00.00 563080 N 0 0 0
0:00:00.00 563375 N 0 0 0
0:00:00.00 563566 N 0 0 0
0:00:00.00 563855 N 0 0 0
0:00:00.00 563985 N 0 0 0
0:00:00.00 564253 N 0 0 0
0:00:00.00 564464 N 0 0 0
0:00:00.00 564824 N 0 0 0
0:00:00.00 564998 N 0 0 0
0:00:00.00 565166 N 0 0 0
0:00:00.00 565376 N 0 0 0
0:00:00.00 565578 N 0 0 0
0:00:00.00 565830 N 0 0 0
0:00:00.00 566120 N 0 0 0
0:00:00.00 566429 N 0 0 0
0:00:00.00 566588 N 0 0 0
0:00:00.00 566869 N 0 0 0
0:00:00.00 567041 N 0 0 0
0:00:00.00 567407 N 0 0 0
0:00:00.00 567610 N 0 0 0
0:00:00.00 567743 N 0 0 0
0:00:00.00 567868 N 0 0 0
0:00:00.00 568112 N 0 0 0
0:00:00.00 568391 N 0 0 0
0:00:00.00 568525 N 0 0 0
0:00:00.00 568924 N 0 0 0
0:00:00.00 569059 N 0 0 0
0:00:00.00 569387 N 0 0 0
0:00:00.00 569822 N 0 0 0
0:00:00.00 570137 N 0 0 0
0:00:00.00 570404 N 0 0 0
0:00:00.00 570533 N 0 0 0
0:00:00.00 570769 N 0 0 0
0:00:00.00 571072 N 0 0 0
0:00:00.00 571199 N 0 0 0
0:00:00.00 571408 N 0 0 0
0:00:00.00 571709 N 0 0 0
0:00:00.00 572072 N 0 0 0
0:00:00.00 572279 N 0 0 0
0:00:00.00 572706 N 0 0 0
0:00:00.00 572989 N 0 0 0
0:00:00.00 573228 N 0 0 0
0:00:00.00 573347 N 0 0 0
0:00:00.00 573469 N 0 0 0
0:00:00.00 573763 N 0 0 0
0:00:00.00 574002 N 0 0 0
0:00:00.00 574247 N 0 0 0
0:00:00.00 574366 N 0 0 0
0:00:00.00 574643 N 0 0 0
0:00:00.00 574909 N 0 0 0
0:00:00.00 575280 N 0 0 0
0:00:00.00 575444 N 0 0 0
0:00:00.00 575622 N 0 0 0
0:00:00.00 575856 N 0 0 0
0:00:00.00 576095 N 0 0 0
0:00:00.00 576385 N 0 0 0
0:00:00.00 576542 N 0 0 0
0:00:00.00 576794 N 0 0 0
0:00:00.00 577004 N 0 0 0
0:00:00.00 577298 N 0 0 0
0:00:00.00 577422 N 0 0 0
0:00:00.00 577627 N 0 0 0
0:00:00.00 577876 N 0 0 0
0:00:00.00 577991 N 0 0 0
0:00:00.00 578097 N 0 0 0
0:00:00.00 578203 N 0 0 0
0:00:00.00 578336 N 0 0 0
0:00:00.00 578461 N 0 0 0
0:00:00.00 578583 N 0 0 0
0:00:00.00 578705 N 0 0 0
0:00:00.00 578837 N 0 0 0
0:00:00.00 578979 N 0 0 0
0:00:00.00 579139 N 0 0 0
0:00:00.00 579265 N 0 0 0
0:00:00.00 579388 N 0 0 0
0:00:00.00 579537 N 0 0 0
0:00:00.00 579661 N 0 0 0
0:00:00.00 579884 N 0 0 0
0:00:00.00 580216 N 0 0 0
0:00:00.00 580351 N 0 0 0
0:00:00.00 580489 N 0 0 0
0:00:00.00 580864 N 0 0 0
0:00:00.00 581108 N 0 0 0
0:00:00.00 581254 N 0 0 0
0:00:00.00 581508 N 0 0 0
0:00:00.00 581645 N 0 0 0
0:00:00.00 581762 N 0 0 0
0:00:00.00 581963 N 0 0 0
0:00:00.00 582223 N 0 0 0
0:00:00.00 582451 N 0 0 0
0:00:00.00 582763 N 0 0 0
0:00:00.00 582939 N 0 0 0
0:00:00.00 583157 N 0 0 0
0:00:00.00 583281 N 0 0 0
0:00:00.00 583531 N 0 0 0
0:00:00.00 583819 N 0 0 0
0:00:00.00 584123 N 0 0 0
0:00:00.00 584428 N 0 0 0
0:00:00.00 584640 N 0 0 0
0:00:00.00 584872 N 0 0 0
0:00:00.00 585000 N 0 0 0
0:00:00.00 585365 N 0 0 0
0:00:00.00 585538 N 0 0 0
0:00:00.00 585851 N 0 0 0
0:00:00.00 585994 N 0 0 0
0:00:00.00 586294 N 0 0 0
0:00:00.00 586519 N 0 0 0
0:00:00.00 586910 N 0 0 0
0:00:00.00 587137 N 0 0 0
0:00:00.00 587387 N 0 0 0
0:00:00.00 587682 N 0 0 0
0:00:00.00 587889 N 0 0 0
0:00:00.00 588037 N 0 0 0
0:00:00.00 588303 N 0 0 0
0:00:00.00 588559 N 0 0 0
0:00:00.00 588773 N 0 0 0
0:00:00.00 589102 N 0 0 0
0:00:00.00 589343 N 0 0 0
0:00:00.00 589669 N 0 0 0
0:00:00.00 589806 N 0 0 0
0:00:00.00 589932 N 0 0 0
0:00:00.00 590071 N 0 0 0
0:00:00.00 590312 N 0 0 0
0:00:00.00 590629 N 0 0 0
0:00:00.00 590783 N 0 0 0
0:00:00.00 591059 N 0 0 0
0:00:00.00 591318 N 0 0 0
0:00:00.00 591595 N 0 0 0
0:00:00.00 591871 N 0 0 0
0:00:00.00 592157 N 0 0 0
0:00:00.00 592452 N 0 0 0
0:00:00.00 592657 N 0 0 0
0:00:00.00 592871 N 0 0 0
0:00:00.00 593159 N 0 0 0
0:00:00.00 593375 N 0 0 0
0:00:00.00 593514 N 0 0 0
0:00:00.00 593773 N 0 0 0
0:00:00.00 594054 N 0 0 0
0:00:00.00 594299 N 0 0 0
0:00:00.00 594610 N 0 0 0
0:00:00.00 594893 N 0 0 0
0:00:00.00 595139 N 0 0 0
0:00:00.00 595391 N 0 0 0
0:00:00.00 595643 N 0 0 0
0:00:00.00 595881 N 0 0 0
0:00:00.00 596167 N 0 0 0
0:00:00.00 596509 N 0 0 0
0:00:00.00 596646 N 0 0 0
0:00:00.00 596779 N 0 0 0
0:00:00.00 597020 N 0 0 0
0:00:00.00 597163 N 0 0 0
0:00:00.00 597384 N 0 0 0
0:00:00.00 597643 N 0 0 0
0:00:00.00 597814 N 0 0 0
0:00:00.00 598090 N 0 0 0
0:00:00.00 598266 N 0 0 0
0:00:00.00 598495 N 0 0 0
0:00:00.00 598781 N 0 0 0
0:00:00.00 599027 N 0 0 0
0:00:00.00 599265 N 0 0 0
0:00:00.00 599391 N 0 0 0
0:00:00.00 599506 N 0 0 0
0:00:00.00 599756 N 0 0 0
0:00:00.00 599875 N 0 0 0
0:00:00.00 600208 N 0 0 0
0:00:00.00 600503 N 0 0 0
0:00:00.00 600637 N 0 0 0
0:00:00.00 600914 N 0 0 0
0:00:00.00 601193 N 0 0 0
0:00:00.00 601380 N 0 0 0
0:00:00.00 601610 N 0 0 0
0:00:00.00 601727 N 0 0 0
0:00:00.00 601951 N 0 0 0
0:00:00.00 602165 N 0 0 0
0:00:00.00 602431 N 0 0 0
0:00:00.00 602719 N 0 0 0
0:00:00.00 602878 N 0 0 0
0:00:00.00 603000 N 0 0 0
0:00:00.00 603151 N 0 0 0
0:00:00.00 603279 N 0 0 0
0:00:00.00 603531 N 0 0 0
0:00:00.00 603661 N 0 0 0
0:00:00.00 603767 N 0 0 0
0:00:00.00 604026 N 0 0 0
0:00:00.00 604163 N 0 0 0
0:00:00.00 604422 N 0 0 0
0:00:00.00 604688 N 0 0 0
0:00:00.00 605000 N 0 0 0
0:00:00.00 605344 N 0 0 0
0:00:00.00 605677 N 0 0 0
0:00:00.00 605862 N 0 0 0
0:00:00.00 605988 N 0 0 0
0:00:00.00 606213 N 0 0 0
0:00:00.00 606451 N 0 0 0
0:00:00.00 606645 N 0 0 0
0:00:00.00 606753 N 0 0 0
0:00:00.00 606974 N 0 0 0
0:00:00.00 607120 N 0 0 0
0:00:00.00 607462 N 0 0 0
0:00:00.00 607745 N 0 0 0
0:00:00.00 607869 N 0 0 0
0:00:00.00 608071 N 0 0 0
0:00:00.00 608261 N 0 0 0
0:00:00.00 608508 N 0 0 0
0:00:00.00 608785 N 0 0 0
0:00:00.00 609052 N 0 0 0
0:00:00.00 609253 N 0 0 0
0:00:00.00 609536 N 0 0 0
0:00:00.00 609862 N 0 0 0
0:00:00.00 610189 N 0 0 0
0:00:00.00 610522 N 0 0 0
0:00:00.00 610654 N 0 0 0
0:00:00.00 610751 N 0 0 0
0:00:00.00 610873 N 0 0 0
0:00:00.00 611003 N 0 0 0
0:00:00.00 611226 N 0 0 0
0:00:00.00 611471 N 0 0 0
0:00:00.00 611762 N 0 0 0
0:00:00.00 612014 N 0 0 0
0:00:00.00 612137 N 0 0 0
0:00:00.00 612369 N 0 0 0
0:00:00.00 612646 N 0 0 0
0:00:00.00 612781 N 0 0 0
0:00:00.00 613087 N 0 0 0
0:00:00.00 613400 N 0 0 0
0:00:00.00 613678 N 0 0 0
0:00:00.00 614036 N 0 0 0
0:00:00.00 614448 N 0 0 0
0:00:00.00 614725 N 0 0 0
0:00:00.00 614954 N 0 0 0
0:00:00.00 615206 N 0 0 0
0:00:00.00 615481 N 0 0 0
0:00:00.00 615785 N 0 0 0
0:00:00.00 615955 N 0 0 0
0:00:00.00 616225 N 0 0 0
0:00:00.00 616453 N 0 0 0
0:00:00.00 616840 N 0 0 0
0:00:00.00 617063 N 0 0 0
0:00:00.00 617353 N 0 0 0
0:00:00.00 617589 N 0 0 0
0:00:00.00 617868 N 0 0 0
0:00:00.00 618201 N 0 0 0
0:00:00.00 618521 N 0 0 0
0:00:00.00 618752 N 0 0 0
0:00:00.00 618993 N 0 0 0
0:00:00.00 619112 N 0 0 0
0:00:00.00 619249 N 0 0 0
0:00:00.00 619502 N 0 0 0
0:00:00.00 619632 N 0 0 0
0:00:00.00 619801 N 0 0 0
0:00:00.00 620026 N 0 0 0
0:00:00.00 620150 N 0 0 0
0:00:00.00 620282 N 0 0 0
0:00:00.00 620521 N 0 0 0
0:00:00.00 620928 N 0 0 0
0:00:00.00 621207 N 0 0 0
0:00:00.00 621729 N 0 0 0
0:00:00.00 621985 N 0 0 0
0:00:00.00 622264 N 0 0 0
0:00:00.00 622391 N 0 0 0
0:00:00.00 622591 N 0 0 0
0:00:00.00 622712 N 0 0 0
0:00:00.00 623187 N 0 0 0
0:00:00.00 623601 N 0 0 0
0:00:00.00 623821 N 0 0 0
0:00:00.00 623941 N 0 0 0
0:00:00.00 624055 N 0 0 0
0:00:00.00 624206 N 0 0 0
0:00:00.00 624343 N 0 0 0
0:00:00.00 624602 N 0 0 0
0:00:00.00 624735 N 0 0 0
0:00:00.00 625016 N 0 0 0
0:00:00.00 625316 N 0 0 0
0:00:00.00 625536 N 0 0 0
0:00:00.00 625849 N 0 0 0
0:00:00.00 626105 N 0 0 0
0:00:00.00 626251 N 0 0 0
0:00:00.00 626600 N 0 0 0
0:00:00.00 626935 N 0 0 0
0:00:00.00 627071 N 0 0 0
0:00:00.00 627424 N 0 0 0
0:00:00.00 627766 N 0 0 0
0:00:00.00 627961 N 0 0 0
0:00:00.00 628205 N 0 0 0
0:00:00.00 628366 N 0 0 0
0:00:00.00 628634 N 0 0 0
0:00:00.00 628956 N 0 0 0
0:00:00.00 629264 N 0 0 0
0:00:00.00 629476 N 0 0 0
0:00:00.00 629732 N 0 0 0
0:00:00.00 629887 N 0 0 0
0:00:00.00 630031 N 0 0 0
0:00:00.00 630169 N 0 0 0
0:00:00.00 630290 N 0 0 0
0:00:00.00 630520 N 0 0 0
0:00:00.00 630806 N 0 0 0
0:00:00.00 631078 N 0 0 0
0:00:00.00 631307 N 0 0 0
0:00:00.00 631514 N 0 0 0
0:00:00.00 631744 N 0 0 0
0:00:00.00 632000 N 0 0 0
0:00:00.00 632273 N 0 0 0
0:00:00.00 632500 N 0 0 0
0:00:00.00 632621 N 0 0 0
0:00:00.00 632745 N 0 0 0
0:00:00.00 632961 N 0 0 0
0:00:00.00 633244 N 0 0 0
0:00:00.00 633506 N 0 0 0
0:00:00.00 633650 N 0 0 0
0:00:00.00 633807 N 0 0 0
0:00:00.00 634088 N 0 0 0
0:00:00.00 634271 N 0 0 0
0:00:00.00 634496 N 0 0 0
0:00:00.00 634833 N 0 0 0
0:00:00.00 635042 N 0 0 0
0:00:00.00 635324 N 0 0 0
0:00:00.00 635461 N 0 0 0
0:00:00.00 635753 N 0 0 0
0:00:00.00 635976 N 0 0 0
0:00:00.00 636116 N 0 0 0
0:00:00.00 636210 N 0 0 0
0:00:00.00 636457 N 0 0 0
0:00:00.00 636723 N 0 0 0
0:00:00.00 637074 N 0 0 0
0:00:00.00 637479 N 0 0 0
0:00:00.00 637747 N 0 0 0
0:00:00.00 637983 N 0 0 0
0:00:00.00 638105 N 0 0 0
0:00:00.00 638330 N 0 0 0
0:00:00.00 638590 N 0 0 0
0:00:00.00 638856 N 0 0 0
0:00:00.00 639142 N 0 0 0
0:00:00.00 639410 N 0 0 0
0:00:00.00 639538 N 0 0 0
0:00:00.00 639860 N 0 0 0
0:00:00.00 640055 N 0 0 0
0:00:00.00 640202 N 0 0 0
0:00:00.00 640537 N 0 0 0
0:00:00.00 640750 N 0 0 0
0:00:00.00 640906 N 0 0 0
0:00:00.00 641025 N 0 0 0
0:00:00.00 641306 N 0 0 0
0:00:00.00 641509 N 0 0 0
0:00:00.00 641711 N 0 0 0
0:00:00.00 641954 N 0 0 0
0:00:00.00 642224 N 0 0 0
0:00:00.00 642433 N 0 0 0
0:00:00.00 642733 N 0 0 0
0:00:00.00 643055 N 0 0 0
0:00:00.00 643369 N 0 0 0
0:00:00.00 643619 N 0 0 0
0:00:00.00 643855 N 0 0 0
0:00:00.00 644006 N 0 0 0
0:00:00.00 644144 N 0 0 0
0:00:00.00 644270 N 0 0 0
0:00:00.00 644533 N 0 0 0
0:00:00.00 644668 N 0 0 0
0:00:00.00 644897 N 0 0 0
0:00:00.00 645052 N 0 0 0
0:00:00.00 645246 N 0 0 0
0:00:00.00 645417 N 0 0 0
0:00:00.00 645642 N 0 0 0
0:00:00.00 645921 N 0 0 0
0:00:00.00 646070 N 0 0 0
0:00:00.00 646227 N 0 0 0
0:00:00.00 646483 N 0 0 0
0:00:00.00 646612 N 0 0 0
0:00:00.00 646884 N 0 0 0
0:00:00.00 647147 N 0 0 0
0:00:00.00 647444 N 0 0 0
0:00:00.00 647687 N 0 0 0
0:00:00.00 648063 N 0 0 0
0:00:00.00 648306 N 0 0 0
0:00:00.00 648675 N 0 0 0
0:00:00.00 649022 N 0 0 0
0:00:00.00 649242 N 0 0 0
0:00:00.00 649453 N 0 0 0
0:00:00.00 649782 N 0 0 0
