0:00:00.00 9 N 0 0 0
0:00:00.00 104 N 0 0 0
0:00:00.00 193 N 0 0 0
0:00:00.00 468 N 0 0 0
0:00:00.00 707 N 0 0 0
0:00:00.00 945 N 0 0 0
0:00:00.00 1190 N 0 0 0
0:00:00.00 1433 N 0 0 0
0:00:00.00 1672 N 0 0 0
0:00:00.00 1904 N 0 0 0
0:00:00.00 2147 N 0 0 0
0:00:00.00 2396 N 0 0 0
0:00:00.00 2637 N 0 0 0
0:00:00.00 2875 N 0 0 0
0:00:00.00 3114 N 0 0 0
0:00:00.00 3355 N 0 0 0
0:00:00.00 3596 N 0 0 0
0:00:00.00 3841 N 0 0 0
0:00:00.00 4086 N 0 0 0
0:00:00.00 4325 N 0 0 0
0:00:00.00 4563 N 0 0 0
0:00:00.00 4808 N 0 0 0
0:00:00.00 5060 N 0 0 0
0:00:00.00 5305 N 0 0 0
0:00:00.00 5544 N 0 0 0
0:00:00.00 5785 N 0 0 0
0:00:00.00 6025 N 0 0 0
0:00:00.00 6266 N 0 0 0
0:00:00.00 6514 N 0 0 0
0:00:00.00 6754 N 0 0 0
0:00:00.00 6993 N 0 0 0
0:00:00.00 7229 N 0 0 0
0:00:00.00 7474 N 0 0 0
0:00:00.00 7711 N 0 0 0
0:00:00.00 7951 N 0 0 0
0:00:00.00 8183 N 0 0 0
0:00:00.00 8420 N 0 0 0
0:00:00.00 8656 N 0 0 0
0:00:00.00 8899 N 0 0 0
0:00:00.00 9142 N 0 0 0
0:00:00.00 9376 N 0 0 0
0:00:00.00 9612 N 0 0 0
0:00:00.00 9853 N 0 0 0
0:00:00.00 10100 N 0 0 0
0:00:00.00 10339 N 0 0 0
0:00:00.00 10577 N 0 0 0
0:00:00.00 10813 N 0 0 0
0:00:00.00 11047 N 0 0 0
0:00:00.00 11281 N 0 0 0
0:00:00.00 11522 N 0 0 0
0:00:00.00 11768 N 0 0 0
0:00:00.00 12002 N 0 0 0
0:00:00.00 12238 N 0 0 0
0:00:00.00 12476 N 0 0 0
0:00:00.00 12722 N 0 0 0
0:00:00.00 12962 N 0 0 0
0:00:00.00 13205 N 0 0 0
0:00:00.00 13444 N 0 0 0
0:00:00.00 13687 N 0 0 0
0:00:00.00 13927 N 0 0 0
0:00:00.00 14170 N 0 0 0
0:00:00.00 14422 N 0 0 0
0:00:00.00 14665 N 0 0 0
0:00:00.00 14904 N 0 0 0
0:00:00.00 15147 N 0 0 0
0:00:00.00 15395 N 0 0 0
0:00:00.00 15642 N 0 0 0
0:00:00.00 15878 N 0 0 0
0:00:00.00 16119 N 0 0 0
0:00:00.00 16358 N 0 0 0
0:00:00.00 16600 N 0 0 0
0:00:00.00 16844 N 0 0 0
0:00:00.00 17089 N 0 0 0
0:00:00.00 17327 N 0 0 0
0:00:00.00 17564 N 0 0 0
0:00:00.00 17806 N 0 0 0
0:00:00.00 18052 N 0 0 0
0:00:00.00 18295 N 0 0 0
0:00:00.00 18533 N 0 0 0
0:00:00.00 18772 N 0 0 0
0:00:00.00 19010 N 0 0 0
0:00:00.00 19253 N 0 0 0
0:00:00.00 19501 N 0 0 0
0:00:00.00 19739 N 0 0 0
0:00:00.00 19984 N 0 0 0
0:00:00.00 20219 N 0 0 0
0:00:00.00 20466 N 0 0 0
0:00:00.00 20711 N 0 0 0
0:00:00.00 20956 N 0 0 0
0:00:00.00 21193 N 0 0 0
0:00:00.00 21436 N 0 0 0
0:00:00.00 21676 N 0 0 0
0:00:00.00 21929 N 0 0 0
0:00:00.00 22178 N 0 0 0
0:00:00.00 22423 N 0 0 0
0:00:00.00 22660 N 0 0 0
0:00:00.00 22905 N 0 0 0
0:00:00.00 23152 N 0 0 0
0:00:00.00 23395 N 0 0 0
0:00:00.00 23632 N 0 0 0
0:00:00.00 23873 N 0 0 0
0:00:00.00 24111 N 0 0 0
0:00:00.00 24349 N 0 0 0
0:00:00.00 24590 N 0 0 0
0:00:00.00 24836 N 0 0 0
0:00:00.00 25072 N 0 0 0
0:00:00.00 25308 N 0 0 0
0:00:00.00 25546 N 0 0 0
0:00:00.00 25792 N 0 0 0
0:00:00.00 26030 N 0 0 0
0:00:00.00 26267 N 0 0 0
0:00:00.00 26505 N 0 0 0
0:00:00.00 26746 N 0 0 0
0:00:00.00 26986 N 0 0 0
0:00:00.00 27229 N 0 0 0
0:00:00.00 27470 N 0 0 0
0:00:00.00 27707 N 0 0 0
0:00:00.00 27947 N 0 0 0
0:00:00.00 28192 N 0 0 0
0:00:00.00 28440 N 0 0 0
0:00:00.00 28681 N 0 0 0
0:00:00.00 28915 N 0 0 0
0:00:00.00 29151 N 0 0 0
0:00:00.00 29394 N 0 0 0
0:00:00.00 29635 N 0 0 0
0:00:00.00 29876 N 0 0 0
0:00:00.00 30118 N 0 0 0
0:00:00.00 30355 N 0 0 0
0:00:00.00 30596 N 0 0 0
0:00:00.00 30841 N 0 0 0
0:00:00.00 31090 N 0 0 0
0:00:00.00 31331 N 0 0 0
0:00:00.00 31568 N 0 0 0
0:00:00.00 31806 N 0 0 0
0:00:00.00 32042 N 0 0 0
0:00:00.00 32287 N 0 0 0
0:00:00.00 32531 N 0 0 0
0:00:00.00 32771 N 0 0 0
0:00:00.00 33010 N 0 0 0
0:00:00.00 33244 N 0 0 0
0:00:00.00 33485 N 0 0 0
0:00:00.00 33727 N 0 0 0
0:00:00.00 33964 N 0 0 0
0:00:00.00 34200 N 0 0 0
0:00:00.00 34436 N 0 0 0
0:00:00.00 34672 N 0 0 0
0:00:00.00 34913 N 0 0 0
0:00:00.00 35156 N 0 0 0
0:00:00.00 35397 N 0 0 0
0:00:00.00 35636 N 0 0 0
0:00:00.00 35872 N 0 0 0
0:00:00.00 36113 N 0 0 0
0:00:00.00 36355 N 0 0 0
0:00:00.00 36596 N 0 0 0
0:00:00.00 36830 N 0 0 0
0:00:00.00 37066 N 0 0 0
0:00:00.00 37301 N 0 0 0
0:00:00.00 37541 N 0 0 0
0:00:00.00 37784 N 0 0 0
0:00:00.00 38018 N 0 0 0
0:00:00.00 38257 N 0 0 0
0:00:00.00 38489 N 0 0 0
0:00:00.00 38731 N 0 0 0
0:00:00.00 38968 N 0 0 0
0:00:00.00 39208 N 0 0 0
0:00:00.00 39440 N 0 0 0
0:00:00.00 39674 N 0 0 0
0:00:00.00 39910 N 0 0 0
0:00:00.00 40151 N 0 0 0
0:00:00.00 40390 N 0 0 0
0:00:00.00 40626 N 0 0 0
0:00:00.00 40862 N 0 0 0
0:00:00.00 41098 N 0 0 0
0:00:00.00 41335 N 0 0 0
0:00:00.00 41575 N 0 0 0
0:00:00.00 41814 N 0 0 0
0:00:00.00 42044 N 0 0 0
0:00:00.00 42275 N 0 0 0
0:00:00.00 42509 N 0 0 0
0:00:00.00 42745 N 0 0 0
0:00:00.00 42984 N 0 0 0
0:00:00.00 43216 N 0 0 0
0:00:00.00 43456 N 0 0 0
0:00:00.00 43688 N 0 0 0
0:00:00.00 43929 N 0 0 0
0:00:00.00 44172 N 0 0 0
0:00:00.00 44413 N 0 0 0
0:00:00.00 44649 N 0 0 0
0:00:00.00 44890 N 0 0 0
0:00:00.00 45128 N 0 0 0
0:00:00.00 45374 N 0 0 0
0:00:00.00 45621 N 0 0 0
0:00:00.00 45860 N 0 0 0
0:00:00.00 46100 N 0 0 0
0:00:00.00 46343 N 0 0 0
0:00:00.00 46586 N 0 0 0
0:00:00.00 46829 N 0 0 0
0:00:00.00 47066 N 0 0 0
0:00:00.00 47308 N 0 0 0
0:00:00.00 47545 N 0 0 0
0:00:00.00 47785 N 0 0 0
0:00:00.00 48026 N 0 0 0
0:00:00.00 48271 N 0 0 0
0:00:00.00 48506 N 0 0 0
0:00:00.00 48748 N 0 0 0
0:00:00.00 48991 N 0 0 0
0:00:00.00 49239 N 0 0 0
0:00:00.00 49478 N 0 0 0
0:00:00.00 49716 N 0 0 0
0:00:00.00 49954 N 0 0 0
0:00:00.00 50197 N 0 0 0
0:00:00.00 50436 N 0 0 0
0:00:00.00 50681 N 0 0 0
0:00:00.00 50920 N 0 0 0
0:00:00.00 51161 N 0 0 0
0:00:00.00 51395 N 0 0 0
0:00:00.00 51637 N 0 0 0
0:00:00.00 51881 N 0 0 0
0:00:00.00 52121 N 0 0 0
0:00:00.00 52355 N 0 0 0
0:00:00.00 52591 N 0 0 0
0:00:00.00 52830 N 0 0 0
0:00:00.00 53077 N 0 0 0
0:00:00.00 53323 N 0 0 0
0:00:00.00 53568 N 0 0 0
0:00:00.00 53809 N 0 0 0
0:00:00.00 54043 N 0 0 0
0:00:00.00 54283 N 0 0 0
0:00:00.00 54531 N 0 0 0
0:00:00.00 54772 N 0 0 0
0:00:00.00 55006 N 0 0 0
0:00:00.00 55238 N 0 0 0
0:00:00.00 55478 N 0 0 0
0:00:00.00 55717 N 0 0 0
0:00:00.00 55958 N 0 0 0
0:00:00.00 56198 N 0 0 0
0:00:00.00 56439 N 0 0 0
0:00:00.00 56677 N 0 0 0
0:00:00.00 56920 N 0 0 0
0:00:00.00 57163 N 0 0 0
0:00:00.00 57407 N 0 0 0
0:00:00.00 57647 N 0 0 0
0:00:00.00 57888 N 0 0 0
0:00:00.00 58127 N 0 0 0
0:00:00.00 58370 N 0 0 0
0:00:00.00 58613 N 0 0 0
0:00:00.00 58849 N 0 0 0
0:00:00.00 59085 N 0 0 0
0:00:00.00 59324 N 0 0 0
0:00:00.00 59566 N 0 0 0
0:00:00.00 59803 N 0 0 0
0:00:00.00 60039 N 0 0 0
0:00:00.00 60273 N 0 0 0
0:00:00.00 60509 N 0 0 0
0:00:00.00 60745 N 0 0 0
0:00:00.00 60986 N 0 0 0
0:00:00.00 61229 N 0 0 0
0:00:00.00 61465 N 0 0 0
0:00:00.00 61702 N 0 0 0
0:00:00.00 61940 N 0 0 0
0:00:00.00 62188 N 0 0 0
0:00:00.00 62429 N 0 0 0
0:00:00.00 62669 N 0 0 0
0:00:00.00 62901 N 0 0 0
0:00:00.00 63139 N 0 0 0
0:00:00.00 63371 N 0 0 0
0:00:00.00 63616 N 0 0 0
0:00:00.00 63855 N 0 0 0
0:00:00.00 64089 N 0 0 0
0:00:00.00 64325 N 0 0 0
0:00:00.00 64564 N 0 0 0
0:00:00.00 64811 N 0 0 0
0:00:00.00 65050 N 0 0 0
0:00:00.00 65290 N 0 0 0
0:00:00.00 65529 N 0 0 0
0:00:00.00 65768 N 0 0 0
0:00:00.00 66008 N 0 0 0
0:00:00.00 66249 N 0 0 0
0:00:00.00 66494 N 0 0 0
0:00:00.00 66730 N 0 0 0
0:00:00.00 66965 N 0 0 0
0:00:00.00 67199 N 0 0 0
0:00:00.00 67444 N 0 0 0
0:00:00.00 67680 N 0 0 0
0:00:00.00 67914 N 0 0 0
0:00:00.00 68144 N 0 0 0
0:00:00.00 68380 N 0 0 0
0:00:00.00 68612 N 0 0 0
0:00:00.00 68852 N 0 0 0
0:00:00.00 69093 N 0 0 0
0:00:00.00 69329 N 0 0 0
0:00:00.00 69561 N 0 0 0
0:00:00.00 69797 N 0 0 0
0:00:00.00 70043 N 0 0 0
0:00:00.00 70283 N 0 0 0
0:00:00.00 70519 N 0 0 0
0:00:00.00 70758 N 0 0 0
0:00:00.00 70990 N 0 0 0
0:00:00.00 71226 N 0 0 0
0:00:00.00 71465 N 0 0 0
0:00:00.00 71710 N 0 0 0
0:00:00.00 71944 N 0 0 0
0:00:00.00 72175 N 0 0 0
0:00:00.00 72409 N 0 0 0
0:00:00.00 72648 N 0 0 0
0:00:00.00 72886 N 0 0 0
0:00:00.00 73121 N 0 0 0
0:00:00.00 73359 N 0 0 0
0:00:00.00 73595 N 0 0 0
0:00:00.00 73829 N 0 0 0
0:00:00.00 74070 N 0 0 0
0:00:00.00 74313 N 0 0 0
0:00:00.00 74547 N 0 0 0
0:00:00.00 74785 N 0 0 0
0:00:00.00 75024 N 0 0 0
0:00:00.00 75272 N 0 0 0
0:00:00.00 75510 N 0 0 0
0:00:00.00 75748 N 0 0 0
0:00:00.00 75983 N 0 0 0
0:00:00.00 76225 N 0 0 0
0:00:00.00 76466 N 0 0 0
0:00:00.00 76711 N 0 0 0
0:00:00.00 76955 N 0 0 0
0:00:00.00 77198 N 0 0 0
0:00:00.00 77436 N 0 0 0
0:00:00.00 77681 N 0 0 0
0:00:00.00 77929 N 0 0 0
0:00:00.00 78174 N 0 0 0
0:00:00.00 78413 N 0 0 0
0:00:00.00 78653 N 0 0 0
0:00:00.00 78898 N 0 0 0
0:00:00.00 79137 N 0 0 0
0:00:00.00 79380 N 0 0 0
0:00:00.00 79625 N 0 0 0
0:00:00.00 79870 N 0 0 0
0:00:00.00 80105 N 0 0 0
0:00:00.00 80350 N 0 0 0
0:00:00.00 80599 N 0 0 0
0:00:00.00 80842 N 0 0 0
0:00:00.00 81077 N 0 0 0
0:00:00.00 81322 N 0 0 0
0:00:00.00 81567 N 0 0 0
0:00:00.00 81814 N 0 0 0
0:00:00.00 82060 N 0 0 0
0:00:00.00 82303 N 0 0 0
0:00:00.00 82543 N 0 0 0
0:00:00.00 82786 N 0 0 0
0:00:00.00 83039 N 0 0 0
0:00:00.00 83282 N 0 0 0
0:00:00.00 83527 N 0 0 0
0:00:00.00 83765 N 0 0 0
0:00:00.00 84001 N 0 0 0
0:00:00.00 84238 N 0 0 0
0:00:00.00 84479 N 0 0 0
0:00:00.00 84728 N 0 0 0
0:00:00.00 84967 N 0 0 0
0:00:00.00 85205 N 0 0 0
0:00:00.00 85446 N 0 0 0
0:00:00.00 85694 N 0 0 0
0:00:00.00 85936 N 0 0 0
0:00:00.00 86175 N 0 0 0
0:00:00.00 86414 N 0 0 0
0:00:00.00 86659 N 0 0 0
0:00:00.00 86897 N 0 0 0
0:00:00.00 87140 N 0 0 0
0:00:00.00 87383 N 0 0 0
0:00:00.00 87628 N 0 0 0
0:00:00.00 87862 N 0 0 0
0:00:00.00 88103 N 0 0 0
0:00:00.00 88346 N 0 0 0
0:00:00.00 88587 N 0 0 0
0:00:00.00 88819 N 0 0 0
0:00:00.00 88974 N 0 0 0
0:00:00.00 89293 N 0 0 0
0:00:00.00 89532 N 0 0 0
0:00:00.00 89771 N 0 0 0
0:00:00.00 90011 N 0 0 0
0:00:00.00 90248 N 0 0 0
0:00:00.00 90479 N 0 0 0
0:00:00.00 90716 N 0 0 0
0:00:00.00 90961 N 0 0 0
0:00:00.00 91197 N 0 0 0
0:00:00.00 91426 N 0 0 0
0:00:00.00 91660 N 0 0 0
0:00:00.00 91899 N 0 0 0
0:00:00.00 92138 N 0 0 0
0:00:00.00 92380 N 0 0 0
0:00:00.00 92617 N 0 0 0
0:00:00.00 92853 N 0 0 0
0:00:00.00 93087 N 0 0 0
0:00:00.00 93332 N 0 0 0
0:00:00.00 93577 N 0 0 0
0:00:00.00 93812 N 0 0 0
0:00:00.00 94043 N 0 0 0
0:00:00.00 94275 N 0 0 0
0:00:00.00 94511 N 0 0 0
0:00:00.00 94748 N 0 0 0
0:00:00.00 94986 N 0 0 0
0:00:00.00 95216 N 0 0 0
0:00:00.00 95450 N 0 0 0
0:00:00.00 95683 N 0 0 0
0:00:00.00 95927 N 0 0 0
0:00:00.00 96167 N 0 0 0
0:00:00.00 96404 N 0 0 0
0:00:00.00 96637 N 0 0 0
0:00:00.00 96871 N 0 0 0
0:00:00.00 97106 N 0 0 0
0:00:00.00 97342 N 0 0 0
0:00:00.00 97580 N 0 0 0
0:00:00.00 97812 N 0 0 0
0:00:00.00 98044 N 0 0 0
0:00:00.00 98269 N 0 0 0
0:00:00.00 98503 N 0 0 0
0:00:00.00 98743 N 0 0 0
0:00:00.00 98973 N 0 0 0
0:00:00.00 99200 N 0 0 0
0:00:00.00 99427 N 0 0 0
0:00:00.00 99661 N 0 0 0
0:00:00.00 99886 N 0 0 0
0:00:00.00 100120 N 0 0 0
0:00:00.00 100352 N 0 0 0
0:00:00.00 100580 N 0 0 0
0:00:00.00 100804 N 0 0 0
0:00:00.00 101032 N 0 0 0
0:00:00.00 101268 N 0 0 0
0:00:00.00 101495 N 0 0 0
0:00:00.00 101720 N 0 0 0
0:00:00.00 101943 N 0 0 0
0:00:00.00 102164 N 0 0 0
0:00:00.00 102384 N 0 0 0
0:00:00.00 102607 N 0 0 0
0:00:00.00 102832 N 0 0 0
0:00:00.00 103052 N 0 0 0
0:00:00.00 103271 N 0 0 0
0:00:00.00 103487 N 0 0 0
0:00:00.00 103711 N 0 0 0
0:00:00.00 103939 N 0 0 0
0:00:00.00 104157 N 0 0 0
0:00:00.00 104373 N 0 0 0
0:00:00.00 104598 N 0 0 0
0:00:00.00 104825 N 0 0 0
0:00:00.00 105046 N 0 0 0
0:00:00.00 105271 N 0 0 0
0:00:00.00 105503 N 0 0 0
0:00:00.00 105730 N 0 0 0
0:00:00.00 105955 N 0 0 0
0:00:00.00 106182 N 0 0 0
0:00:00.00 106414 N 0 0 0
0:00:00.00 106645 N 0 0 0
0:00:00.00 106875 N 0 0 0
0:00:00.00 106999 N 0 0 0
0:00:00.00 107323 N 0 0 0
0:00:00.00 107505 N 0 0 0
0:00:00.00 107620 N 0 0 0
0:00:00.00 107735 N 0 0 0
0:00:00.00 107843 N 0 0 0
0:00:00.00 107968 N 0 0 0
0:00:00.00 108095 N 0 0 0
0:00:00.00 108212 N 0 0 0
0:00:00.00 108328 N 0 0 0
0:00:00.00 108455 N 0 0 0
0:00:00.00 108679 N 0 0 0
0:00:00.00 108913 N 0 0 0
0:00:00.00 109249 N 0 0 0
0:00:00.00 109372 N 0 0 0
0:00:00.00 109481 N 0 0 0
0:00:00.00 109589 N 0 0 0
0:00:00.00 109696 N 0 0 0
0:00:00.00 109789 N 0 0 0
0:00:00.00 109895 N 0 0 0
0:00:00.00 110007 N 0 0 0
0:00:00.00 110113 N 0 0 0
0:00:00.00 110299 N 0 0 0
0:00:00.00 110520 N 0 0 0
0:00:00.00 110752 N 0 0 0
0:00:00.00 110975 N 0 0 0
0:00:00.00 111199 N 0 0 0
0:00:00.00 111425 N 0 0 0
0:00:00.00 111661 N 0 0 0
0:00:00.00 111892 N 0 0 0
0:00:00.00 112120 N 0 0 0
0:00:00.00 112349 N 0 0 0
0:00:00.00 112581 N 0 0 0
0:00:00.00 112811 N 0 0 0
0:00:00.00 113047 N 0 0 0
0:00:00.00 113285 N 0 0 0
0:00:00.00 113519 N 0 0 0
0:00:00.00 113749 N 0 0 0
0:00:00.00 113861 N 0 0 0
0:00:00.00 114215 N 0 0 0
0:00:00.00 114453 N 0 0 0
0:00:00.00 114683 N 0 0 0
0:00:00.00 114910 N 0 0 0
0:00:00.00 115141 N 0 0 0
0:00:00.00 115367 N 0 0 0
0:00:00.00 115603 N 0 0 0
0:00:00.00 115835 N 0 0 0
0:00:00.00 116066 N 0 0 0
0:00:00.00 116296 N 0 0 0
0:00:00.00 116519 N 0 0 0
0:00:00.00 116752 N 0 0 0
0:00:00.00 116991 N 0 0 0
0:00:00.00 117223 N 0 0 0
0:00:00.00 117452 N 0 0 0
0:00:00.00 117684 N 0 0 0
0:00:00.00 117920 N 0 0 0
0:00:00.00 118156 N 0 0 0
0:00:00.00 118393 N 0 0 0
0:00:00.00 118627 N 0 0 0
0:00:00.00 118861 N 0 0 0
0:00:00.00 119088 N 0 0 0
0:00:00.00 119327 N 0 0 0
0:00:00.00 119563 N 0 0 0
0:00:00.00 119797 N 0 0 0
0:00:00.00 120022 N 0 0 0
0:00:00.00 120254 N 0 0 0
0:00:00.00 120490 N 0 0 0
0:00:00.00 120722 N 0 0 0
0:00:00.00 120958 N 0 0 0
0:00:00.00 121196 N 0 0 0
0:00:00.00 121430 N 0 0 0
0:00:00.00 121662 N 0 0 0
0:00:00.00 121903 N 0 0 0
0:00:00.00 122150 N 0 0 0
0:00:00.00 122387 N 0 0 0
0:00:00.00 122620 N 0 0 0
0:00:00.00 122855 N 0 0 0
0:00:00.00 123095 N 0 0 0
0:00:00.00 123329 N 0 0 0
0:00:00.00 123566 N 0 0 0
0:00:00.00 123806 N 0 0 0
0:00:00.00 124043 N 0 0 0
0:00:00.00 124272 N 0 0 0
0:00:00.00 124510 N 0 0 0
0:00:00.00 124754 N 0 0 0
0:00:00.00 124992 N 0 0 0
0:00:00.00 125224 N 0 0 0
0:00:00.00 125462 N 0 0 0
0:00:00.00 125703 N 0 0 0
0:00:00.00 125944 N 0 0 0
0:00:00.00 126189 N 0 0 0
0:00:00.00 126434 N 0 0 0
0:00:00.00 126677 N 0 0 0
0:00:00.00 126913 N 0 0 0
0:00:00.00 127159 N 0 0 0
0:00:00.00 127408 N 0 0 0
0:00:00.00 127651 N 0 0 0
0:00:00.00 127892 N 0 0 0
0:00:00.00 128129 N 0 0 0
0:00:00.00 128371 N 0 0 0
0:00:00.00 128617 N 0 0 0
0:00:00.00 128867 N 0 0 0
0:00:00.00 129109 N 0 0 0
0:00:00.00 129348 N 0 0 0
0:00:00.00 129596 N 0 0 0
0:00:00.00 129848 N 0 0 0
0:00:00.00 130093 N 0 0 0
0:00:00.00 130334 N 0 0 0
0:00:00.00 130574 N 0 0 0
0:00:00.00 130738 N 0 0 0
0:00:00.00 131058 N 0 0 0
0:00:00.00 131301 N 0 0 0
0:00:00.00 131542 N 0 0 0
0:00:00.00 131776 N 0 0 0
0:00:00.00 132008 N 0 0 0
0:00:00.00 132242 N 0 0 0
0:00:00.00 132484 N 0 0 0
0:00:00.00 132718 N 0 0 0
0:00:00.00 132950 N 0 0 0
0:00:00.00 133184 N 0 0 0
0:00:00.00 133421 N 0 0 0
0:00:00.00 133654 N 0 0 0
0:00:00.00 133897 N 0 0 0
0:00:00.00 134143 N 0 0 0
0:00:00.00 134379 N 0 0 0
0:00:00.00 134611 N 0 0 0
0:00:00.00 134852 N 0 0 0
0:00:00.00 135103 N 0 0 0
0:00:00.00 135338 N 0 0 0
0:00:00.00 135574 N 0 0 0
0:00:00.00 135806 N 0 0 0
0:00:00.00 136044 N 0 0 0
0:00:00.00 136278 N 0 0 0
0:00:00.00 136516 N 0 0 0
0:00:00.00 136753 N 0 0 0
0:00:00.00 136985 N 0 0 0
0:00:00.00 137214 N 0 0 0
0:00:00.00 137450 N 0 0 0
0:00:00.00 137693 N 0 0 0
0:00:00.00 137923 N 0 0 0
0:00:00.00 138155 N 0 0 0
0:00:00.00 138389 N 0 0 0
0:00:00.00 138623 N 0 0 0
0:00:00.00 138852 N 0 0 0
0:00:00.00 139091 N 0 0 0
0:00:00.00 139331 N 0 0 0
0:00:00.00 139567 N 0 0 0
0:00:00.00 139795 N 0 0 0
0:00:00.00 140031 N 0 0 0
0:00:00.00 140272 N 0 0 0
0:00:00.00 140504 N 0 0 0
0:00:00.00 140738 N 0 0 0
0:00:00.00 140972 N 0 0 0
0:00:00.00 141205 N 0 0 0
0:00:00.00 141437 N 0 0 0
0:00:00.00 141674 N 0 0 0
0:00:00.00 141917 N 0 0 0
0:00:00.00 142150 N 0 0 0
0:00:00.00 142382 N 0 0 0
0:00:00.00 142616 N 0 0 0
0:00:00.00 142859 N 0 0 0
0:00:00.00 143091 N 0 0 0
0:00:00.00 143330 N 0 0 0
0:00:00.00 143564 N 0 0 0
0:00:00.00 143798 N 0 0 0
0:00:00.00 144031 N 0 0 0
0:00:00.00 144272 N 0 0 0
0:00:00.00 144515 N 0 0 0
0:00:00.00 144747 N 0 0 0
0:00:00.00 144977 N 0 0 0
0:00:00.00 145215 N 0 0 0
0:00:00.00 145458 N 0 0 0
0:00:00.00 145694 N 0 0 0
0:00:00.00 145926 N 0 0 0
0:00:00.00 146158 N 0 0 0
0:00:00.00 146390 N 0 0 0
0:00:00.00 146624 N 0 0 0
0:00:00.00 146864 N 0 0 0
0:00:00.00 147101 N 0 0 0
0:00:00.00 147334 N 0 0 0
0:00:00.00 147564 N 0 0 0
0:00:00.00 147800 N 0 0 0
0:00:00.00 148043 N 0 0 0
0:00:00.00 148277 N 0 0 0
0:00:00.00 148509 N 0 0 0
0:00:00.00 148741 N 0 0 0
0:00:00.00 148972 N 0 0 0
0:00:00.00 149206 N 0 0 0
0:00:00.00 149441 N 0 0 0
0:00:00.00 149679 N 0 0 0
0:00:00.00 149908 N 0 0 0
0:00:00.00 150142 N 0 0 0
0:00:00.00 150372 N 0 0 0
0:00:00.00 150608 N 0 0 0
0:00:00.00 150840 N 0 0 0
0:00:00.00 151076 N 0 0 0
0:00:00.00 151303 N 0 0 0
0:00:00.00 151537 N 0 0 0
0:00:00.00 151767 N 0 0 0
0:00:00.00 152003 N 0 0 0
0:00:00.00 152237 N 0 0 0
0:00:00.00 152469 N 0 0 0
0:00:00.00 152703 N 0 0 0
0:00:00.00 152932 N 0 0 0
0:00:00.00 153167 N 0 0 0
0:00:00.00 153403 N 0 0 0
0:00:00.00 153639 N 0 0 0
0:00:00.00 153864 N 0 0 0
0:00:00.00 154096 N 0 0 0
0:00:00.00 154327 N 0 0 0
0:00:00.00 154557 N 0 0 0
0:00:00.00 154791 N 0 0 0
0:00:00.00 155021 N 0 0 0
0:00:00.00 155255 N 0 0 0
0:00:00.00 155482 N 0 0 0
0:00:00.00 155718 N 0 0 0
0:00:00.00 155956 N 0 0 0
0:00:00.00 156188 N 0 0 0
0:00:00.00 156427 N 0 0 0
0:00:00.00 156886 N 0 0 0
0:00:00.00 157099 N 0 0 0
0:00:00.00 157356 N 0 0 0
0:00:00.00 157590 N 0 0 0
0:00:00.00 157822 N 0 0 0
0:00:00.00 158051 N 0 0 0
0:00:00.00 158287 N 0 0 0
0:00:00.00 158524 N 0 0 0
0:00:00.00 158755 N 0 0 0
0:00:00.00 158981 N 0 0 0
0:00:00.00 159212 N 0 0 0
0:00:00.00 159440 N 0 0 0
0:00:00.00 159673 N 0 0 0
0:00:00.00 159903 N 0 0 0
0:00:00.00 160139 N 0 0 0
0:00:00.00 160366 N 0 0 0
0:00:00.00 160592 N 0 0 0
0:00:00.00 160825 N 0 0 0
0:00:00.00 161064 N 0 0 0
0:00:00.00 161293 N 0 0 0
0:00:00.00 161523 N 0 0 0
0:00:00.00 161753 N 0 0 0
0:00:00.00 161984 N 0 0 0
0:00:00.00 162214 N 0 0 0
0:00:00.00 162448 N 0 0 0
0:00:00.00 162688 N 0 0 0
0:00:00.00 162911 N 0 0 0
0:00:00.00 163139 N 0 0 0
0:00:00.00 163372 N 0 0 0
0:00:00.00 163607 N 0 0 0
0:00:00.00 163838 N 0 0 0
0:00:00.00 164070 N 0 0 0
0:00:00.00 164297 N 0 0 0
0:00:00.00 164525 N 0 0 0
0:00:00.00 164752 N 0 0 0
0:00:00.00 164986 N 0 0 0
0:00:00.00 165222 N 0 0 0
0:00:00.00 165452 N 0 0 0
0:00:00.00 165685 N 0 0 0
0:00:00.00 165913 N 0 0 0
0:00:00.00 166151 N 0 0 0
0:00:00.00 166385 N 0 0 0
0:00:00.00 166621 N 0 0 0
0:00:00.00 166851 N 0 0 0
0:00:00.00 167081 N 0 0 0
0:00:00.00 167312 N 0 0 0
0:00:00.00 167546 N 0 0 0
0:00:00.00 167783 N 0 0 0
0:00:00.00 168012 N 0 0 0
0:00:00.00 168244 N 0 0 0
0:00:00.00 168471 N 0 0 0
0:00:00.00 168707 N 0 0 0
0:00:00.00 168943 N 0 0 0
0:00:00.00 169175 N 0 0 0
0:00:00.00 169403 N 0 0 0
0:00:00.00 169634 N 0 0 0
0:00:00.00 169870 N 0 0 0
0:00:00.00 170102 N 0 0 0
0:00:00.00 170339 N 0 0 0
0:00:00.00 170573 N 0 0 0
0:00:00.00 170806 N 0 0 0
0:00:00.00 171032 N 0 0 0
0:00:00.00 171268 N 0 0 0
0:00:00.00 171506 N 0 0 0
0:00:00.00 171740 N 0 0 0
0:00:00.00 171961 N 0 0 0
0:00:00.00 172193 N 0 0 0
0:00:00.00 172424 N 0 0 0
0:00:00.00 172654 N 0 0 0
0:00:00.00 172888 N 0 0 0
0:00:00.00 173122 N 0 0 0
0:00:00.00 173351 N 0 0 0
0:00:00.00 173579 N 0 0 0
0:00:00.00 173815 N 0 0 0
0:00:00.00 174058 N 0 0 0
0:00:00.00 174290 N 0 0 0
0:00:00.00 174524 N 0 0 0
0:00:00.00 174753 N 0 0 0
0:00:00.00 174989 N 0 0 0
0:00:00.00 175221 N 0 0 0
0:00:00.00 175457 N 0 0 0
0:00:00.00 175694 N 0 0 0
0:00:00.00 175923 N 0 0 0
0:00:00.00 176153 N 0 0 0
0:00:00.00 176384 N 0 0 0
0:00:00.00 176621 N 0 0 0
0:00:00.00 176852 N 0 0 0
0:00:00.00 177084 N 0 0 0
0:00:00.00 177316 N 0 0 0
0:00:00.00 177548 N 0 0 0
0:00:00.00 177775 N 0 0 0
0:00:00.00 178015 N 0 0 0
0:00:00.00 178254 N 0 0 0
0:00:00.00 178486 N 0 0 0
0:00:00.00 178720 N 0 0 0
0:00:00.00 178951 N 0 0 0
0:00:00.00 179186 N 0 0 0
0:00:00.00 179420 N 0 0 0
0:00:00.00 179654 N 0 0 0
0:00:00.00 179883 N 0 0 0
0:00:00.00 180108 N 0 0 0
0:00:00.00 180333 N 0 0 0
0:00:00.00 180567 N 0 0 0
0:00:00.00 180799 N 0 0 0
0:00:00.00 181028 N 0 0 0
0:00:00.00 181260 N 0 0 0
0:00:00.00 181483 N 0 0 0
0:00:00.00 181717 N 0 0 0
0:00:00.00 181955 N 0 0 0
0:00:00.00 182185 N 0 0 0
0:00:00.00 182408 N 0 0 0
0:00:00.00 182639 N 0 0 0
0:00:00.00 182871 N 0 0 0
0:00:00.00 183103 N 0 0 0
0:00:00.00 183335 N 0 0 0
0:00:00.00 183569 N 0 0 0
0:00:00.00 183798 N 0 0 0
0:00:00.00 184023 N 0 0 0
0:00:00.00 184259 N 0 0 0
0:00:00.00 184496 N 0 0 0
0:00:00.00 184723 N 0 0 0
0:00:00.00 184950 N 0 0 0
0:00:00.00 185180 N 0 0 0
0:00:00.00 185414 N 0 0 0
0:00:00.00 185647 N 0 0 0
0:00:00.00 185882 N 0 0 0
0:00:00.00 186122 N 0 0 0
0:00:00.00 186350 N 0 0 0
0:00:00.00 186583 N 0 0 0
0:00:00.00 186815 N 0 0 0
0:00:00.00 187056 N 0 0 0
0:00:00.00 187288 N 0 0 0
0:00:00.00 187520 N 0 0 0
0:00:00.00 187749 N 0 0 0
0:00:00.00 187978 N 0 0 0
0:00:00.00 188204 N 0 0 0
0:00:00.00 188438 N 0 0 0
0:00:00.00 188669 N 0 0 0
0:00:00.00 188892 N 0 0 0
0:00:00.00 189117 N 0 0 0
0:00:00.00 189338 N 0 0 0
0:00:00.00 189569 N 0 0 0
0:00:00.00 189797 N 0 0 0
0:00:00.00 190026 N 0 0 0
0:00:00.00 190246 N 0 0 0
0:00:00.00 190465 N 0 0 0
0:00:00.00 190692 N 0 0 0
0:00:00.00 190919 N 0 0 0
0:00:00.00 191146 N 0 0 0
0:00:00.00 191376 N 0 0 0
0:00:00.00 191597 N 0 0 0
0:00:00.00 191817 N 0 0 0
0:00:00.00 192044 N 0 0 0
0:00:00.00 192276 N 0 0 0
0:00:00.00 192499 N 0 0 0
0:00:00.00 192724 N 0 0 0
0:00:00.00 192947 N 0 0 0
0:00:00.00 193169 N 0 0 0
0:00:00.00 193396 N 0 0 0
0:00:00.00 193626 N 0 0 0
0:00:00.00 193864 N 0 0 0
0:00:00.00 194089 N 0 0 0
0:00:00.00 194319 N 0 0 0
0:00:00.00 194549 N 0 0 0
0:00:00.00 194789 N 0 0 0
0:00:00.00 195021 N 0 0 0
0:00:00.00 195253 N 0 0 0
0:00:00.00 195485 N 0 0 0
0:00:00.00 195718 N 0 0 0
0:00:00.00 195948 N 0 0 0
0:00:00.00 196184 N 0 0 0
0:00:00.00 196416 N 0 0 0
0:00:00.00 196646 N 0 0 0
0:00:00.00 196877 N 0 0 0
0:00:00.00 197107 N 0 0 0
0:00:00.00 197345 N 0 0 0
0:00:00.00 197579 N 0 0 0
0:00:00.00 197815 N 0 0 0
0:00:00.00 198043 N 0 0 0
0:00:00.00 198274 N 0 0 0
0:00:00.00 198509 N 0 0 0
0:00:00.00 198751 N 0 0 0
0:00:00.00 198990 N 0 0 0
0:00:00.00 199222 N 0 0 0
0:00:00.00 199460 N 0 0 0
0:00:00.00 199694 N 0 0 0
0:00:00.00 199937 N 0 0 0
0:00:00.00 200176 N 0 0 0
0:00:00.00 200417 N 0 0 0
0:00:00.00 200650 N 0 0 0
0:00:00.00 200882 N 0 0 0
0:00:00.00 201038 N 0 0 0
0:00:00.00 201352 N 0 0 0
0:00:00.00 201593 N 0 0 0
0:00:00.00 201821 N 0 0 0
0:00:00.00 202055 N 0 0 0
0:00:00.00 202282 N 0 0 0
0:00:00.00 202520 N 0 0 0
0:00:00.00 202756 N 0 0 0
0:00:00.00 202991 N 0 0 0
0:00:00.00 203224 N 0 0 0
0:00:00.00 203456 N 0 0 0
0:00:00.00 203688 N 0 0 0
0:00:00.00 203929 N 0 0 0
0:00:00.00 204170 N 0 0 0
0:00:00.00 204408 N 0 0 0
0:00:00.00 204642 N 0 0 0
0:00:00.00 204874 N 0 0 0
0:00:00.00 205114 N 0 0 0
0:00:00.00 205353 N 0 0 0
0:00:00.00 205591 N 0 0 0
0:00:00.00 205821 N 0 0 0
0:00:00.00 206051 N 0 0 0
0:00:00.00 206284 N 0 0 0
0:00:00.00 206521 N 0 0 0
0:00:00.00 206759 N 0 0 0
0:00:00.00 206989 N 0 0 0
0:00:00.00 207221 N 0 0 0
0:00:00.00 207452 N 0 0 0
0:00:00.00 207689 N 0 0 0
0:00:00.00 207925 N 0 0 0
0:00:00.00 208165 N 0 0 0
0:00:00.00 208393 N 0 0 0
0:00:00.00 208625 N 0 0 0
0:00:00.00 208863 N 0 0 0
0:00:00.00 209101 N 0 0 0
0:00:00.00 209342 N 0 0 0
0:00:00.00 209576 N 0 0 0
0:00:00.00 209812 N 0 0 0
0:00:00.00 210046 N 0 0 0
0:00:00.00 210289 N 0 0 0
0:00:00.00 210532 N 0 0 0
0:00:00.00 210767 N 0 0 0
0:00:00.00 210996 N 0 0 0
0:00:00.00 211228 N 0 0 0
0:00:00.00 211464 N 0 0 0
0:00:00.00 211705 N 0 0 0
0:00:00.00 211945 N 0 0 0
0:00:00.00 212177 N 0 0 0
0:00:00.00 212411 N 0 0 0
0:00:00.00 212643 N 0 0 0
0:00:00.00 212886 N 0 0 0
0:00:00.00 213129 N 0 0 0
0:00:00.00 213365 N 0 0 0
0:00:00.00 213595 N 0 0 0
0:00:00.00 213827 N 0 0 0
0:00:00.00 214065 N 0 0 0
0:00:00.00 214304 N 0 0 0
0:00:00.00 214540 N 0 0 0
0:00:00.00 214774 N 0 0 0
0:00:00.00 215010 N 0 0 0
0:00:00.00 215239 N 0 0 0
0:00:00.00 215476 N 0 0 0
0:00:00.00 215716 N 0 0 0
0:00:00.00 215951 N 0 0 0
0:00:00.00 216176 N 0 0 0
0:00:00.00 216410 N 0 0 0
0:00:00.00 216644 N 0 0 0
0:00:00.00 216880 N 0 0 0
0:00:00.00 217116 N 0 0 0
0:00:00.00 217352 N 0 0 0
0:00:00.00 217586 N 0 0 0
0:00:00.00 217818 N 0 0 0
0:00:00.00 218052 N 0 0 0
0:00:00.00 218293 N 0 0 0
0:00:00.00 218525 N 0 0 0
0:00:00.00 218758 N 0 0 0
0:00:00.00 218988 N 0 0 0
0:00:00.00 219224 N 0 0 0
0:00:00.00 219454 N 0 0 0
0:00:00.00 219690 N 0 0 0
0:00:00.00 219926 N 0 0 0
0:00:00.00 220165 N 0 0 0
0:00:00.00 220396 N 0 0 0
0:00:00.00 220631 N 0 0 0
0:00:00.00 220871 N 0 0 0
0:00:00.00 221105 N 0 0 0
0:00:00.00 221341 N 0 0 0
0:00:00.00 221576 N 0 0 0
0:00:00.00 221818 N 0 0 0
0:00:00.00 222053 N 0 0 0
0:00:00.00 222289 N 0 0 0
0:00:00.00 222530 N 0 0 0
0:00:00.00 222768 N 0 0 0
0:00:00.00 223000 N 0 0 0
0:00:00.00 223238 N 0 0 0
0:00:00.00 223479 N 0 0 0
0:00:00.00 223711 N 0 0 0
0:00:00.00 223943 N 0 0 0
0:00:00.00 224174 N 0 0 0
0:00:00.00 224413 N 0 0 0
0:00:00.00 224644 N 0 0 0
0:00:00.00 224878 N 0 0 0
0:00:00.00 225115 N 0 0 0
0:00:00.00 225347 N 0 0 0
0:00:00.00 225580 N 0 0 0
0:00:00.00 225810 N 0 0 0
0:00:00.00 226055 N 0 0 0
0:00:00.00 226289 N 0 0 0
0:00:00.00 226517 N 0 0 0
0:00:00.00 226746 N 0 0 0
0:00:00.00 226978 N 0 0 0
0:00:00.00 227207 N 0 0 0
0:00:00.00 227441 N 0 0 0
0:00:00.00 227675 N 0 0 0
0:00:00.00 227902 N 0 0 0
0:00:00.00 228125 N 0 0 0
0:00:00.00 228359 N 0 0 0
0:00:00.00 228593 N 0 0 0
0:00:00.00 228825 N 0 0 0
0:00:00.00 229054 N 0 0 0
0:00:00.00 229280 N 0 0 0
0:00:00.00 229511 N 0 0 0
0:00:00.00 229738 N 0 0 0
0:00:00.00 229973 N 0 0 0
0:00:00.00 230211 N 0 0 0
0:00:00.00 230440 N 0 0 0
0:00:00.00 230600 N 0 0 0
0:00:00.00 230899 N 0 0 0
0:00:00.00 231138 N 0 0 0
0:00:00.00 231367 N 0 0 0
0:00:00.00 231601 N 0 0 0
0:00:00.00 231829 N 0 0 0
0:00:00.00 232058 N 0 0 0
0:00:00.00 232286 N 0 0 0
0:00:00.00 232519 N 0 0 0
0:00:00.00 232758 N 0 0 0
0:00:00.00 232987 N 0 0 0
0:00:00.00 233221 N 0 0 0
0:00:00.00 233451 N 0 0 0
0:00:00.00 233692 N 0 0 0
0:00:00.00 233928 N 0 0 0
0:00:00.00 234166 N 0 0 0
0:00:00.00 234398 N 0 0 0
0:00:00.00 234634 N 0 0 0
0:00:00.00 234868 N 0 0 0
0:00:00.00 234990 N 0 0 0
0:00:00.00 235345 N 0 0 0
0:00:00.00 235584 N 0 0 0
0:00:00.00 235818 N 0 0 0
0:00:00.00 236052 N 0 0 0
0:00:00.00 236290 N 0 0 0
0:00:00.00 236524 N 0 0 0
0:00:00.00 236758 N 0 0 0
0:00:00.00 236990 N 0 0 0
0:00:00.00 237226 N 0 0 0
0:00:00.00 237461 N 0 0 0
0:00:00.00 237701 N 0 0 0
0:00:00.00 237944 N 0 0 0
0:00:00.00 238183 N 0 0 0
0:00:00.00 238424 N 0 0 0
0:00:00.00 238667 N 0 0 0
0:00:00.00 238918 N 0 0 0
0:00:00.00 239159 N 0 0 0
0:00:00.00 239404 N 0 0 0
0:00:00.00 239639 N 0 0 0
0:00:00.00 239886 N 0 0 0
0:00:00.00 240122 N 0 0 0
0:00:00.00 240365 N 0 0 0
0:00:00.00 240606 N 0 0 0
0:00:00.00 240844 N 0 0 0
0:00:00.00 241078 N 0 0 0
0:00:00.00 241315 N 0 0 0
0:00:00.00 241560 N 0 0 0
0:00:00.00 241796 N 0 0 0
0:00:00.00 242032 N 0 0 0
0:00:00.00 242271 N 0 0 0
0:00:00.00 242514 N 0 0 0
0:00:00.00 242752 N 0 0 0
0:00:00.00 242993 N 0 0 0
0:00:00.00 243236 N 0 0 0
0:00:00.00 243475 N 0 0 0
0:00:00.00 243711 N 0 0 0
0:00:00.00 243949 N 0 0 0
0:00:00.00 244197 N 0 0 0
0:00:00.00 244435 N 0 0 0
0:00:00.00 244669 N 0 0 0
0:00:00.00 244904 N 0 0 0
0:00:00.00 245146 N 0 0 0
0:00:00.00 245380 N 0 0 0
0:00:00.00 245621 N 0 0 0
0:00:00.00 245858 N 0 0 0
0:00:00.00 246098 N 0 0 0
0:00:00.00 246332 N 0 0 0
0:00:00.00 246573 N 0 0 0
0:00:00.00 246818 N 0 0 0
0:00:00.00 247057 N 0 0 0
0:00:00.00 247293 N 0 0 0
0:00:00.00 247531 N 0 0 0
0:00:00.00 247772 N 0 0 0
0:00:00.00 248011 N 0 0 0
0:00:00.00 248254 N 0 0 0
0:00:00.00 248494 N 0 0 0
0:00:00.00 248733 N 0 0 0
0:00:00.00 248969 N 0 0 0
0:00:00.00 249210 N 0 0 0
0:00:00.00 249453 N 0 0 0
0:00:00.00 249692 N 0 0 0
0:00:00.00 249928 N 0 0 0
0:00:00.00 250164 N 0 0 0
0:00:00.00 250403 N 0 0 0
0:00:00.00 250648 N 0 0 0
0:00:00.00 250891 N 0 0 0
0:00:00.00 251129 N 0 0 0
0:00:00.00 251368 N 0 0 0
0:00:00.00 251606 N 0 0 0
0:00:00.00 251849 N 0 0 0
0:00:00.00 252092 N 0 0 0
0:00:00.00 252335 N 0 0 0
0:00:00.00 252569 N 0 0 0
0:00:00.00 252803 N 0 0 0
0:00:00.00 253039 N 0 0 0
0:00:00.00 253283 N 0 0 0
0:00:00.00 253530 N 0 0 0
0:00:00.00 253769 N 0 0 0
0:00:00.00 254007 N 0 0 0
0:00:00.00 254245 N 0 0 0
0:00:00.00 254489 N 0 0 0
0:00:00.00 254734 N 0 0 0
0:00:00.00 254975 N 0 0 0
0:00:00.00 255209 N 0 0 0
0:00:00.00 255447 N 0 0 0
0:00:00.00 255683 N 0 0 0
0:00:00.00 255928 N 0 0 0
0:00:00.00 256172 N 0 0 0
0:00:00.00 256410 N 0 0 0
0:00:00.00 256646 N 0 0 0
0:00:00.00 256883 N 0 0 0
0:00:00.00 257128 N 0 0 0
0:00:00.00 257368 N 0 0 0
0:00:00.00 257607 N 0 0 0
0:00:00.00 257841 N 0 0 0
0:00:00.00 258079 N 0 0 0
0:00:00.00 258313 N 0 0 0
0:00:00.00 258556 N 0 0 0
0:00:00.00 258800 N 0 0 0
0:00:00.00 259034 N 0 0 0
0:00:00.00 259268 N 0 0 0
0:00:00.00 259510 N 0 0 0
0:00:00.00 259758 N 0 0 0
0:00:00.00 259999 N 0 0 0
0:00:00.00 260240 N 0 0 0
0:00:00.00 260480 N 0 0 0
0:00:00.00 260725 N 0 0 0
0:00:00.00 260962 N 0 0 0
0:00:00.00 261205 N 0 0 0
0:00:00.00 261450 N 0 0 0
0:00:00.00 261686 N 0 0 0
0:00:00.00 261922 N 0 0 0
0:00:00.00 262163 N 0 0 0
0:00:00.00 262411 N 0 0 0
0:00:00.00 262652 N 0 0 0
0:00:00.00 262886 N 0 0 0
0:00:00.00 263124 N 0 0 0
0:00:00.00 263367 N 0 0 0
0:00:00.00 263612 N 0 0 0
0:00:00.00 263857 N 0 0 0
0:00:00.00 264096 N 0 0 0
0:00:00.00 264334 N 0 0 0
0:00:00.00 264571 N 0 0 0
0:00:00.00 264816 N 0 0 0
0:00:00.00 265061 N 0 0 0
0:00:00.00 265300 N 0 0 0
0:00:00.00 265534 N 0 0 0
0:00:00.00 265768 N 0 0 0
0:00:00.00 266004 N 0 0 0
0:00:00.00 266245 N 0 0 0
0:00:00.00 266485 N 0 0 0
0:00:00.00 266720 N 0 0 0
0:00:00.00 266958 N 0 0 0
0:00:00.00 267194 N 0 0 0
0:00:00.00 267439 N 0 0 0
0:00:00.00 267680 N 0 0 0
0:00:00.00 267923 N 0 0 0
0:00:00.00 268160 N 0 0 0
0:00:00.00 268398 N 0 0 0
0:00:00.00 268634 N 0 0 0
0:00:00.00 268877 N 0 0 0
0:00:00.00 269125 N 0 0 0
0:00:00.00 269361 N 0 0 0
0:00:00.00 269597 N 0 0 0
0:00:00.00 269831 N 0 0 0
0:00:00.00 270077 N 0 0 0
0:00:00.00 270317 N 0 0 0
0:00:00.00 270553 N 0 0 0
0:00:00.00 270788 N 0 0 0
0:00:00.00 271024 N 0 0 0
0:00:00.00 271256 N 0 0 0
0:00:00.00 271498 N 0 0 0
0:00:00.00 271739 N 0 0 0
0:00:00.00 271975 N 0 0 0
0:00:00.00 272207 N 0 0 0
0:00:00.00 272444 N 0 0 0
0:00:00.00 272689 N 0 0 0
0:00:00.00 272925 N 0 0 0
0:00:00.00 273157 N 0 0 0
0:00:00.00 273391 N 0 0 0
0:00:00.00 273632 N 0 0 0
0:00:00.00 273868 N 0 0 0
0:00:00.00 274108 N 0 0 0
0:00:00.00 274345 N 0 0 0
0:00:00.00 274583 N 0 0 0
0:00:00.00 274813 N 0 0 0
0:00:00.00 275051 N 0 0 0
0:00:00.00 275294 N 0 0 0
0:00:00.00 275526 N 0 0 0
0:00:00.00 275751 N 0 0 0
0:00:00.00 275983 N 0 0 0
0:00:00.00 276223 N 0 0 0
0:00:00.00 276455 N 0 0 0
0:00:00.00 276691 N 0 0 0
0:00:00.00 276928 N 0 0 0
0:00:00.00 277159 N 0 0 0
0:00:00.00 277385 N 0 0 0
0:00:00.00 277618 N 0 0 0
0:00:00.00 277861 N 0 0 0
0:00:00.00 278093 N 0 0 0
0:00:00.00 278323 N 0 0 0
0:00:00.00 278552 N 0 0 0
0:00:00.00 278786 N 0 0 0
0:00:00.00 279013 N 0 0 0
0:00:00.00 279248 N 0 0 0
0:00:00.00 279482 N 0 0 0
0:00:00.00 279711 N 0 0 0
0:00:00.00 279938 N 0 0 0
0:00:00.00 280163 N 0 0 0
0:00:00.00 280400 N 0 0 0
0:00:00.00 280631 N 0 0 0
0:00:00.00 280865 N 0 0 0
0:00:00.00 281088 N 0 0 0
0:00:00.00 281317 N 0 0 0
0:00:00.00 281542 N 0 0 0
0:00:00.00 281776 N 0 0 0
0:00:00.00 282010 N 0 0 0
0:00:00.00 282240 N 0 0 0
0:00:00.00 282469 N 0 0 0
0:00:00.00 282697 N 0 0 0
0:00:00.00 282931 N 0 0 0
0:00:00.00 283165 N 0 0 0
0:00:00.00 283399 N 0 0 0
0:00:00.00 283624 N 0 0 0
0:00:00.00 283849 N 0 0 0
0:00:00.00 284081 N 0 0 0
0:00:00.00 284312 N 0 0 0
0:00:00.00 284544 N 0 0 0
0:00:00.00 284773 N 0 0 0
0:00:00.00 285001 N 0 0 0
0:00:00.00 285226 N 0 0 0
0:00:00.00 285460 N 0 0 0
0:00:00.00 285698 N 0 0 0
0:00:00.00 285926 N 0 0 0
0:00:00.00 286155 N 0 0 0
0:00:00.00 286385 N 0 0 0
0:00:00.00 286619 N 0 0 0
0:00:00.00 286850 N 0 0 0
0:00:00.00 287082 N 0 0 0
0:00:00.00 287316 N 0 0 0
0:00:00.00 287545 N 0 0 0
0:00:00.00 287771 N 0 0 0
0:00:00.00 287998 N 0 0 0
0:00:00.00 288234 N 0 0 0
0:00:00.00 288459 N 0 0 0
0:00:00.00 288682 N 0 0 0
0:00:00.00 288913 N 0 0 0
0:00:00.00 289136 N 0 0 0
0:00:00.00 289361 N 0 0 0
0:00:00.00 289588 N 0 0 0
0:00:00.00 289820 N 0 0 0
0:00:00.00 290048 N 0 0 0
0:00:00.00 290277 N 0 0 0
0:00:00.00 290500 N 0 0 0
0:00:00.00 290732 N 0 0 0
0:00:00.00 290968 N 0 0 0
0:00:00.00 291199 N 0 0 0
0:00:00.00 291424 N 0 0 0
0:00:00.00 291650 N 0 0 0
0:00:00.00 291886 N 0 0 0
0:00:00.00 292117 N 0 0 0
0:00:00.00 292347 N 0 0 0
0:00:00.00 292577 N 0 0 0
0:00:00.00 292810 N 0 0 0
0:00:00.00 293035 N 0 0 0
0:00:00.00 293267 N 0 0 0
0:00:00.00 293501 N 0 0 0
0:00:00.00 293731 N 0 0 0
0:00:00.00 293960 N 0 0 0
0:00:00.00 294194 N 0 0 0
0:00:00.00 294431 N 0 0 0
0:00:00.00 294664 N 0 0 0
0:00:00.00 294901 N 0 0 0
0:00:00.00 295142 N 0 0 0
0:00:00.00 295376 N 0 0 0
0:00:00.00 295610 N 0 0 0
0:00:00.00 295846 N 0 0 0
0:00:00.00 296037 N 0 0 0
0:00:00.00 296321 N 0 0 0
0:00:00.00 296564 N 0 0 0
0:00:00.00 296793 N 0 0 0
0:00:00.00 297023 N 0 0 0
0:00:00.00 297261 N 0 0 0
0:00:00.00 297499 N 0 0 0
0:00:00.00 297736 N 0 0 0
0:00:00.00 297965 N 0 0 0
0:00:00.00 298204 N 0 0 0
0:00:00.00 298442 N 0 0 0
0:00:00.00 298687 N 0 0 0
0:00:00.00 298922 N 0 0 0
0:00:00.00 299160 N 0 0 0
0:00:00.00 299398 N 0 0 0
0:00:00.00 299644 N 0 0 0
0:00:00.00 299882 N 0 0 0
0:00:00.00 300119 N 0 0 0
0:00:00.00 300364 N 0 0 0
0:00:00.00 300602 N 0 0 0
0:00:00.00 300836 N 0 0 0
0:00:00.00 301072 N 0 0 0
0:00:00.00 301318 N 0 0 0
0:00:00.00 301559 N 0 0 0
0:00:00.00 301788 N 0 0 0
0:00:00.00 302018 N 0 0 0
0:00:00.00 302252 N 0 0 0
0:00:00.00 302499 N 0 0 0
0:00:00.00 302738 N 0 0 0
0:00:00.00 302974 N 0 0 0
0:00:00.00 303205 N 0 0 0
0:00:00.00 303446 N 0 0 0
0:00:00.00 303692 N 0 0 0
0:00:00.00 303937 N 0 0 0
0:00:00.00 304177 N 0 0 0
0:00:00.00 304403 N 0 0 0
0:00:00.00 304645 N 0 0 0
0:00:00.00 304884 N 0 0 0
0:00:00.00 305129 N 0 0 0
0:00:00.00 305365 N 0 0 0
0:00:00.00 305597 N 0 0 0
0:00:00.00 305838 N 0 0 0
0:00:00.00 306074 N 0 0 0
0:00:00.00 306313 N 0 0 0
0:00:00.00 306553 N 0 0 0
0:00:00.00 306799 N 0 0 0
0:00:00.00 307031 N 0 0 0
0:00:00.00 307265 N 0 0 0
0:00:00.00 307501 N 0 0 0
0:00:00.00 307750 N 0 0 0
0:00:00.00 307996 N 0 0 0
0:00:00.00 308234 N 0 0 0
0:00:00.00 308470 N 0 0 0
0:00:00.00 308711 N 0 0 0
0:00:00.00 308959 N 0 0 0
0:00:00.00 309195 N 0 0 0
0:00:00.00 309436 N 0 0 0
0:00:00.00 309674 N 0 0 0
0:00:00.00 309913 N 0 0 0
0:00:00.00 310149 N 0 0 0
0:00:00.00 310388 N 0 0 0
0:00:00.00 310635 N 0 0 0
0:00:00.00 310874 N 0 0 0
0:00:00.00 311108 N 0 0 0
0:00:00.00 311350 N 0 0 0
0:00:00.00 311600 N 0 0 0
0:00:00.00 311841 N 0 0 0
0:00:00.00 312075 N 0 0 0
0:00:00.00 312311 N 0 0 0
0:00:00.00 312557 N 0 0 0
0:00:00.00 312804 N 0 0 0
0:00:00.00 313045 N 0 0 0
0:00:00.00 313285 N 0 0 0
0:00:00.00 313520 N 0 0 0
0:00:00.00 313762 N 0 0 0
0:00:00.00 314003 N 0 0 0
0:00:00.00 314248 N 0 0 0
0:00:00.00 314485 N 0 0 0
0:00:00.00 314723 N 0 0 0
0:00:00.00 314962 N 0 0 0
0:00:00.00 315203 N 0 0 0
0:00:00.00 315446 N 0 0 0
0:00:00.00 315688 N 0 0 0
0:00:00.00 315929 N 0 0 0
0:00:00.00 316172 N 0 0 0
0:00:00.00 316411 N 0 0 0
0:00:00.00 316656 N 0 0 0
0:00:00.00 316903 N 0 0 0
0:00:00.00 317153 N 0 0 0
0:00:00.00 317390 N 0 0 0
0:00:00.00 317633 N 0 0 0
0:00:00.00 317875 N 0 0 0
0:00:00.00 318128 N 0 0 0
0:00:00.00 318380 N 0 0 0
0:00:00.00 318625 N 0 0 0
0:00:00.00 318865 N 0 0 0
0:00:00.00 319113 N 0 0 0
0:00:00.00 319369 N 0 0 0
0:00:00.00 319617 N 0 0 0
0:00:00.00 319856 N 0 0 0
0:00:00.00 320098 N 0 0 0
0:00:00.00 320348 N 0 0 0
0:00:00.00 320594 N 0 0 0
0:00:00.00 320845 N 0 0 0
0:00:00.00 321091 N 0 0 0
0:00:00.00 321338 N 0 0 0
0:00:00.00 321583 N 0 0 0
0:00:00.00 321835 N 0 0 0
0:00:00.00 322085 N 0 0 0
0:00:00.00 322330 N 0 0 0
0:00:00.00 322580 N 0 0 0
0:00:00.00 322823 N 0 0 0
0:00:00.00 323066 N 0 0 0
0:00:00.00 323312 N 0 0 0
0:00:00.00 323564 N 0 0 0
0:00:00.00 323807 N 0 0 0
0:00:00.00 324050 N 0 0 0
0:00:00.00 324288 N 0 0 0
0:00:00.00 324544 N 0 0 0
0:00:00.00 324790 N 0 0 0
0:00:00.00 325037 N 0 0 0
0:00:00.00 325280 N 0 0 0
0:00:00.00 325525 N 0 0 0
0:00:00.00 325768 N 0 0 0
0:00:00.00 326012 N 0 0 0
0:00:00.00 326259 N 0 0 0
0:00:00.00 326498 N 0 0 0
0:00:00.00 326743 N 0 0 0
0:00:00.00 326990 N 0 0 0
0:00:00.00 327242 N 0 0 0
0:00:00.00 327488 N 0 0 0
0:00:00.00 327726 N 0 0 0
0:00:00.00 327962 N 0 0 0
0:00:00.00 328199 N 0 0 0
0:00:00.00 328448 N 0 0 0
0:00:00.00 328689 N 0 0 0
0:00:00.00 328932 N 0 0 0
0:00:00.00 329177 N 0 0 0
0:00:00.00 329413 N 0 0 0
0:00:00.00 329657 N 0 0 0
0:00:00.00 329902 N 0 0 0
0:00:00.00 330142 N 0 0 0
0:00:00.00 330377 N 0 0 0
0:00:00.00 330613 N 0 0 0
0:00:00.00 330856 N 0 0 0
0:00:00.00 331097 N 0 0 0
0:00:00.00 331335 N 0 0 0
0:00:00.00 331567 N 0 0 0
0:00:00.00 331808 N 0 0 0
0:00:00.00 332039 N 0 0 0
0:00:00.00 332278 N 0 0 0
0:00:00.00 332516 N 0 0 0
0:00:00.00 332755 N 0 0 0
0:00:00.00 332986 N 0 0 0
0:00:00.00 333214 N 0 0 0
0:00:00.00 333356 N 0 0 0
0:00:00.00 333689 N 0 0 0
0:00:00.00 333886 N 0 0 0
0:00:00.00 334152 N 0 0 0
0:00:00.00 334397 N 0 0 0
0:00:00.00 334631 N 0 0 0
0:00:00.00 334872 N 0 0 0
0:00:00.00 335110 N 0 0 0
0:00:00.00 335356 N 0 0 0
0:00:00.00 335588 N 0 0 0
0:00:00.00 335824 N 0 0 0
0:00:00.00 336060 N 0 0 0
0:00:00.00 336301 N 0 0 0
0:00:00.00 336546 N 0 0 0
0:00:00.00 336782 N 0 0 0
0:00:00.00 337023 N 0 0 0
0:00:00.00 337261 N 0 0 0
0:00:00.00 337507 N 0 0 0
0:00:00.00 337745 N 0 0 0
0:00:00.00 337991 N 0 0 0
0:00:00.00 338231 N 0 0 0
0:00:00.00 338479 N 0 0 0
0:00:00.00 338722 N 0 0 0
0:00:00.00 338965 N 0 0 0
0:00:00.00 339206 N 0 0 0
0:00:00.00 339453 N 0 0 0
0:00:00.00 339692 N 0 0 0
0:00:00.00 339939 N 0 0 0
0:00:00.00 340189 N 0 0 0
0:00:00.00 340427 N 0 0 0
0:00:00.00 340655 N 0 0 0
0:00:00.00 340895 N 0 0 0
0:00:00.00 341140 N 0 0 0
0:00:00.00 341384 N 0 0 0
0:00:00.00 341624 N 0 0 0
0:00:00.00 341856 N 0 0 0
0:00:00.00 342103 N 0 0 0
0:00:00.00 342337 N 0 0 0
0:00:00.00 342583 N 0 0 0
0:00:00.00 342832 N 0 0 0
0:00:00.00 343078 N 0 0 0
0:00:00.00 343314 N 0 0 0
0:00:00.00 343552 N 0 0 0
0:00:00.00 343786 N 0 0 0
0:00:00.00 344034 N 0 0 0
0:00:00.00 344277 N 0 0 0
0:00:00.00 344515 N 0 0 0
0:00:00.00 344749 N 0 0 0
0:00:00.00 344981 N 0 0 0
0:00:00.00 345226 N 0 0 0
0:00:00.00 345467 N 0 0 0
0:00:00.00 345703 N 0 0 0
0:00:00.00 345937 N 0 0 0
0:00:00.00 346169 N 0 0 0
0:00:00.00 346410 N 0 0 0
0:00:00.00 346655 N 0 0 0
0:00:00.00 346903 N 0 0 0
0:00:00.00 347137 N 0 0 0
0:00:00.00 347377 N 0 0 0
0:00:00.00 347614 N 0 0 0
0:00:00.00 347857 N 0 0 0
0:00:00.00 348098 N 0 0 0
0:00:00.00 348343 N 0 0 0
0:00:00.00 348817 N 0 0 0
0:00:00.00 349052 N 0 0 0
0:00:00.00 349297 N 0 0 0
0:00:00.00 349540 N 0 0 0
0:00:00.00 349774 N 0 0 0
0:00:00.00 350006 N 0 0 0
0:00:00.00 350242 N 0 0 0
0:00:00.00 350492 N 0 0 0
0:00:00.00 350734 N 0 0 0
0:00:00.00 350969 N 0 0 0
0:00:00.00 351207 N 0 0 0
0:00:00.00 351448 N 0 0 0
0:00:00.00 351686 N 0 0 0
0:00:00.00 351929 N 0 0 0
0:00:00.00 352172 N 0 0 0
0:00:00.00 352409 N 0 0 0
0:00:00.00 352640 N 0 0 0
0:00:00.00 352877 N 0 0 0
0:00:00.00 353120 N 0 0 0
0:00:00.00 353360 N 0 0 0
0:00:00.00 353590 N 0 0 0
0:00:00.00 353824 N 0 0 0
0:00:00.00 354062 N 0 0 0
0:00:00.00 354294 N 0 0 0
0:00:00.00 354535 N 0 0 0
0:00:00.00 354775 N 0 0 0
0:00:00.00 355009 N 0 0 0
0:00:00.00 355237 N 0 0 0
0:00:00.00 355477 N 0 0 0
0:00:00.00 355729 N 0 0 0
0:00:00.00 355964 N 0 0 0
0:00:00.00 356200 N 0 0 0
0:00:00.00 356432 N 0 0 0
0:00:00.00 356679 N 0 0 0
0:00:00.00 356913 N 0 0 0
0:00:00.00 357149 N 0 0 0
0:00:00.00 357385 N 0 0 0
0:00:00.00 357620 N 0 0 0
0:00:00.00 357849 N 0 0 0
0:00:00.00 358092 N 0 0 0
0:00:00.00 358333 N 0 0 0
0:00:00.00 358567 N 0 0 0
0:00:00.00 358796 N 0 0 0
0:00:00.00 359030 N 0 0 0
0:00:00.00 359269 N 0 0 0
0:00:00.00 359505 N 0 0 0
0:00:00.00 359743 N 0 0 0
0:00:00.00 359982 N 0 0 0
0:00:00.00 360220 N 0 0 0
0:00:00.00 360450 N 0 0 0
0:00:00.00 360680 N 0 0 0
0:00:00.00 360925 N 0 0 0
0:00:00.00 361154 N 0 0 0
0:00:00.00 361391 N 0 0 0
0:00:00.00 361625 N 0 0 0
0:00:00.00 361863 N 0 0 0
0:00:00.00 362093 N 0 0 0
0:00:00.00 362333 N 0 0 0
0:00:00.00 362578 N 0 0 0
0:00:00.00 362821 N 0 0 0
0:00:00.00 363049 N 0 0 0
0:00:00.00 363290 N 0 0 0
0:00:00.00 363542 N 0 0 0
0:00:00.00 363785 N 0 0 0
0:00:00.00 364021 N 0 0 0
0:00:00.00 364261 N 0 0 0
0:00:00.00 364504 N 0 0 0
0:00:00.00 364752 N 0 0 0
0:00:00.00 364997 N 0 0 0
0:00:00.00 365238 N 0 0 0
0:00:00.00 365481 N 0 0 0
0:00:00.00 365726 N 0 0 0
0:00:00.00 365974 N 0 0 0
0:00:00.00 366223 N 0 0 0
0:00:00.00 366464 N 0 0 0
0:00:00.00 366705 N 0 0 0
0:00:00.00 366953 N 0 0 0
0:00:00.00 367200 N 0 0 0
0:00:00.00 367445 N 0 0 0
0:00:00.00 367697 N 0 0 0
0:00:00.00 367943 N 0 0 0
0:00:00.00 368190 N 0 0 0
0:00:00.00 368437 N 0 0 0
0:00:00.00 368692 N 0 0 0
0:00:00.00 368939 N 0 0 0
0:00:00.00 369185 N 0 0 0
0:00:00.00 369430 N 0 0 0
0:00:00.00 369679 N 0 0 0
0:00:00.00 369920 N 0 0 0
0:00:00.00 370172 N 0 0 0
0:00:00.00 370418 N 0 0 0
0:00:00.00 370667 N 0 0 0
0:00:00.00 370904 N 0 0 0
0:00:00.00 371153 N 0 0 0
0:00:00.00 371410 N 0 0 0
0:00:00.00 371660 N 0 0 0
0:00:00.00 371902 N 0 0 0
0:00:00.00 372150 N 0 0 0
0:00:00.00 372400 N 0 0 0
0:00:00.00 372654 N 0 0 0
0:00:00.00 372911 N 0 0 0
0:00:00.00 373158 N 0 0 0
0:00:00.00 373401 N 0 0 0
0:00:00.00 373657 N 0 0 0
0:00:00.00 373916 N 0 0 0
0:00:00.00 374162 N 0 0 0
0:00:00.00 374405 N 0 0 0
0:00:00.00 374652 N 0 0 0
0:00:00.00 374902 N 0 0 0
0:00:00.00 375149 N 0 0 0
0:00:00.00 375397 N 0 0 0
0:00:00.00 375642 N 0 0 0
0:00:00.00 375887 N 0 0 0
0:00:00.00 376126 N 0 0 0
0:00:00.00 376378 N 0 0 0
0:00:00.00 376627 N 0 0 0
0:00:00.00 376873 N 0 0 0
0:00:00.00 377114 N 0 0 0
0:00:00.00 377361 N 0 0 0
0:00:00.00 377604 N 0 0 0
0:00:00.00 377852 N 0 0 0
0:00:00.00 378101 N 0 0 0
0:00:00.00 378344 N 0 0 0
0:00:00.00 378578 N 0 0 0
0:00:00.00 378830 N 0 0 0
0:00:00.00 379082 N 0 0 0
0:00:00.00 379325 N 0 0 0
0:00:00.00 379562 N 0 0 0
0:00:00.00 379807 N 0 0 0
0:00:00.00 380054 N 0 0 0
0:00:00.00 380300 N 0 0 0
0:00:00.00 380552 N 0 0 0
0:00:00.00 380795 N 0 0 0
0:00:00.00 381046 N 0 0 0
0:00:00.00 381292 N 0 0 0
0:00:00.00 381548 N 0 0 0
0:00:00.00 381798 N 0 0 0
0:00:00.00 382046 N 0 0 0
0:00:00.00 382293 N 0 0 0
0:00:00.00 382545 N 0 0 0
0:00:00.00 382792 N 0 0 0
0:00:00.00 383047 N 0 0 0
0:00:00.00 383299 N 0 0 0
0:00:00.00 383553 N 0 0 0
0:00:00.00 383794 N 0 0 0
0:00:00.00 384052 N 0 0 0
0:00:00.00 384307 N 0 0 0
0:00:00.00 384561 N 0 0 0
0:00:00.00 384808 N 0 0 0
0:00:00.00 385054 N 0 0 0
0:00:00.00 385303 N 0 0 0
0:00:00.00 385556 N 0 0 0
0:00:00.00 385814 N 0 0 0
0:00:00.00 386062 N 0 0 0
0:00:00.00 386307 N 0 0 0
0:00:00.00 386555 N 0 0 0
0:00:00.00 386815 N 0 0 0
0:00:00.00 387065 N 0 0 0
0:00:00.00 387313 N 0 0 0
0:00:00.00 387560 N 0 0 0
0:00:00.00 387812 N 0 0 0
0:00:00.00 388064 N 0 0 0
0:00:00.00 388319 N 0 0 0
0:00:00.00 388571 N 0 0 0
0:00:00.00 388822 N 0 0 0
0:00:00.00 389070 N 0 0 0
0:00:00.00 389331 N 0 0 0
0:00:00.00 389585 N 0 0 0
0:00:00.00 389840 N 0 0 0
0:00:00.00 390089 N 0 0 0
0:00:00.00 390344 N 0 0 0
0:00:00.00 390596 N 0 0 0
0:00:00.00 390854 N 0 0 0
0:00:00.00 391108 N 0 0 0
0:00:00.00 391361 N 0 0 0
0:00:00.00 391608 N 0 0 0
0:00:00.00 391867 N 0 0 0
0:00:00.00 392126 N 0 0 0
0:00:00.00 392375 N 0 0 0
0:00:00.00 392623 N 0 0 0
0:00:00.00 392873 N 0 0 0
0:00:00.00 393125 N 0 0 0
0:00:00.00 393377 N 0 0 0
0:00:00.00 393635 N 0 0 0
0:00:00.00 393883 N 0 0 0
0:00:00.00 394126 N 0 0 0
0:00:00.00 394384 N 0 0 0
0:00:00.00 394645 N 0 0 0
0:00:00.00 394893 N 0 0 0
0:00:00.00 395136 N 0 0 0
0:00:00.00 395384 N 0 0 0
0:00:00.00 395638 N 0 0 0
0:00:00.00 395888 N 0 0 0
0:00:00.00 396142 N 0 0 0
0:00:00.00 396391 N 0 0 0
0:00:00.00 396637 N 0 0 0
0:00:00.00 396886 N 0 0 0
0:00:00.00 397143 N 0 0 0
0:00:00.00 397395 N 0 0 0
0:00:00.00 397643 N 0 0 0
0:00:00.00 397892 N 0 0 0
0:00:00.00 398144 N 0 0 0
0:00:00.00 398390 N 0 0 0
0:00:00.00 398642 N 0 0 0
0:00:00.00 398898 N 0 0 0
0:00:00.00 399150 N 0 0 0
0:00:00.00 399398 N 0 0 0
0:00:00.00 399652 N 0 0 0
0:00:00.00 399911 N 0 0 0
0:00:00.00 400165 N 0 0 0
0:00:00.00 400412 N 0 0 0
0:00:00.00 400660 N 0 0 0
0:00:00.00 400909 N 0 0 0
0:00:00.00 401162 N 0 0 0
0:00:00.00 401422 N 0 0 0
0:00:00.00 401672 N 0 0 0
0:00:00.00 401918 N 0 0 0
0:00:00.00 402172 N 0 0 0
0:00:00.00 402433 N 0 0 0
0:00:00.00 402685 N 0 0 0
0:00:00.00 402932 N 0 0 0
0:00:00.00 403184 N 0 0 0
0:00:00.00 403438 N 0 0 0
0:00:00.00 403695 N 0 0 0
0:00:00.00 403952 N 0 0 0
0:00:00.00 404204 N 0 0 0
0:00:00.00 404455 N 0 0 0
0:00:00.00 404708 N 0 0 0
0:00:00.00 404969 N 0 0 0
0:00:00.00 405221 N 0 0 0
0:00:00.00 405472 N 0 0 0
0:00:00.00 405722 N 0 0 0
0:00:00.00 405972 N 0 0 0
0:00:00.00 406228 N 0 0 0
0:00:00.00 406485 N 0 0 0
0:00:00.00 406739 N 0 0 0
0:00:00.00 406991 N 0 0 0
0:00:00.00 407239 N 0 0 0
0:00:00.00 407506 N 0 0 0
0:00:00.00 407767 N 0 0 0
0:00:00.00 408026 N 0 0 0
0:00:00.00 408274 N 0 0 0
0:00:00.00 408530 N 0 0 0
0:00:00.00 408784 N 0 0 0
0:00:00.00 409045 N 0 0 0
0:00:00.00 409298 N 0 0 0
0:00:00.00 409549 N 0 0 0
0:00:00.00 409797 N 0 0 0
0:00:00.00 410060 N 0 0 0
0:00:00.00 410319 N 0 0 0
0:00:00.00 410576 N 0 0 0
0:00:00.00 410828 N 0 0 0
0:00:00.00 411082 N 0 0 0
0:00:00.00 411338 N 0 0 0
0:00:00.00 411599 N 0 0 0
0:00:00.00 411860 N 0 0 0
0:00:00.00 412115 N 0 0 0
0:00:00.00 412366 N 0 0 0
0:00:00.00 412625 N 0 0 0
0:00:00.00 412888 N 0 0 0
0:00:00.00 413140 N 0 0 0
0:00:00.00 413390 N 0 0 0
0:00:00.00 413640 N 0 0 0
0:00:00.00 413887 N 0 0 0
0:00:00.00 414140 N 0 0 0
0:00:00.00 414396 N 0 0 0
0:00:00.00 414646 N 0 0 0
0:00:00.00 414896 N 0 0 0
0:00:00.00 415150 N 0 0 0
0:00:00.00 415409 N 0 0 0
0:00:00.00 415665 N 0 0 0
0:00:00.00 415910 N 0 0 0
0:00:00.00 416165 N 0 0 0
0:00:00.00 416416 N 0 0 0
0:00:00.00 416673 N 0 0 0
0:00:00.00 416934 N 0 0 0
0:00:00.00 417184 N 0 0 0
0:00:00.00 417434 N 0 0 0
0:00:00.00 417692 N 0 0 0
0:00:00.00 417951 N 0 0 0
0:00:00.00 418205 N 0 0 0
0:00:00.00 418446 N 0 0 0
0:00:00.00 418698 N 0 0 0
0:00:00.00 418950 N 0 0 0
0:00:00.00 419204 N 0 0 0
0:00:00.00 419467 N 0 0 0
0:00:00.00 419719 N 0 0 0
0:00:00.00 419972 N 0 0 0
0:00:00.00 420228 N 0 0 0
0:00:00.00 420498 N 0 0 0
0:00:00.00 420752 N 0 0 0
0:00:00.00 421006 N 0 0 0
0:00:00.00 421256 N 0 0 0
0:00:00.00 421517 N 0 0 0
0:00:00.00 421771 N 0 0 0
0:00:00.00 422033 N 0 0 0
0:00:00.00 422285 N 0 0 0
0:00:00.00 422537 N 0 0 0
0:00:00.00 422788 N 0 0 0
0:00:00.00 423050 N 0 0 0
0:00:00.00 423306 N 0 0 0
0:00:00.00 423560 N 0 0 0
0:00:00.00 423812 N 0 0 0
0:00:00.00 424069 N 0 0 0
0:00:00.00 424325 N 0 0 0
0:00:00.00 424586 N 0 0 0
0:00:00.00 424849 N 0 0 0
0:00:00.00 425106 N 0 0 0
0:00:00.00 425358 N 0 0 0
0:00:00.00 425621 N 0 0 0
0:00:00.00 425878 N 0 0 0
0:00:00.00 426132 N 0 0 0
0:00:00.00 426384 N 0 0 0
0:00:00.00 426636 N 0 0 0
0:00:00.00 426884 N 0 0 0
0:00:00.00 427145 N 0 0 0
0:00:00.00 427401 N 0 0 0
0:00:00.00 427655 N 0 0 0
0:00:00.00 427905 N 0 0 0
0:00:00.00 428166 N 0 0 0
0:00:00.00 428422 N 0 0 0
0:00:00.00 428683 N 0 0 0
0:00:00.00 428935 N 0 0 0
0:00:00.00 429190 N 0 0 0
0:00:00.00 429442 N 0 0 0
0:00:00.00 429703 N 0 0 0
0:00:00.00 429961 N 0 0 0
0:00:00.00 430216 N 0 0 0
0:00:00.00 430465 N 0 0 0
0:00:00.00 430722 N 0 0 0
0:00:00.00 430981 N 0 0 0
0:00:00.00 431235 N 0 0 0
0:00:00.00 431489 N 0 0 0
0:00:00.00 431739 N 0 0 0
0:00:00.00 431996 N 0 0 0
0:00:00.00 432131 N 0 0 0
0:00:00.00 432506 N 0 0 0
0:00:00.00 432691 N 0 0 0
0:00:00.00 432997 N 0 0 0
0:00:00.00 433258 N 0 0 0
0:00:00.00 433525 N 0 0 0
0:00:00.00 433780 N 0 0 0
0:00:00.00 434029 N 0 0 0
0:00:00.00 434279 N 0 0 0
0:00:00.00 434529 N 0 0 0
0:00:00.00 434788 N 0 0 0
0:00:00.00 435047 N 0 0 0
0:00:00.00 435299 N 0 0 0
0:00:00.00 435550 N 0 0 0
0:00:00.00 435805 N 0 0 0
0:00:00.00 436070 N 0 0 0
0:00:00.00 436327 N 0 0 0
0:00:00.00 436581 N 0 0 0
0:00:00.00 436835 N 0 0 0
0:00:00.00 437096 N 0 0 0
0:00:00.00 437355 N 0 0 0
0:00:00.00 437618 N 0 0 0
0:00:00.00 437877 N 0 0 0
0:00:00.00 438134 N 0 0 0
0:00:00.00 438390 N 0 0 0
0:00:00.00 438655 N 0 0 0
0:00:00.00 438912 N 0 0 0
0:00:00.00 439166 N 0 0 0
0:00:00.00 439420 N 0 0 0
0:00:00.00 439679 N 0 0 0
0:00:00.00 439931 N 0 0 0
0:00:00.00 440188 N 0 0 0
0:00:00.00 440444 N 0 0 0
0:00:00.00 440698 N 0 0 0
0:00:00.00 440953 N 0 0 0
0:00:00.00 441214 N 0 0 0
0:00:00.00 441470 N 0 0 0
0:00:00.00 441725 N 0 0 0
0:00:00.00 441983 N 0 0 0
0:00:00.00 442244 N 0 0 0
0:00:00.00 442499 N 0 0 0
0:00:00.00 442759 N 0 0 0
0:00:00.00 443016 N 0 0 0
0:00:00.00 443270 N 0 0 0
0:00:00.00 443527 N 0 0 0
0:00:00.00 443794 N 0 0 0
0:00:00.00 444053 N 0 0 0
0:00:00.00 444308 N 0 0 0
0:00:00.00 444560 N 0 0 0
0:00:00.00 444820 N 0 0 0
0:00:00.00 445081 N 0 0 0
0:00:00.00 445343 N 0 0 0
0:00:00.00 445597 N 0 0 0
0:00:00.00 445851 N 0 0 0
0:00:00.00 446105 N 0 0 0
0:00:00.00 446371 N 0 0 0
0:00:00.00 446629 N 0 0 0
0:00:00.00 446882 N 0 0 0
0:00:00.00 447136 N 0 0 0
0:00:00.00 447394 N 0 0 0
0:00:00.00 447655 N 0 0 0
0:00:00.00 447919 N 0 0 0
0:00:00.00 448175 N 0 0 0
0:00:00.00 448432 N 0 0 0
0:00:00.00 448686 N 0 0 0
0:00:00.00 448956 N 0 0 0
0:00:00.00 449212 N 0 0 0
0:00:00.00 449469 N 0 0 0
0:00:00.00 449723 N 0 0 0
0:00:00.00 449978 N 0 0 0
0:00:00.00 450238 N 0 0 0
0:00:00.00 450504 N 0 0 0
0:00:00.00 450767 N 0 0 0
0:00:00.00 451031 N 0 0 0
0:00:00.00 451294 N 0 0 0
0:00:00.00 451562 N 0 0 0
0:00:00.00 451823 N 0 0 0
0:00:00.00 452084 N 0 0 0
0:00:00.00 452347 N 0 0 0
0:00:00.00 452610 N 0 0 0
0:00:00.00 452875 N 0 0 0
0:00:00.00 453137 N 0 0 0
0:00:00.00 453398 N 0 0 0
0:00:00.00 453658 N 0 0 0
0:00:00.00 453924 N 0 0 0
0:00:00.00 454196 N 0 0 0
0:00:00.00 454457 N 0 0 0
0:00:00.00 454712 N 0 0 0
0:00:00.00 454972 N 0 0 0
0:00:00.00 455238 N 0 0 0
0:00:00.00 455503 N 0 0 0
0:00:00.00 455771 N 0 0 0
0:00:00.00 456035 N 0 0 0
0:00:00.00 456291 N 0 0 0
0:00:00.00 456556 N 0 0 0
0:00:00.00 456822 N 0 0 0
0:00:00.00 457083 N 0 0 0
0:00:00.00 457337 N 0 0 0
0:00:00.00 457596 N 0 0 0
0:00:00.00 457853 N 0 0 0
0:00:00.00 458114 N 0 0 0
0:00:00.00 458381 N 0 0 0
0:00:00.00 458635 N 0 0 0
0:00:00.00 458894 N 0 0 0
0:00:00.00 459155 N 0 0 0
0:00:00.00 459425 N 0 0 0
0:00:00.00 459689 N 0 0 0
0:00:00.00 459954 N 0 0 0
0:00:00.00 460217 N 0 0 0
0:00:00.00 460478 N 0 0 0
0:00:00.00 460746 N 0 0 0
0:00:00.00 461012 N 0 0 0
0:00:00.00 461279 N 0 0 0
0:00:00.00 461536 N 0 0 0
0:00:00.00 461804 N 0 0 0
0:00:00.00 462073 N 0 0 0
0:00:00.00 462341 N 0 0 0
0:00:00.00 462600 N 0 0 0
0:00:00.00 462866 N 0 0 0
0:00:00.00 463126 N 0 0 0
0:00:00.00 463396 N 0 0 0
0:00:00.00 463662 N 0 0 0
0:00:00.00 463927 N 0 0 0
0:00:00.00 464191 N 0 0 0
0:00:00.00 464461 N 0 0 0
0:00:00.00 464724 N 0 0 0
0:00:00.00 464983 N 0 0 0
0:00:00.00 465244 N 0 0 0
0:00:00.00 465505 N 0 0 0
0:00:00.00 465763 N 0 0 0
0:00:00.00 466024 N 0 0 0
0:00:00.00 466281 N 0 0 0
0:00:00.00 466540 N 0 0 0
0:00:00.00 466799 N 0 0 0
0:00:00.00 467066 N 0 0 0
0:00:00.00 467325 N 0 0 0
0:00:00.00 467584 N 0 0 0
0:00:00.00 467849 N 0 0 0
0:00:00.00 468115 N 0 0 0
0:00:00.00 468380 N 0 0 0
0:00:00.00 468648 N 0 0 0
0:00:00.00 468909 N 0 0 0
0:00:00.00 469172 N 0 0 0
0:00:00.00 469433 N 0 0 0
0:00:00.00 469699 N 0 0 0
0:00:00.00 469958 N 0 0 0
0:00:00.00 470214 N 0 0 0
0:00:00.00 470470 N 0 0 0
0:00:00.00 470732 N 0 0 0
0:00:00.00 470992 N 0 0 0
0:00:00.00 471256 N 0 0 0
0:00:00.00 471515 N 0 0 0
0:00:00.00 471771 N 0 0 0
0:00:00.00 472034 N 0 0 0
0:00:00.00 472304 N 0 0 0
0:00:00.00 472561 N 0 0 0
0:00:00.00 472817 N 0 0 0
0:00:00.00 473069 N 0 0 0
0:00:00.00 473332 N 0 0 0
0:00:00.00 473591 N 0 0 0
0:00:00.00 473852 N 0 0 0
0:00:00.00 474109 N 0 0 0
0:00:00.00 474363 N 0 0 0
0:00:00.00 474617 N 0 0 0
0:00:00.00 474883 N 0 0 0
0:00:00.00 475135 N 0 0 0
0:00:00.00 475393 N 0 0 0
0:00:00.00 475646 N 0 0 0
0:00:00.00 475907 N 0 0 0
0:00:00.00 476165 N 0 0 0
0:00:00.00 476426 N 0 0 0
0:00:00.00 476685 N 0 0 0
0:00:00.00 476939 N 0 0 0
0:00:00.00 477196 N 0 0 0
0:00:00.00 477457 N 0 0 0
0:00:00.00 477716 N 0 0 0
0:00:00.00 477970 N 0 0 0
0:00:00.00 478224 N 0 0 0
0:00:00.00 478483 N 0 0 0
0:00:00.00 478735 N 0 0 0
0:00:00.00 478858 N 0 0 0
0:00:00.00 479243 N 0 0 0
0:00:00.00 479498 N 0 0 0
0:00:00.00 479752 N 0 0 0
0:00:00.00 480015 N 0 0 0
0:00:00.00 480272 N 0 0 0
0:00:00.00 480530 N 0 0 0
0:00:00.00 480784 N 0 0 0
0:00:00.00 481046 N 0 0 0
0:00:00.00 481300 N 0 0 0
0:00:00.00 481561 N 0 0 0
0:00:00.00 481819 N 0 0 0
0:00:00.00 482074 N 0 0 0
0:00:00.00 482330 N 0 0 0
0:00:00.00 482596 N 0 0 0
0:00:00.00 482854 N 0 0 0
0:00:00.00 483107 N 0 0 0
0:00:00.00 483361 N 0 0 0
0:00:00.00 483502 N 0 0 0
0:00:00.00 483869 N 0 0 0
0:00:00.00 484132 N 0 0 0
0:00:00.00 484387 N 0 0 0
0:00:00.00 484643 N 0 0 0
0:00:00.00 484897 N 0 0 0
0:00:00.00 485159 N 0 0 0
0:00:00.00 485419 N 0 0 0
0:00:00.00 485672 N 0 0 0
0:00:00.00 485926 N 0 0 0
0:00:00.00 486180 N 0 0 0
0:00:00.00 486434 N 0 0 0
0:00:00.00 486693 N 0 0 0
0:00:00.00 486947 N 0 0 0
0:00:00.00 487204 N 0 0 0
0:00:00.00 487453 N 0 0 0
0:00:00.00 487717 N 0 0 0
0:00:00.00 487975 N 0 0 0
0:00:00.00 488236 N 0 0 0
0:00:00.00 488493 N 0 0 0
0:00:00.00 488756 N 0 0 0
0:00:00.00 489013 N 0 0 0
0:00:00.00 489281 N 0 0 0
0:00:00.00 489544 N 0 0 0
0:00:00.00 489805 N 0 0 0
0:00:00.00 490066 N 0 0 0
0:00:00.00 490333 N 0 0 0
0:00:00.00 490599 N 0 0 0
0:00:00.00 490858 N 0 0 0
0:00:00.00 491116 N 0 0 0
0:00:00.00 491373 N 0 0 0
0:00:00.00 491636 N 0 0 0
0:00:00.00 491897 N 0 0 0
0:00:00.00 492158 N 0 0 0
0:00:00.00 492277 N 0 0 0
0:00:00.00 492667 N 0 0 0
0:00:00.00 492935 N 0 0 0
0:00:00.00 493193 N 0 0 0
0:00:00.00 493448 N 0 0 0
0:00:00.00 493702 N 0 0 0
0:00:00.00 493965 N 0 0 0
0:00:00.00 494222 N 0 0 0
0:00:00.00 494487 N 0 0 0
0:00:00.00 494744 N 0 0 0
0:00:00.00 495002 N 0 0 0
0:00:00.00 495257 N 0 0 0
0:00:00.00 495527 N 0 0 0
0:00:00.00 495785 N 0 0 0
0:00:00.00 496040 N 0 0 0
0:00:00.00 496300 N 0 0 0
0:00:00.00 496559 N 0 0 0
0:00:00.00 496818 N 0 0 0
0:00:00.00 497083 N 0 0 0
0:00:00.00 497342 N 0 0 0
0:00:00.00 497599 N 0 0 0
0:00:00.00 497855 N 0 0 0
0:00:00.00 498123 N 0 0 0
0:00:00.00 498384 N 0 0 0
0:00:00.00 498643 N 0 0 0
0:00:00.00 498899 N 0 0 0
0:00:00.00 499158 N 0 0 0
0:00:00.00 499417 N 0 0 0
0:00:00.00 499682 N 0 0 0
0:00:00.00 499937 N 0 0 0
0:00:00.00 500195 N 0 0 0
0:00:00.00 500449 N 0 0 0
0:00:00.00 500715 N 0 0 0
0:00:00.00 500971 N 0 0 0
0:00:00.00 501232 N 0 0 0
0:00:00.00 501485 N 0 0 0
0:00:00.00 501745 N 0 0 0
0:00:00.00 502006 N 0 0 0
0:00:00.00 502268 N 0 0 0
0:00:00.00 502528 N 0 0 0
0:00:00.00 502783 N 0 0 0
0:00:00.00 503042 N 0 0 0
0:00:00.00 503311 N 0 0 0
0:00:00.00 503570 N 0 0 0
0:00:00.00 503829 N 0 0 0
0:00:00.00 504092 N 0 0 0
0:00:00.00 504355 N 0 0 0
0:00:00.00 504623 N 0 0 0
0:00:00.00 504891 N 0 0 0
0:00:00.00 505156 N 0 0 0
0:00:00.00 505422 N 0 0 0
0:00:00.00 505692 N 0 0 0
0:00:00.00 505964 N 0 0 0
0:00:00.00 506232 N 0 0 0
0:00:00.00 506495 N 0 0 0
0:00:00.00 506765 N 0 0 0
0:00:00.00 507033 N 0 0 0
0:00:00.00 507301 N 0 0 0
0:00:00.00 507577 N 0 0 0
0:00:00.00 507845 N 0 0 0
0:00:00.00 508109 N 0 0 0
0:00:00.00 508379 N 0 0 0
0:00:00.00 508651 N 0 0 0
0:00:00.00 508918 N 0 0 0
0:00:00.00 509175 N 0 0 0
0:00:00.00 509443 N 0 0 0
0:00:00.00 509706 N 0 0 0
0:00:00.00 509972 N 0 0 0
0:00:00.00 510241 N 0 0 0
0:00:00.00 510505 N 0 0 0
0:00:00.00 510766 N 0 0 0
0:00:00.00 511036 N 0 0 0
0:00:00.00 511304 N 0 0 0
0:00:00.00 511565 N 0 0 0
0:00:00.00 511825 N 0 0 0
0:00:00.00 512089 N 0 0 0
0:00:00.00 512348 N 0 0 0
0:00:00.00 512611 N 0 0 0
0:00:00.00 512870 N 0 0 0
0:00:00.00 513131 N 0 0 0
0:00:00.00 513385 N 0 0 0
0:00:00.00 513648 N 0 0 0
0:00:00.00 513905 N 0 0 0
0:00:00.00 514166 N 0 0 0
0:00:00.00 514420 N 0 0 0
0:00:00.00 514588 N 0 0 0
0:00:00.00 514935 N 0 0 0
0:00:00.00 515070 N 0 0 0
0:00:00.00 515459 N 0 0 0
0:00:00.00 515720 N 0 0 0
0:00:00.00 515974 N 0 0 0
0:00:00.00 516236 N 0 0 0
0:00:00.00 516496 N 0 0 0
0:00:00.00 516751 N 0 0 0
0:00:00.00 517001 N 0 0 0
0:00:00.00 517259 N 0 0 0
0:00:00.00 517513 N 0 0 0
0:00:00.00 517772 N 0 0 0
0:00:00.00 518033 N 0 0 0
0:00:00.00 518290 N 0 0 0
0:00:00.00 518549 N 0 0 0
0:00:00.00 518818 N 0 0 0
0:00:00.00 519079 N 0 0 0
0:00:00.00 519343 N 0 0 0
0:00:00.00 519608 N 0 0 0
0:00:00.00 519871 N 0 0 0
0:00:00.00 520137 N 0 0 0
0:00:00.00 520409 N 0 0 0
0:00:00.00 520672 N 0 0 0
0:00:00.00 520933 N 0 0 0
0:00:00.00 521194 N 0 0 0
0:00:00.00 521464 N 0 0 0
0:00:00.00 521728 N 0 0 0
0:00:00.00 521980 N 0 0 0
0:00:00.00 522241 N 0 0 0
0:00:00.00 522502 N 0 0 0
0:00:00.00 522767 N 0 0 0
0:00:00.00 523031 N 0 0 0
0:00:00.00 523292 N 0 0 0
0:00:00.00 523552 N 0 0 0
0:00:00.00 523818 N 0 0 0
0:00:00.00 524093 N 0 0 0
0:00:00.00 524221 N 0 0 0
0:00:00.00 524623 N 0 0 0
0:00:00.00 524887 N 0 0 0
0:00:00.00 525154 N 0 0 0
0:00:00.00 525416 N 0 0 0
0:00:00.00 525694 N 0 0 0
0:00:00.00 525825 N 0 0 0
0:00:00.00 526163 N 0 0 0
0:00:00.00 526369 N 0 0 0
0:00:00.00 526491 N 0 0 0
0:00:00.00 526603 N 0 0 0
0:00:00.00 526698 N 0 0 0
0:00:00.00 526797 N 0 0 0
0:00:00.00 526901 N 0 0 0
0:00:00.00 527017 N 0 0 0
0:00:00.00 527117 N 0 0 0
0:00:00.00 527225 N 0 0 0
0:00:00.00 527321 N 0 0 0
0:00:00.00 527504 N 0 0 0
0:00:00.00 527746 N 0 0 0
0:00:00.00 527983 N 0 0 0
0:00:00.00 528239 N 0 0 0
0:00:00.00 528476 N 0 0 0
0:00:00.00 528725 N 0 0 0
0:00:00.00 528955 N 0 0 0
0:00:00.00 529231 N 0 0 0
0:00:00.00 529515 N 0 0 0
0:00:00.00 529772 N 0 0 0
0:00:00.00 530053 N 0 0 0
0:00:00.00 530314 N 0 0 0
0:00:00.00 530498 N 0 0 0
0:00:00.00 530602 N 0 0 0
0:00:00.00 530899 N 0 0 0
0:00:00.00 531088 N 0 0 0
0:00:00.00 531392 N 0 0 0
0:00:00.00 531621 N 0 0 0
0:00:00.00 531812 N 0 0 0
0:00:00.00 531925 N 0 0 0
0:00:00.00 532186 N 0 0 0
0:00:00.00 532445 N 0 0 0
0:00:00.00 532708 N 0 0 0
0:00:00.00 532975 N 0 0 0
0:00:00.00 533241 N 0 0 0
0:00:00.00 533506 N 0 0 0
0:00:00.00 533774 N 0 0 0
0:00:00.00 534035 N 0 0 0
0:00:00.00 534157 N 0 0 0
0:00:00.00 534571 N 0 0 0
0:00:00.00 534836 N 0 0 0
0:00:00.00 535093 N 0 0 0
0:00:00.00 535358 N 0 0 0
0:00:00.00 535619 N 0 0 0
0:00:00.00 535885 N 0 0 0
0:00:00.00 536144 N 0 0 0
0:00:00.00 536404 N 0 0 0
0:00:00.00 536663 N 0 0 0
0:00:00.00 536935 N 0 0 0
0:00:00.00 537199 N 0 0 0
0:00:00.00 537455 N 0 0 0
0:00:00.00 537712 N 0 0 0
0:00:00.00 537977 N 0 0 0
0:00:00.00 538240 N 0 0 0
0:00:00.00 538501 N 0 0 0
0:00:00.00 538754 N 0 0 0
0:00:00.00 539010 N 0 0 0
0:00:00.00 539267 N 0 0 0
0:00:00.00 539537 N 0 0 0
0:00:00.00 539793 N 0 0 0
0:00:00.00 540049 N 0 0 0
0:00:00.00 540310 N 0 0 0
0:00:00.00 540574 N 0 0 0
0:00:00.00 540837 N 0 0 0
0:00:00.00 541107 N 0 0 0
0:00:00.00 541370 N 0 0 0
0:00:00.00 541636 N 0 0 0
0:00:00.00 541901 N 0 0 0
0:00:00.00 542176 N 0 0 0
0:00:00.00 542443 N 0 0 0
0:00:00.00 542698 N 0 0 0
0:00:00.00 542961 N 0 0 0
0:00:00.00 543224 N 0 0 0
0:00:00.00 543487 N 0 0 0
0:00:00.00 543753 N 0 0 0
0:00:00.00 544014 N 0 0 0
0:00:00.00 544268 N 0 0 0
0:00:00.00 544534 N 0 0 0
0:00:00.00 544806 N 0 0 0
0:00:00.00 545071 N 0 0 0
0:00:00.00 545324 N 0 0 0
0:00:00.00 545587 N 0 0 0
0:00:00.00 545854 N 0 0 0
0:00:00.00 546118 N 0 0 0
0:00:00.00 546388 N 0 0 0
0:00:00.00 546646 N 0 0 0
0:00:00.00 546905 N 0 0 0
0:00:00.00 547171 N 0 0 0
0:00:00.00 547439 N 0 0 0
0:00:00.00 547702 N 0 0 0
0:00:00.00 547958 N 0 0 0
0:00:00.00 548222 N 0 0 0
0:00:00.00 548485 N 0 0 0
0:00:00.00 548755 N 0 0 0
0:00:00.00 549025 N 0 0 0
0:00:00.00 549293 N 0 0 0
0:00:00.00 549553 N 0 0 0
0:00:00.00 549828 N 0 0 0
0:00:00.00 550102 N 0 0 0
0:00:00.00 550370 N 0 0 0
0:00:00.00 550636 N 0 0 0
0:00:00.00 550906 N 0 0 0
0:00:00.00 551173 N 0 0 0
0:00:00.00 551446 N 0 0 0
0:00:00.00 551716 N 0 0 0
0:00:00.00 551983 N 0 0 0
0:00:00.00 552249 N 0 0 0
0:00:00.00 552528 N 0 0 0
0:00:00.00 552798 N 0 0 0
0:00:00.00 553063 N 0 0 0
0:00:00.00 553333 N 0 0 0
0:00:00.00 553599 N 0 0 0
0:00:00.00 553865 N 0 0 0
0:00:00.00 554143 N 0 0 0
0:00:00.00 554411 N 0 0 0
0:00:00.00 554675 N 0 0 0
0:00:00.00 554945 N 0 0 0
0:00:00.00 555212 N 0 0 0
0:00:00.00 555476 N 0 0 0
0:00:00.00 555734 N 0 0 0
0:00:00.00 555995 N 0 0 0
0:00:00.00 556252 N 0 0 0
0:00:00.00 556515 N 0 0 0
0:00:00.00 556776 N 0 0 0
0:00:00.00 557033 N 0 0 0
0:00:00.00 557294 N 0 0 0
0:00:00.00 557563 N 0 0 0
0:00:00.00 557827 N 0 0 0
0:00:00.00 558092 N 0 0 0
0:00:00.00 558356 N 0 0 0
0:00:00.00 558626 N 0 0 0
0:00:00.00 558893 N 0 0 0
0:00:00.00 559163 N 0 0 0
0:00:00.00 559429 N 0 0 0
0:00:00.00 559694 N 0 0 0
0:00:00.00 559958 N 0 0 0
0:00:00.00 560232 N 0 0 0
0:00:00.00 560495 N 0 0 0
0:00:00.00 560756 N 0 0 0
0:00:00.00 561013 N 0 0 0
0:00:00.00 561276 N 0 0 0
0:00:00.00 561539 N 0 0 0
0:00:00.00 561807 N 0 0 0
0:00:00.00 562068 N 0 0 0
0:00:00.00 562327 N 0 0 0
0:00:00.00 562590 N 0 0 0
0:00:00.00 562862 N 0 0 0
0:00:00.00 563126 N 0 0 0
0:00:00.00 563382 N 0 0 0
0:00:00.00 563645 N 0 0 0
0:00:00.00 563908 N 0 0 0
0:00:00.00 564174 N 0 0 0
0:00:00.00 564442 N 0 0 0
0:00:00.00 564705 N 0 0 0
0:00:00.00 564961 N 0 0 0
0:00:00.00 565231 N 0 0 0
0:00:00.00 565499 N 0 0 0
0:00:00.00 565763 N 0 0 0
0:00:00.00 566021 N 0 0 0
0:00:00.00 566287 N 0 0 0
0:00:00.00 566554 N 0 0 0
0:00:00.00 566822 N 0 0 0
0:00:00.00 567090 N 0 0 0
0:00:00.00 567360 N 0 0 0
0:00:00.00 567623 N 0 0 0
0:00:00.00 567896 N 0 0 0
0:00:00.00 568165 N 0 0 0
0:00:00.00 568435 N 0 0 0
0:00:00.00 568699 N 0 0 0
0:00:00.00 568967 N 0 0 0
0:00:00.00 569234 N 0 0 0
0:00:00.00 569504 N 0 0 0
0:00:00.00 569767 N 0 0 0
0:00:00.00 570031 N 0 0 0
0:00:00.00 570292 N 0 0 0
0:00:00.00 570564 N 0 0 0
0:00:00.00 570829 N 0 0 0
0:00:00.00 571088 N 0 0 0
0:00:00.00 571349 N 0 0 0
0:00:00.00 571613 N 0 0 0
0:00:00.00 571882 N 0 0 0
0:00:00.00 572150 N 0 0 0
0:00:00.00 572411 N 0 0 0
0:00:00.00 572670 N 0 0 0
0:00:00.00 572938 N 0 0 0
0:00:00.00 573212 N 0 0 0
0:00:00.00 573473 N 0 0 0
0:00:00.00 573734 N 0 0 0
0:00:00.00 573993 N 0 0 0
0:00:00.00 574259 N 0 0 0
0:00:00.00 574524 N 0 0 0
0:00:00.00 574796 N 0 0 0
0:00:00.00 575059 N 0 0 0
0:00:00.00 575318 N 0 0 0
0:00:00.00 575588 N 0 0 0
0:00:00.00 575858 N 0 0 0
0:00:00.00 576128 N 0 0 0
0:00:00.00 576389 N 0 0 0
0:00:00.00 576657 N 0 0 0
0:00:00.00 576918 N 0 0 0
0:00:00.00 577188 N 0 0 0
0:00:00.00 577458 N 0 0 0
0:00:00.00 577719 N 0 0 0
0:00:00.00 577980 N 0 0 0
0:00:00.00 578248 N 0 0 0
0:00:00.00 578513 N 0 0 0
0:00:00.00 578774 N 0 0 0
0:00:00.00 579035 N 0 0 0
0:00:00.00 579298 N 0 0 0
0:00:00.00 579560 N 0 0 0
0:00:00.00 579825 N 0 0 0
0:00:00.00 580090 N 0 0 0
0:00:00.00 580354 N 0 0 0
0:00:00.00 580615 N 0 0 0
0:00:00.00 580885 N 0 0 0
0:00:00.00 581148 N 0 0 0
0:00:00.00 581409 N 0 0 0
0:00:00.00 581665 N 0 0 0
0:00:00.00 581933 N 0 0 0
0:00:00.00 582190 N 0 0 0
0:00:00.00 582455 N 0 0 0
0:00:00.00 582712 N 0 0 0
0:00:00.00 582975 N 0 0 0
0:00:00.00 583232 N 0 0 0
0:00:00.00 583501 N 0 0 0
0:00:00.00 583763 N 0 0 0
0:00:00.00 584019 N 0 0 0
0:00:00.00 584280 N 0 0 0
0:00:00.00 584545 N 0 0 0
0:00:00.00 584807 N 0 0 0
0:00:00.00 585074 N 0 0 0
0:00:00.00 585333 N 0 0 0
0:00:00.00 585596 N 0 0 0
0:00:00.00 585855 N 0 0 0
0:00:00.00 586129 N 0 0 0
0:00:00.00 586391 N 0 0 0
0:00:00.00 586651 N 0 0 0
0:00:00.00 586912 N 0 0 0
0:00:00.00 587174 N 0 0 0
0:00:00.00 587437 N 0 0 0
0:00:00.00 587709 N 0 0 0
0:00:00.00 587972 N 0 0 0
0:00:00.00 588233 N 0 0 0
0:00:00.00 588501 N 0 0 0
0:00:00.00 588775 N 0 0 0
0:00:00.00 589046 N 0 0 0
0:00:00.00 589307 N 0 0 0
0:00:00.00 589574 N 0 0 0
0:00:00.00 589837 N 0 0 0
0:00:00.00 590103 N 0 0 0
0:00:00.00 590371 N 0 0 0
0:00:00.00 590634 N 0 0 0
0:00:00.00 590888 N 0 0 0
0:00:00.00 591158 N 0 0 0
0:00:00.00 591421 N 0 0 0
0:00:00.00 591683 N 0 0 0
0:00:00.00 591941 N 0 0 0
0:00:00.00 592204 N 0 0 0
0:00:00.00 592468 N 0 0 0
0:00:00.00 592735 N 0 0 0
0:00:00.00 593001 N 0 0 0
0:00:00.00 593267 N 0 0 0
0:00:00.00 593534 N 0 0 0
0:00:00.00 593807 N 0 0 0
0:00:00.00 594076 N 0 0 0
0:00:00.00 594340 N 0 0 0
0:00:00.00 594495 N 0 0 0
0:00:00.00 594871 N 0 0 0
0:00:00.00 595138 N 0 0 0
0:00:00.00 595408 N 0 0 0
0:00:00.00 595667 N 0 0 0
0:00:00.00 595926 N 0 0 0
0:00:00.00 596192 N 0 0 0
0:00:00.00 596466 N 0 0 0
0:00:00.00 596731 N 0 0 0
0:00:00.00 596992 N 0 0 0
0:00:00.00 597256 N 0 0 0
0:00:00.00 597523 N 0 0 0
0:00:00.00 597796 N 0 0 0
0:00:00.00 598066 N 0 0 0
0:00:00.00 598333 N 0 0 0
0:00:00.00 598592 N 0 0 0
0:00:00.00 598864 N 0 0 0
0:00:00.00 599134 N 0 0 0
0:00:00.00 599395 N 0 0 0
0:00:00.00 599654 N 0 0 0
0:00:00.00 599915 N 0 0 0
0:00:00.00 600179 N 0 0 0
0:00:00.00 600448 N 0 0 0
0:00:00.00 600712 N 0 0 0
0:00:00.00 600975 N 0 0 0
0:00:00.00 601240 N 0 0 0
0:00:00.00 601515 N 0 0 0
0:00:00.00 601781 N 0 0 0
0:00:00.00 602050 N 0 0 0
0:00:00.00 602312 N 0 0 0
0:00:00.00 602582 N 0 0 0
0:00:00.00 602852 N 0 0 0
0:00:00.00 603126 N 0 0 0
0:00:00.00 603389 N 0 0 0
0:00:00.00 603650 N 0 0 0
0:00:00.00 603914 N 0 0 0
0:00:00.00 604186 N 0 0 0
0:00:00.00 604453 N 0 0 0
0:00:00.00 604710 N 0 0 0
0:00:00.00 604978 N 0 0 0
0:00:00.00 605241 N 0 0 0
0:00:00.00 605509 N 0 0 0
0:00:00.00 605635 N 0 0 0
0:00:00.00 606040 N 0 0 0
0:00:00.00 606299 N 0 0 0
0:00:00.00 606443 N 0 0 0
0:00:00.00 606830 N 0 0 0
0:00:00.00 607090 N 0 0 0
0:00:00.00 607347 N 0 0 0
0:00:00.00 607603 N 0 0 0
0:00:00.00 607860 N 0 0 0
0:00:00.00 608123 N 0 0 0
0:00:00.00 608287 N 0 0 0
0:00:00.00 608643 N 0 0 0
0:00:00.00 608900 N 0 0 0
0:00:00.00 609163 N 0 0 0
0:00:00.00 609430 N 0 0 0
0:00:00.00 609694 N 0 0 0
0:00:00.00 609950 N 0 0 0
0:00:00.00 610209 N 0 0 0
0:00:00.00 610466 N 0 0 0
0:00:00.00 610736 N 0 0 0
0:00:00.00 610999 N 0 0 0
0:00:00.00 611260 N 0 0 0
0:00:00.00 611518 N 0 0 0
0:00:00.00 611784 N 0 0 0
0:00:00.00 612049 N 0 0 0
0:00:00.00 612311 N 0 0 0
0:00:00.00 612572 N 0 0 0
0:00:00.00 612830 N 0 0 0
0:00:00.00 613091 N 0 0 0
0:00:00.00 613354 N 0 0 0
0:00:00.00 613620 N 0 0 0
0:00:00.00 613885 N 0 0 0
0:00:00.00 614138 N 0 0 0
0:00:00.00 614407 N 0 0 0
0:00:00.00 614671 N 0 0 0
0:00:00.00 614938 N 0 0 0
0:00:00.00 615197 N 0 0 0
0:00:00.00 615456 N 0 0 0
0:00:00.00 615713 N 0 0 0
0:00:00.00 615982 N 0 0 0
0:00:00.00 616111 N 0 0 0
0:00:00.00 616507 N 0 0 0
0:00:00.00 616763 N 0 0 0
0:00:00.00 617029 N 0 0 0
0:00:00.00 617290 N 0 0 0
0:00:00.00 617548 N 0 0 0
0:00:00.00 617805 N 0 0 0
0:00:00.00 618068 N 0 0 0
0:00:00.00 618331 N 0 0 0
0:00:00.00 618595 N 0 0 0
0:00:00.00 618860 N 0 0 0
0:00:00.00 619126 N 0 0 0
0:00:00.00 619391 N 0 0 0
0:00:00.00 619661 N 0 0 0
0:00:00.00 619927 N 0 0 0
0:00:00.00 620188 N 0 0 0
0:00:00.00 620453 N 0 0 0
0:00:00.00 620723 N 0 0 0
0:00:00.00 620987 N 0 0 0
0:00:00.00 621252 N 0 0 0
0:00:00.00 621513 N 0 0 0
0:00:00.00 621779 N 0 0 0
0:00:00.00 622044 N 0 0 0
0:00:00.00 622316 N 0 0 0
0:00:00.00 622582 N 0 0 0
0:00:00.00 622845 N 0 0 0
0:00:00.00 623111 N 0 0 0
0:00:00.00 623378 N 0 0 0
0:00:00.00 623650 N 0 0 0
0:00:00.00 623921 N 0 0 0
0:00:00.00 624190 N 0 0 0
0:00:00.00 624449 N 0 0 0
0:00:00.00 624721 N 0 0 0
0:00:00.00 624992 N 0 0 0
0:00:00.00 625259 N 0 0 0
0:00:00.00 625518 N 0 0 0
0:00:00.00 625783 N 0 0 0
0:00:00.00 626045 N 0 0 0
0:00:00.00 626312 N 0 0 0
0:00:00.00 626576 N 0 0 0
0:00:00.00 626839 N 0 0 0
0:00:00.00 627098 N 0 0 0
0:00:00.00 627372 N 0 0 0
0:00:00.00 627631 N 0 0 0
0:00:00.00 627894 N 0 0 0
0:00:00.00 628153 N 0 0 0
0:00:00.00 628421 N 0 0 0
0:00:00.00 628688 N 0 0 0
0:00:00.00 628954 N 0 0 0
0:00:00.00 629215 N 0 0 0
0:00:00.00 629476 N 0 0 0
0:00:00.00 629743 N 0 0 0
0:00:00.00 630014 N 0 0 0
0:00:00.00 630274 N 0 0 0
0:00:00.00 630531 N 0 0 0
0:00:00.00 630794 N 0 0 0
0:00:00.00 631058 N 0 0 0
0:00:00.00 631321 N 0 0 0
0:00:00.00 631589 N 0 0 0
0:00:00.00 631850 N 0 0 0
0:00:00.00 632111 N 0 0 0
0:00:00.00 632378 N 0 0 0
0:00:00.00 632646 N 0 0 0
0:00:00.00 632911 N 0 0 0
0:00:00.00 633168 N 0 0 0
0:00:00.00 633433 N 0 0 0
0:00:00.00 633694 N 0 0 0
0:00:00.00 633958 N 0 0 0
0:00:00.00 634225 N 0 0 0
0:00:00.00 634480 N 0 0 0
0:00:00.00 634741 N 0 0 0
0:00:00.00 635006 N 0 0 0
0:00:00.00 635274 N 0 0 0
0:00:00.00 635533 N 0 0 0
0:00:00.00 635787 N 0 0 0
0:00:00.00 636052 N 0 0 0
0:00:00.00 636314 N 0 0 0
0:00:00.00 636584 N 0 0 0
0:00:00.00 636849 N 0 0 0
0:00:00.00 637115 N 0 0 0
0:00:00.00 637378 N 0 0 0
0:00:00.00 637650 N 0 0 0
0:00:00.00 637913 N 0 0 0
0:00:00.00 638177 N 0 0 0
0:00:00.00 638433 N 0 0 0
0:00:00.00 638699 N 0 0 0
0:00:00.00 638960 N 0 0 0
0:00:00.00 639223 N 0 0 0
0:00:00.00 639484 N 0 0 0
0:00:00.00 639743 N 0 0 0
0:00:00.00 640003 N 0 0 0
0:00:00.00 640273 N 0 0 0
0:00:00.00 640541 N 0 0 0
0:00:00.00 640802 N 0 0 0
0:00:00.00 641068 N 0 0 0
0:00:00.00 641335 N 0 0 0
0:00:00.00 641608 N 0 0 0
0:00:00.00 641878 N 0 0 0
0:00:00.00 642145 N 0 0 0
0:00:00.00 642411 N 0 0 0
0:00:00.00 642677 N 0 0 0
0:00:00.00 642953 N 0 0 0
0:00:00.00 643217 N 0 0 0
0:00:00.00 643477 N 0 0 0
0:00:00.00 643739 N 0 0 0
0:00:00.00 644002 N 0 0 0
0:00:00.00 644274 N 0 0 0
0:00:00.00 644540 N 0 0 0
0:00:00.00 644807 N 0 0 0
0:00:00.00 645068 N 0 0 0
0:00:00.00 645345 N 0 0 0
0:00:00.00 645617 N 0 0 0
0:00:00.00 645881 N 0 0 0
0:00:00.00 646146 N 0 0 0
0:00:00.00 646414 N 0 0 0
0:00:00.00 646679 N 0 0 0
0:00:00.00 646947 N 0 0 0
0:00:00.00 647212 N 0 0 0
0:00:00.00 647474 N 0 0 0
0:00:00.00 647737 N 0 0 0
0:00:00.00 648009 N 0 0 0
0:00:00.00 648274 N 0 0 0
0:00:00.00 648535 N 0 0 0
0:00:00.00 648794 N 0 0 0
0:00:00.00 649062 N 0 0 0
0:00:00.00 649328 N 0 0 0
0:00:00.00 649598 N 0 0 0
0:00:00.00 649858 N 0 0 0
