0:00:00.00 9 N 0 0 0
0:00:00.00 86 N 0 0 0
0:00:00.00 302 N 0 0 0
0:00:00.00 839 N 0 0 0
0:00:00.00 1069 N 0 0 0
0:00:00.00 1593 N 0 0 0
0:00:00.00 1813 N 0 0 0
0:00:00.00 2347 N 0 0 0
0:00:00.00 2583 N 0 0 0
0:00:00.00 3116 N 0 0 0
0:00:00.00 3348 N 0 0 0
0:00:00.00 3861 N 0 0 0
0:00:00.00 4082 N 0 0 0
0:00:00.00 4644 N 0 0 0
0:00:00.00 4880 N 0 0 0
0:00:00.00 5413 N 0 0 0
0:00:00.00 5638 N 0 0 0
0:00:00.00 6163 N 0 0 0
0:00:00.00 6397 N 0 0 0
0:00:00.00 6943 N 0 0 0
0:00:00.00 7182 N 0 0 0
0:00:00.00 7702 N 0 0 0
0:00:00.00 7927 N 0 0 0
0:00:00.00 8442 N 0 0 0
0:00:00.00 8710 N 0 0 0
0:00:00.00 9218 N 0 0 0
0:00:00.00 9452 N 0 0 0
0:00:00.00 9954 N 0 0 0
0:00:00.00 10186 N 0 0 0
0:00:00.00 10692 N 0 0 0
0:00:00.00 10930 N 0 0 0
0:00:00.00 11453 N 0 0 0
0:00:00.00 11691 N 0 0 0
0:00:00.00 12199 N 0 0 0
0:00:00.00 12425 N 0 0 0
0:00:00.00 12942 N 0 0 0
0:00:00.00 13192 N 0 0 0
0:00:00.00 13352 N 0 0 0
0:00:00.00 13707 N 0 0 0
0:00:00.00 13972 N 0 0 0
0:00:00.00 14128 N 0 0 0
0:00:00.00 14270 N 0 0 0
0:00:00.00 14513 N 0 0 0
0:00:00.00 14751 N 0 0 0
0:00:00.00 14915 N 0 0 0
0:00:00.00 15008 N 0 0 0
0:00:00.00 15142 N 0 0 0
0:00:00.00 15241 N 0 0 0
0:00:00.00 15370 N 0 0 0
0:00:00.00 15509 N 0 0 0
0:00:00.00 15628 N 0 0 0
0:00:00.00 15775 N 0 0 0
0:00:00.00 15890 N 0 0 0
0:00:00.00 15988 N 0 0 0
0:00:00.00 16081 N 0 0 0
0:00:00.00 16155 N 0 0 0
0:00:00.00 16227 N 0 0 0
0:00:00.00 16303 N 0 0 0
0:00:00.00 16376 N 0 0 0
0:00:00.00 16488 N 0 0 0
0:00:00.00 16600 N 0 0 0
0:00:00.00 16690 N 0 0 0
0:00:00.00 16819 N 0 0 0
0:00:00.00 16925 N 0 0 0
0:00:00.00 17046 N 0 0 0
0:00:00.00 17215 N 0 0 0
0:00:00.00 17419 N 0 0 0
0:00:00.00 17543 N 0 0 0
0:00:00.00 17689 N 0 0 0
0:00:00.00 17809 N 0 0 0
0:00:00.00 17881 N 0 0 0
0:00:00.00 17968 N 0 0 0
0:00:00.00 18085 N 0 0 0
0:00:00.00 18254 N 0 0 0
0:00:00.00 18828 N 0 0 0
0:00:00.00 19091 N 0 0 0
0:00:00.00 19582 N 0 0 0
0:00:00.00 19841 N 0 0 0
0:00:00.00 20092 N 0 0 0
0:00:00.00 20520 N 0 0 0
0:00:00.00 20630 N 0 0 0
0:00:00.00 20725 N 0 0 0
0:00:00.00 20860 N 0 0 0
0:00:00.00 20943 N 0 0 0
0:00:00.00 21053 N 0 0 0
0:00:00.00 21173 N 0 0 0
0:00:00.00 21289 N 0 0 0
0:00:00.00 21431 N 0 0 0
0:00:00.00 21593 N 0 0 0
0:00:00.00 22122 N 0 0 0
0:00:00.00 22372 N 0 0 0
0:00:00.00 22523 N 0 0 0
0:00:00.00 22669 N 0 0 0
0:00:00.00 22871 N 0 0 0
0:00:00.00 23164 N 0 0 0
0:00:00.00 23492 N 0 0 0
0:00:00.00 23753 N 0 0 0
0:00:00.00 24183 N 0 0 0
0:00:00.00 24525 N 0 0 0
0:00:00.00 24856 N 0 0 0
0:00:00.00 25175 N 0 0 0
0:00:00.00 25486 N 0 0 0
0:00:00.00 25765 N 0 0 0
0:00:00.00 26152 N 0 0 0
0:00:00.00 26406 N 0 0 0
0:00:00.00 26815 N 0 0 0
0:00:00.00 27059 N 0 0 0
0:00:00.00 27464 N 0 0 0
0:00:00.00 27774 N 0 0 0
0:00:00.00 28048 N 0 0 0
0:00:00.00 28186 N 0 0 0
0:00:00.00 28721 N 0 0 0
0:00:00.00 28973 N 0 0 0
0:00:00.00 29117 N 0 0 0
0:00:00.00 29459 N 0 0 0
0:00:00.00 29837 N 0 0 0
0:00:00.00 30094 N 0 0 0
0:00:00.00 30569 N 0 0 0
0:00:00.00 30838 N 0 0 0
0:00:00.00 31266 N 0 0 0
0:00:00.00 31604 N 0 0 0
0:00:00.00 31934 N 0 0 0
0:00:00.00 32274 N 0 0 0
0:00:00.00 32627 N 0 0 0
0:00:00.00 32976 N 0 0 0
0:00:00.00 33329 N 0 0 0
0:00:00.00 33615 N 0 0 0
0:00:00.00 34000 N 0 0 0
0:00:00.00 34337 N 0 0 0
0:00:00.00 34699 N 0 0 0
0:00:00.00 35066 N 0 0 0
0:00:00.00 35411 N 0 0 0
0:00:00.00 35750 N 0 0 0
0:00:00.00 36095 N 0 0 0
0:00:00.00 36428 N 0 0 0
0:00:00.00 36781 N 0 0 0
0:00:00.00 37138 N 0 0 0
0:00:00.00 37490 N 0 0 0
0:00:00.00 37838 N 0 0 0
0:00:00.00 38173 N 0 0 0
0:00:00.00 38500 N 0 0 0
0:00:00.00 38857 N 0 0 0
0:00:00.00 39224 N 0 0 0
0:00:00.00 39566 N 0 0 0
0:00:00.00 39913 N 0 0 0
0:00:00.00 40253 N 0 0 0
0:00:00.00 40588 N 0 0 0
0:00:00.00 40941 N 0 0 0
0:00:00.00 41292 N 0 0 0
0:00:00.00 41643 N 0 0 0
0:00:00.00 41990 N 0 0 0
0:00:00.00 42322 N 0 0 0
0:00:00.00 42649 N 0 0 0
0:00:00.00 42975 N 0 0 0
0:00:00.00 43324 N 0 0 0
0:00:00.00 43675 N 0 0 0
0:00:00.00 44010 N 0 0 0
0:00:00.00 44343 N 0 0 0
0:00:00.00 44678 N 0 0 0
0:00:00.00 44998 N 0 0 0
0:00:00.00 45335 N 0 0 0
0:00:00.00 45677 N 0 0 0
0:00:00.00 46015 N 0 0 0
0:00:00.00 46300 N 0 0 0
0:00:00.00 46669 N 0 0 0
0:00:00.00 46904 N 0 0 0
0:00:00.00 47311 N 0 0 0
0:00:00.00 47603 N 0 0 0
0:00:00.00 47756 N 0 0 0
0:00:00.00 48010 N 0 0 0
0:00:00.00 48251 N 0 0 0
0:00:00.00 48649 N 0 0 0
0:00:00.00 48875 N 0 0 0
0:00:00.00 49336 N 0 0 0
0:00:00.00 49531 N 0 0 0
0:00:00.00 50031 N 0 0 0
0:00:00.00 50234 N 0 0 0
0:00:00.00 50729 N 0 0 0
0:00:00.00 50920 N 0 0 0
0:00:00.00 51388 N 0 0 0
0:00:00.00 51606 N 0 0 0
0:00:00.00 52096 N 0 0 0
0:00:00.00 52328 N 0 0 0
0:00:00.00 52790 N 0 0 0
0:00:00.00 53037 N 0 0 0
0:00:00.00 53476 N 0 0 0
0:00:00.00 53717 N 0 0 0
0:00:00.00 54166 N 0 0 0
0:00:00.00 54425 N 0 0 0
0:00:00.00 54873 N 0 0 0
0:00:00.00 55562 N 0 0 0
0:00:00.00 56272 N 0 0 0
0:00:00.00 56538 N 0 0 0
0:00:00.00 56979 N 0 0 0
0:00:00.00 57236 N 0 0 0
0:00:00.00 57670 N 0 0 0
0:00:00.00 57922 N 0 0 0
0:00:00.00 58376 N 0 0 0
0:00:00.00 58639 N 0 0 0
0:00:00.00 59094 N 0 0 0
0:00:00.00 59351 N 0 0 0
0:00:00.00 59789 N 0 0 0
0:00:00.00 60035 N 0 0 0
0:00:00.00 60494 N 0 0 0
0:00:00.00 60719 N 0 0 0
0:00:00.00 61222 N 0 0 0
0:00:00.00 61432 N 0 0 0
0:00:00.00 61916 N 0 0 0
0:00:00.00 62125 N 0 0 0
0:00:00.00 62604 N 0 0 0
0:00:00.00 63329 N 0 0 0
0:00:00.00 64035 N 0 0 0
0:00:00.00 64274 N 0 0 0
0:00:00.00 64735 N 0 0 0
0:00:00.00 64969 N 0 0 0
0:00:00.00 65462 N 0 0 0
0:00:00.00 66146 N 0 0 0
0:00:00.00 66218 N 0 0 0
0:00:00.00 66406 N 0 0 0
0:00:00.00 66865 N 0 0 0
0:00:00.00 67595 N 0 0 0
0:00:00.00 68305 N 0 0 0
0:00:00.00 68528 N 0 0 0
0:00:00.00 69001 N 0 0 0
0:00:00.00 69239 N 0 0 0
0:00:00.00 69737 N 0 0 0
0:00:00.00 69968 N 0 0 0
0:00:00.00 70439 N 0 0 0
0:00:00.00 70672 N 0 0 0
0:00:00.00 71136 N 0 0 0
0:00:00.00 71374 N 0 0 0
0:00:00.00 71870 N 0 0 0
0:00:00.00 72104 N 0 0 0
0:00:00.00 72583 N 0 0 0
0:00:00.00 72810 N 0 0 0
0:00:00.00 73285 N 0 0 0
0:00:00.00 73525 N 0 0 0
0:00:00.00 74023 N 0 0 0
0:00:00.00 74241 N 0 0 0
0:00:00.00 74731 N 0 0 0
0:00:00.00 75418 N 0 0 0
0:00:00.00 75643 N 0 0 0
0:00:00.00 76151 N 0 0 0
0:00:00.00 76383 N 0 0 0
0:00:00.00 76891 N 0 0 0
0:00:00.00 77085 N 0 0 0
0:00:00.00 77589 N 0 0 0
0:00:00.00 77825 N 0 0 0
0:00:00.00 78336 N 0 0 0
0:00:00.00 78566 N 0 0 0
0:00:00.00 79051 N 0 0 0
0:00:00.00 79281 N 0 0 0
0:00:00.00 79753 N 0 0 0
0:00:00.00 79979 N 0 0 0
0:00:00.00 80496 N 0 0 0
0:00:00.00 80717 N 0 0 0
0:00:00.00 81218 N 0 0 0
0:00:00.00 81439 N 0 0 0
0:00:00.00 81914 N 0 0 0
0:00:00.00 82154 N 0 0 0
0:00:00.00 82649 N 0 0 0
0:00:00.00 82876 N 0 0 0
0:00:00.00 83360 N 0 0 0
0:00:00.00 83588 N 0 0 0
0:00:00.00 84069 N 0 0 0
0:00:00.00 84303 N 0 0 0
0:00:00.00 84812 N 0 0 0
0:00:00.00 85018 N 0 0 0
0:00:00.00 85520 N 0 0 0
0:00:00.00 85714 N 0 0 0
0:00:00.00 86220 N 0 0 0
0:00:00.00 86659 N 0 0 0
0:00:00.00 87030 N 0 0 0
0:00:00.00 87269 N 0 0 0
0:00:00.00 87397 N 0 0 0
0:00:00.00 87518 N 0 0 0
0:00:00.00 87635 N 0 0 0
0:00:00.00 87752 N 0 0 0
0:00:00.00 87867 N 0 0 0
0:00:00.00 88097 N 0 0 0
0:00:00.00 88225 N 0 0 0
0:00:00.00 88502 N 0 0 0
0:00:00.00 88628 N 0 0 0
0:00:00.00 89138 N 0 0 0
0:00:00.00 89636 N 0 0 0
0:00:00.00 89768 N 0 0 0
0:00:00.00 89881 N 0 0 0
0:00:00.00 90230 N 0 0 0
0:00:00.00 90477 N 0 0 0
0:00:00.00 90608 N 0 0 0
0:00:00.00 90743 N 0 0 0
0:00:00.00 90877 N 0 0 0
0:00:00.00 90995 N 0 0 0
0:00:00.00 91111 N 0 0 0
0:00:00.00 91220 N 0 0 0
0:00:00.00 91334 N 0 0 0
0:00:00.00 91408 N 0 0 0
0:00:00.00 91489 N 0 0 0
0:00:00.00 91561 N 0 0 0
0:00:00.00 91676 N 0 0 0
0:00:00.00 91755 N 0 0 0
0:00:00.00 91840 N 0 0 0
0:00:00.00 91915 N 0 0 0
0:00:00.00 91993 N 0 0 0
0:00:00.00 92065 N 0 0 0
0:00:00.00 92137 N 0 0 0
0:00:00.00 92228 N 0 0 0
0:00:00.00 92317 N 0 0 0
0:00:00.00 92421 N 0 0 0
0:00:00.00 92527 N 0 0 0
0:00:00.00 92641 N 0 0 0
0:00:00.00 92749 N 0 0 0
0:00:00.00 92853 N 0 0 0
0:00:00.00 92966 N 0 0 0
0:00:00.00 93080 N 0 0 0
0:00:00.00 93197 N 0 0 0
0:00:00.00 93305 N 0 0 0
0:00:00.00 93389 N 0 0 0
0:00:00.00 93463 N 0 0 0
0:00:00.00 93539 N 0 0 0
0:00:00.00 93672 N 0 0 0
0:00:00.00 93780 N 0 0 0
0:00:00.00 93852 N 0 0 0
0:00:00.00 93931 N 0 0 0
0:00:00.00 94426 N 0 0 0
0:00:00.00 94725 N 0 0 0
0:00:00.00 95195 N 0 0 0
0:00:00.00 95557 N 0 0 0
0:00:00.00 95909 N 0 0 0
0:00:00.00 96169 N 0 0 0
0:00:00.00 96314 N 0 0 0
0:00:00.00 96896 N 0 0 0
0:00:00.00 97121 N 0 0 0
0:00:00.00 97609 N 0 0 0
0:00:00.00 97727 N 0 0 0
0:00:00.00 97832 N 0 0 0
0:00:00.00 97945 N 0 0 0
0:00:00.00 98030 N 0 0 0
0:00:00.00 98104 N 0 0 0
0:00:00.00 98183 N 0 0 0
0:00:00.00 98258 N 0 0 0
0:00:00.00 98356 N 0 0 0
0:00:00.00 98500 N 0 0 0
0:00:00.00 98577 N 0 0 0
0:00:00.00 98654 N 0 0 0
0:00:00.00 98728 N 0 0 0
0:00:00.00 98807 N 0 0 0
0:00:00.00 98881 N 0 0 0
0:00:00.00 99148 N 0 0 0
0:00:00.00 99229 N 0 0 0
0:00:00.00 99308 N 0 0 0
0:00:00.00 99385 N 0 0 0
0:00:00.00 99491 N 0 0 0
0:00:00.00 99608 N 0 0 0
0:00:00.00 99700 N 0 0 0
0:00:00.00 99817 N 0 0 0
0:00:00.00 99927 N 0 0 0
0:00:00.00 100019 N 0 0 0
0:00:00.00 100121 N 0 0 0
0:00:00.00 100193 N 0 0 0
0:00:00.00 100265 N 0 0 0
0:00:00.00 100341 N 0 0 0
0:00:00.00 100429 N 0 0 0
0:00:00.00 100553 N 0 0 0
0:00:00.00 100656 N 0 0 0
0:00:00.00 100793 N 0 0 0
0:00:00.00 100960 N 0 0 0
0:00:00.00 101412 N 0 0 0
0:00:00.00 101734 N 0 0 0
0:00:00.00 102136 N 0 0 0
0:00:00.00 102388 N 0 0 0
0:00:00.00 102771 N 0 0 0
0:00:00.00 103079 N 0 0 0
0:00:00.00 103374 N 0 0 0
0:00:00.00 103685 N 0 0 0
0:00:00.00 103847 N 0 0 0
0:00:00.00 103995 N 0 0 0
0:00:00.00 104297 N 0 0 0
0:00:00.00 104587 N 0 0 0
0:00:00.00 104875 N 0 0 0
0:00:00.00 105165 N 0 0 0
0:00:00.00 105437 N 0 0 0
0:00:00.00 105723 N 0 0 0
0:00:00.00 106031 N 0 0 0
0:00:00.00 106328 N 0 0 0
0:00:00.00 106618 N 0 0 0
0:00:00.00 106909 N 0 0 0
0:00:00.00 107188 N 0 0 0
0:00:00.00 107460 N 0 0 0
0:00:00.00 107737 N 0 0 0
0:00:00.00 108022 N 0 0 0
0:00:00.00 108203 N 0 0 0
0:00:00.00 108335 N 0 0 0
0:00:00.00 108846 N 0 0 0
0:00:00.00 108920 N 0 0 0
0:00:00.00 109107 N 0 0 0
0:00:00.00 109377 N 0 0 0
0:00:00.00 109645 N 0 0 0
0:00:00.00 109904 N 0 0 0
0:00:00.00 110178 N 0 0 0
0:00:00.00 110461 N 0 0 0
0:00:00.00 110738 N 0 0 0
0:00:00.00 111006 N 0 0 0
0:00:00.00 111274 N 0 0 0
0:00:00.00 111530 N 0 0 0
0:00:00.00 111794 N 0 0 0
0:00:00.00 112052 N 0 0 0
0:00:00.00 112334 N 0 0 0
0:00:00.00 112613 N 0 0 0
0:00:00.00 112885 N 0 0 0
0:00:00.00 113150 N 0 0 0
0:00:00.00 113416 N 0 0 0
0:00:00.00 113684 N 0 0 0
0:00:00.00 113951 N 0 0 0
0:00:00.00 114206 N 0 0 0
0:00:00.00 114482 N 0 0 0
0:00:00.00 114763 N 0 0 0
0:00:00.00 115043 N 0 0 0
0:00:00.00 115315 N 0 0 0
0:00:00.00 115582 N 0 0 0
0:00:00.00 115841 N 0 0 0
0:00:00.00 116098 N 0 0 0
0:00:00.00 116269 N 0 0 0
0:00:00.00 116343 N 0 0 0
0:00:00.00 116420 N 0 0 0
0:00:00.00 116636 N 0 0 0
0:00:00.00 116914 N 0 0 0
0:00:00.00 117185 N 0 0 0
0:00:00.00 117452 N 0 0 0
0:00:00.00 117706 N 0 0 0
0:00:00.00 117963 N 0 0 0
0:00:00.00 118102 N 0 0 0
0:00:00.00 118186 N 0 0 0
0:00:00.00 118436 N 0 0 0
0:00:00.00 118523 N 0 0 0
0:00:00.00 118683 N 0 0 0
0:00:00.00 118876 N 0 0 0
0:00:00.00 118960 N 0 0 0
0:00:00.00 119124 N 0 0 0
0:00:00.00 119210 N 0 0 0
0:00:00.00 119441 N 0 0 0
0:00:00.00 119687 N 0 0 0
0:00:00.00 119934 N 0 0 0
0:00:00.00 120168 N 0 0 0
0:00:00.00 120415 N 0 0 0
0:00:00.00 120487 N 0 0 0
0:00:00.00 120663 N 0 0 0
0:00:00.00 120915 N 0 0 0
0:00:00.00 121192 N 0 0 0
0:00:00.00 121451 N 0 0 0
0:00:00.00 121702 N 0 0 0
0:00:00.00 121964 N 0 0 0
0:00:00.00 122213 N 0 0 0
0:00:00.00 122479 N 0 0 0
0:00:00.00 122737 N 0 0 0
0:00:00.00 122915 N 0 0 0
0:00:00.00 123016 N 0 0 0
0:00:00.00 123307 N 0 0 0
0:00:00.00 123592 N 0 0 0
0:00:00.00 123874 N 0 0 0
0:00:00.00 124150 N 0 0 0
0:00:00.00 124421 N 0 0 0
0:00:00.00 124693 N 0 0 0
0:00:00.00 124969 N 0 0 0
0:00:00.00 125251 N 0 0 0
0:00:00.00 125532 N 0 0 0
0:00:00.00 125816 N 0 0 0
0:00:00.00 126090 N 0 0 0
0:00:00.00 126364 N 0 0 0
0:00:00.00 126639 N 0 0 0
0:00:00.00 126904 N 0 0 0
0:00:00.00 127170 N 0 0 0
0:00:00.00 127451 N 0 0 0
0:00:00.00 127741 N 0 0 0
0:00:00.00 128023 N 0 0 0
0:00:00.00 128300 N 0 0 0
0:00:00.00 128569 N 0 0 0
0:00:00.00 128835 N 0 0 0
0:00:00.00 129098 N 0 0 0
0:00:00.00 129371 N 0 0 0
0:00:00.00 129661 N 0 0 0
0:00:00.00 129946 N 0 0 0
0:00:00.00 130219 N 0 0 0
0:00:00.00 130493 N 0 0 0
0:00:00.00 130774 N 0 0 0
0:00:00.00 131045 N 0 0 0
0:00:00.00 131303 N 0 0 0
0:00:00.00 131580 N 0 0 0
0:00:00.00 131866 N 0 0 0
0:00:00.00 132154 N 0 0 0
0:00:00.00 132437 N 0 0 0
0:00:00.00 132714 N 0 0 0
0:00:00.00 132982 N 0 0 0
0:00:00.00 133250 N 0 0 0
0:00:00.00 133522 N 0 0 0
0:00:00.00 133803 N 0 0 0
0:00:00.00 134091 N 0 0 0
0:00:00.00 134375 N 0 0 0
0:00:00.00 134653 N 0 0 0
0:00:00.00 134932 N 0 0 0
0:00:00.00 135209 N 0 0 0
0:00:00.00 135482 N 0 0 0
0:00:00.00 135754 N 0 0 0
0:00:00.00 136037 N 0 0 0
0:00:00.00 136332 N 0 0 0
0:00:00.00 136625 N 0 0 0
0:00:00.00 136910 N 0 0 0
0:00:00.00 137182 N 0 0 0
0:00:00.00 137457 N 0 0 0
0:00:00.00 137727 N 0 0 0
0:00:00.00 138004 N 0 0 0
0:00:00.00 138303 N 0 0 0
0:00:00.00 138598 N 0 0 0
0:00:00.00 138883 N 0 0 0
0:00:00.00 139171 N 0 0 0
0:00:00.00 139460 N 0 0 0
0:00:00.00 139739 N 0 0 0
0:00:00.00 140011 N 0 0 0
0:00:00.00 140301 N 0 0 0
0:00:00.00 140596 N 0 0 0
0:00:00.00 140899 N 0 0 0
0:00:00.00 141192 N 0 0 0
0:00:00.00 141476 N 0 0 0
0:00:00.00 141755 N 0 0 0
0:00:00.00 142036 N 0 0 0
0:00:00.00 142322 N 0 0 0
0:00:00.00 142625 N 0 0 0
0:00:00.00 142920 N 0 0 0
0:00:00.00 143212 N 0 0 0
0:00:00.00 143505 N 0 0 0
0:00:00.00 143795 N 0 0 0
0:00:00.00 144081 N 0 0 0
0:00:00.00 144364 N 0 0 0
0:00:00.00 144643 N 0 0 0
0:00:00.00 144950 N 0 0 0
0:00:00.00 145258 N 0 0 0
0:00:00.00 145552 N 0 0 0
0:00:00.00 145841 N 0 0 0
0:00:00.00 146129 N 0 0 0
0:00:00.00 146403 N 0 0 0
0:00:00.00 146698 N 0 0 0
0:00:00.00 147006 N 0 0 0
0:00:00.00 147308 N 0 0 0
0:00:00.00 147602 N 0 0 0
0:00:00.00 147901 N 0 0 0
0:00:00.00 148187 N 0 0 0
0:00:00.00 148473 N 0 0 0
0:00:00.00 148750 N 0 0 0
0:00:00.00 149047 N 0 0 0
0:00:00.00 149344 N 0 0 0
0:00:00.00 149641 N 0 0 0
0:00:00.00 149929 N 0 0 0
0:00:00.00 150214 N 0 0 0
0:00:00.00 150489 N 0 0 0
0:00:00.00 150766 N 0 0 0
0:00:00.00 150921 N 0 0 0
0:00:00.00 151058 N 0 0 0
0:00:00.00 151357 N 0 0 0
0:00:00.00 151643 N 0 0 0
0:00:00.00 151929 N 0 0 0
0:00:00.00 152210 N 0 0 0
0:00:00.00 152491 N 0 0 0
0:00:00.00 152768 N 0 0 0
0:00:00.00 153038 N 0 0 0
0:00:00.00 153322 N 0 0 0
0:00:00.00 153623 N 0 0 0
0:00:00.00 153914 N 0 0 0
0:00:00.00 154195 N 0 0 0
0:00:00.00 154469 N 0 0 0
0:00:00.00 154744 N 0 0 0
0:00:00.00 155011 N 0 0 0
0:00:00.00 155293 N 0 0 0
0:00:00.00 155588 N 0 0 0
0:00:00.00 155876 N 0 0 0
0:00:00.00 156161 N 0 0 0
0:00:00.00 156445 N 0 0 0
0:00:00.00 156724 N 0 0 0
0:00:00.00 157000 N 0 0 0
0:00:00.00 157264 N 0 0 0
0:00:00.00 157543 N 0 0 0
0:00:00.00 157833 N 0 0 0
0:00:00.00 158125 N 0 0 0
0:00:00.00 158411 N 0 0 0
0:00:00.00 158690 N 0 0 0
0:00:00.00 158963 N 0 0 0
0:00:00.00 159237 N 0 0 0
0:00:00.00 159514 N 0 0 0
0:00:00.00 159804 N 0 0 0
0:00:00.00 159950 N 0 0 0
0:00:00.00 160087 N 0 0 0
0:00:00.00 160373 N 0 0 0
0:00:00.00 160574 N 0 0 0
0:00:00.00 160648 N 0 0 0
0:00:00.00 160924 N 0 0 0
0:00:00.00 161201 N 0 0 0
0:00:00.00 161471 N 0 0 0
0:00:00.00 161735 N 0 0 0
0:00:00.00 162022 N 0 0 0
0:00:00.00 162319 N 0 0 0
0:00:00.00 162598 N 0 0 0
0:00:00.00 162871 N 0 0 0
0:00:00.00 163145 N 0 0 0
0:00:00.00 163417 N 0 0 0
0:00:00.00 163685 N 0 0 0
0:00:00.00 163969 N 0 0 0
0:00:00.00 164254 N 0 0 0
0:00:00.00 164538 N 0 0 0
0:00:00.00 164819 N 0 0 0
0:00:00.00 165105 N 0 0 0
0:00:00.00 165377 N 0 0 0
0:00:00.00 165647 N 0 0 0
0:00:00.00 165906 N 0 0 0
0:00:00.00 166185 N 0 0 0
0:00:00.00 166475 N 0 0 0
0:00:00.00 166763 N 0 0 0
0:00:00.00 167044 N 0 0 0
0:00:00.00 167323 N 0 0 0
0:00:00.00 167589 N 0 0 0
0:00:00.00 167863 N 0 0 0
0:00:00.00 168136 N 0 0 0
0:00:00.00 168417 N 0 0 0
0:00:00.00 168700 N 0 0 0
0:00:00.00 168982 N 0 0 0
0:00:00.00 169254 N 0 0 0
0:00:00.00 169529 N 0 0 0
0:00:00.00 169803 N 0 0 0
0:00:00.00 170069 N 0 0 0
0:00:00.00 170330 N 0 0 0
0:00:00.00 170615 N 0 0 0
0:00:00.00 170910 N 0 0 0
0:00:00.00 171194 N 0 0 0
0:00:00.00 171464 N 0 0 0
0:00:00.00 171734 N 0 0 0
0:00:00.00 172001 N 0 0 0
0:00:00.00 172267 N 0 0 0
0:00:00.00 172539 N 0 0 0
0:00:00.00 172818 N 0 0 0
0:00:00.00 173102 N 0 0 0
0:00:00.00 173381 N 0 0 0
0:00:00.00 173662 N 0 0 0
0:00:00.00 173936 N 0 0 0
0:00:00.00 174208 N 0 0 0
0:00:00.00 174469 N 0 0 0
0:00:00.00 174748 N 0 0 0
0:00:00.00 175034 N 0 0 0
0:00:00.00 175322 N 0 0 0
0:00:00.00 175606 N 0 0 0
0:00:00.00 175885 N 0 0 0
0:00:00.00 176155 N 0 0 0
0:00:00.00 176431 N 0 0 0
0:00:00.00 176701 N 0 0 0
0:00:00.00 176985 N 0 0 0
0:00:00.00 177269 N 0 0 0
0:00:00.00 177556 N 0 0 0
0:00:00.00 177831 N 0 0 0
0:00:00.00 178112 N 0 0 0
0:00:00.00 178391 N 0 0 0
0:00:00.00 178663 N 0 0 0
0:00:00.00 178927 N 0 0 0
0:00:00.00 179217 N 0 0 0
0:00:00.00 179514 N 0 0 0
0:00:00.00 179800 N 0 0 0
0:00:00.00 180076 N 0 0 0
0:00:00.00 180347 N 0 0 0
0:00:00.00 180621 N 0 0 0
0:00:00.00 180895 N 0 0 0
0:00:00.00 181170 N 0 0 0
0:00:00.00 181458 N 0 0 0
0:00:00.00 181750 N 0 0 0
0:00:00.00 182032 N 0 0 0
0:00:00.00 182318 N 0 0 0
0:00:00.00 182594 N 0 0 0
0:00:00.00 182866 N 0 0 0
0:00:00.00 183128 N 0 0 0
0:00:00.00 183416 N 0 0 0
0:00:00.00 183706 N 0 0 0
0:00:00.00 183996 N 0 0 0
0:00:00.00 184280 N 0 0 0
0:00:00.00 184559 N 0 0 0
0:00:00.00 184829 N 0 0 0
0:00:00.00 185110 N 0 0 0
0:00:00.00 185380 N 0 0 0
0:00:00.00 185663 N 0 0 0
0:00:00.00 185953 N 0 0 0
0:00:00.00 186244 N 0 0 0
0:00:00.00 186523 N 0 0 0
0:00:00.00 186619 N 0 0 0
0:00:00.00 186808 N 0 0 0
0:00:00.00 187087 N 0 0 0
0:00:00.00 187362 N 0 0 0
0:00:00.00 187632 N 0 0 0
0:00:00.00 187925 N 0 0 0
0:00:00.00 188221 N 0 0 0
0:00:00.00 188509 N 0 0 0
0:00:00.00 188786 N 0 0 0
0:00:00.00 189061 N 0 0 0
0:00:00.00 189340 N 0 0 0
0:00:00.00 189612 N 0 0 0
0:00:00.00 189896 N 0 0 0
0:00:00.00 190190 N 0 0 0
0:00:00.00 190480 N 0 0 0
0:00:00.00 190768 N 0 0 0
0:00:00.00 191059 N 0 0 0
0:00:00.00 191340 N 0 0 0
0:00:00.00 191612 N 0 0 0
0:00:00.00 191884 N 0 0 0
0:00:00.00 192173 N 0 0 0
0:00:00.00 192474 N 0 0 0
0:00:00.00 192773 N 0 0 0
0:00:00.00 193054 N 0 0 0
0:00:00.00 193331 N 0 0 0
0:00:00.00 193615 N 0 0 0
0:00:00.00 193894 N 0 0 0
0:00:00.00 194177 N 0 0 0
0:00:00.00 194472 N 0 0 0
0:00:00.00 194769 N 0 0 0
0:00:00.00 195057 N 0 0 0
0:00:00.00 195349 N 0 0 0
0:00:00.00 195635 N 0 0 0
0:00:00.00 195912 N 0 0 0
0:00:00.00 196186 N 0 0 0
0:00:00.00 196483 N 0 0 0
0:00:00.00 196785 N 0 0 0
0:00:00.00 197082 N 0 0 0
0:00:00.00 197366 N 0 0 0
0:00:00.00 197649 N 0 0 0
0:00:00.00 197932 N 0 0 0
0:00:00.00 198211 N 0 0 0
0:00:00.00 198504 N 0 0 0
0:00:00.00 198806 N 0 0 0
0:00:00.00 199103 N 0 0 0
0:00:00.00 199402 N 0 0 0
0:00:00.00 199697 N 0 0 0
0:00:00.00 199980 N 0 0 0
0:00:00.00 200261 N 0 0 0
0:00:00.00 200542 N 0 0 0
0:00:00.00 200839 N 0 0 0
0:00:00.00 201146 N 0 0 0
0:00:00.00 201443 N 0 0 0
0:00:00.00 201733 N 0 0 0
0:00:00.00 202019 N 0 0 0
0:00:00.00 202313 N 0 0 0
0:00:00.00 202590 N 0 0 0
0:00:00.00 202883 N 0 0 0
0:00:00.00 203184 N 0 0 0
0:00:00.00 203483 N 0 0 0
0:00:00.00 203778 N 0 0 0
0:00:00.00 204071 N 0 0 0
0:00:00.00 204350 N 0 0 0
0:00:00.00 204631 N 0 0 0
0:00:00.00 204914 N 0 0 0
0:00:00.00 205218 N 0 0 0
0:00:00.00 205522 N 0 0 0
0:00:00.00 205812 N 0 0 0
0:00:00.00 206102 N 0 0 0
0:00:00.00 206390 N 0 0 0
0:00:00.00 206676 N 0 0 0
0:00:00.00 206957 N 0 0 0
0:00:00.00 207250 N 0 0 0
0:00:00.00 207545 N 0 0 0
0:00:00.00 207844 N 0 0 0
0:00:00.00 208139 N 0 0 0
0:00:00.00 208427 N 0 0 0
0:00:00.00 208706 N 0 0 0
0:00:00.00 208985 N 0 0 0
0:00:00.00 209264 N 0 0 0
0:00:00.00 209569 N 0 0 0
0:00:00.00 209875 N 0 0 0
0:00:00.00 210168 N 0 0 0
0:00:00.00 210454 N 0 0 0
0:00:00.00 210744 N 0 0 0
0:00:00.00 211032 N 0 0 0
0:00:00.00 211315 N 0 0 0
0:00:00.00 211610 N 0 0 0
0:00:00.00 211910 N 0 0 0
0:00:00.00 212207 N 0 0 0
0:00:00.00 212504 N 0 0 0
0:00:00.00 212792 N 0 0 0
0:00:00.00 213079 N 0 0 0
0:00:00.00 213352 N 0 0 0
0:00:00.00 213649 N 0 0 0
0:00:00.00 213957 N 0 0 0
0:00:00.00 214259 N 0 0 0
0:00:00.00 214551 N 0 0 0
0:00:00.00 214846 N 0 0 0
0:00:00.00 215132 N 0 0 0
0:00:00.00 215422 N 0 0 0
0:00:00.00 215708 N 0 0 0
0:00:00.00 216011 N 0 0 0
0:00:00.00 216311 N 0 0 0
0:00:00.00 216623 N 0 0 0
0:00:00.00 216916 N 0 0 0
0:00:00.00 217202 N 0 0 0
0:00:00.00 217490 N 0 0 0
0:00:00.00 217775 N 0 0 0
0:00:00.00 218081 N 0 0 0
0:00:00.00 218398 N 0 0 0
0:00:00.00 218700 N 0 0 0
0:00:00.00 218997 N 0 0 0
0:00:00.00 219296 N 0 0 0
0:00:00.00 219591 N 0 0 0
0:00:00.00 219879 N 0 0 0
0:00:00.00 220176 N 0 0 0
0:00:00.00 220486 N 0 0 0
0:00:00.00 220792 N 0 0 0
0:00:00.00 221094 N 0 0 0
0:00:00.00 221393 N 0 0 0
0:00:00.00 221686 N 0 0 0
0:00:00.00 221969 N 0 0 0
0:00:00.00 222275 N 0 0 0
0:00:00.00 222588 N 0 0 0
0:00:00.00 222898 N 0 0 0
0:00:00.00 223198 N 0 0 0
0:00:00.00 223499 N 0 0 0
0:00:00.00 223792 N 0 0 0
0:00:00.00 224093 N 0 0 0
0:00:00.00 224384 N 0 0 0
0:00:00.00 224694 N 0 0 0
0:00:00.00 225009 N 0 0 0
0:00:00.00 225320 N 0 0 0
0:00:00.00 225621 N 0 0 0
0:00:00.00 225916 N 0 0 0
0:00:00.00 226208 N 0 0 0
0:00:00.00 226503 N 0 0 0
0:00:00.00 226822 N 0 0 0
0:00:00.00 227137 N 0 0 0
0:00:00.00 227444 N 0 0 0
0:00:00.00 227743 N 0 0 0
0:00:00.00 228044 N 0 0 0
0:00:00.00 228339 N 0 0 0
0:00:00.00 228631 N 0 0 0
0:00:00.00 228937 N 0 0 0
0:00:00.00 229253 N 0 0 0
0:00:00.00 229559 N 0 0 0
0:00:00.00 229864 N 0 0 0
0:00:00.00 230164 N 0 0 0
0:00:00.00 230454 N 0 0 0
0:00:00.00 230747 N 0 0 0
0:00:00.00 231066 N 0 0 0
0:00:00.00 231383 N 0 0 0
0:00:00.00 231685 N 0 0 0
0:00:00.00 231988 N 0 0 0
0:00:00.00 232283 N 0 0 0
0:00:00.00 232587 N 0 0 0
0:00:00.00 232882 N 0 0 0
0:00:00.00 233194 N 0 0 0
0:00:00.00 233512 N 0 0 0
0:00:00.00 233833 N 0 0 0
0:00:00.00 234137 N 0 0 0
0:00:00.00 234434 N 0 0 0
0:00:00.00 234729 N 0 0 0
0:00:00.00 235017 N 0 0 0
0:00:00.00 235332 N 0 0 0
0:00:00.00 235651 N 0 0 0
0:00:00.00 235958 N 0 0 0
0:00:00.00 236259 N 0 0 0
0:00:00.00 236560 N 0 0 0
0:00:00.00 236862 N 0 0 0
0:00:00.00 237150 N 0 0 0
0:00:00.00 237452 N 0 0 0
0:00:00.00 237771 N 0 0 0
0:00:00.00 238084 N 0 0 0
0:00:00.00 238394 N 0 0 0
0:00:00.00 238696 N 0 0 0
0:00:00.00 238990 N 0 0 0
0:00:00.00 239279 N 0 0 0
0:00:00.00 239594 N 0 0 0
0:00:00.00 239909 N 0 0 0
0:00:00.00 240221 N 0 0 0
0:00:00.00 240527 N 0 0 0
0:00:00.00 240827 N 0 0 0
0:00:00.00 241133 N 0 0 0
0:00:00.00 241427 N 0 0 0
0:00:00.00 241736 N 0 0 0
0:00:00.00 242057 N 0 0 0
0:00:00.00 242383 N 0 0 0
0:00:00.00 242692 N 0 0 0
0:00:00.00 242993 N 0 0 0
0:00:00.00 243295 N 0 0 0
0:00:00.00 243590 N 0 0 0
0:00:00.00 243904 N 0 0 0
0:00:00.00 244226 N 0 0 0
0:00:00.00 244546 N 0 0 0
0:00:00.00 244849 N 0 0 0
0:00:00.00 245158 N 0 0 0
0:00:00.00 245464 N 0 0 0
0:00:00.00 245756 N 0 0 0
0:00:00.00 246065 N 0 0 0
0:00:00.00 246388 N 0 0 0
0:00:00.00 246710 N 0 0 0
0:00:00.00 247028 N 0 0 0
0:00:00.00 247333 N 0 0 0
0:00:00.00 247630 N 0 0 0
0:00:00.00 247930 N 0 0 0
0:00:00.00 248247 N 0 0 0
0:00:00.00 248569 N 0 0 0
0:00:00.00 248886 N 0 0 0
0:00:00.00 249197 N 0 0 0
0:00:00.00 249507 N 0 0 0
0:00:00.00 249818 N 0 0 0
0:00:00.00 250115 N 0 0 0
0:00:00.00 250432 N 0 0 0
0:00:00.00 250763 N 0 0 0
0:00:00.00 251089 N 0 0 0
0:00:00.00 251408 N 0 0 0
0:00:00.00 251710 N 0 0 0
0:00:00.00 252016 N 0 0 0
0:00:00.00 252319 N 0 0 0
0:00:00.00 252643 N 0 0 0
0:00:00.00 252970 N 0 0 0
0:00:00.00 253285 N 0 0 0
0:00:00.00 253598 N 0 0 0
0:00:00.00 253922 N 0 0 0
0:00:00.00 254230 N 0 0 0
0:00:00.00 254531 N 0 0 0
0:00:00.00 254858 N 0 0 0
0:00:00.00 255184 N 0 0 0
0:00:00.00 255508 N 0 0 0
0:00:00.00 255823 N 0 0 0
0:00:00.00 256127 N 0 0 0
0:00:00.00 256437 N 0 0 0
0:00:00.00 256752 N 0 0 0
0:00:00.00 257076 N 0 0 0
0:00:00.00 257398 N 0 0 0
0:00:00.00 257715 N 0 0 0
0:00:00.00 258030 N 0 0 0
0:00:00.00 258345 N 0 0 0
0:00:00.00 258651 N 0 0 0
0:00:00.00 258966 N 0 0 0
0:00:00.00 259292 N 0 0 0
0:00:00.00 259625 N 0 0 0
0:00:00.00 259943 N 0 0 0
0:00:00.00 260248 N 0 0 0
0:00:00.00 260555 N 0 0 0
0:00:00.00 260854 N 0 0 0
0:00:00.00 261173 N 0 0 0
0:00:00.00 261506 N 0 0 0
0:00:00.00 261830 N 0 0 0
0:00:00.00 262145 N 0 0 0
0:00:00.00 262469 N 0 0 0
0:00:00.00 262778 N 0 0 0
0:00:00.00 263079 N 0 0 0
0:00:00.00 263399 N 0 0 0
0:00:00.00 263727 N 0 0 0
0:00:00.00 264056 N 0 0 0
0:00:00.00 264379 N 0 0 0
0:00:00.00 264690 N 0 0 0
0:00:00.00 264998 N 0 0 0
0:00:00.00 265316 N 0 0 0
0:00:00.00 265644 N 0 0 0
0:00:00.00 265973 N 0 0 0
0:00:00.00 266294 N 0 0 0
0:00:00.00 266611 N 0 0 0
0:00:00.00 266927 N 0 0 0
0:00:00.00 267237 N 0 0 0
0:00:00.00 267548 N 0 0 0
0:00:00.00 267872 N 0 0 0
0:00:00.00 268209 N 0 0 0
0:00:00.00 268529 N 0 0 0
0:00:00.00 268839 N 0 0 0
0:00:00.00 269150 N 0 0 0
0:00:00.00 269453 N 0 0 0
0:00:00.00 269775 N 0 0 0
0:00:00.00 270113 N 0 0 0
0:00:00.00 270441 N 0 0 0
0:00:00.00 270761 N 0 0 0
0:00:00.00 271087 N 0 0 0
0:00:00.00 271400 N 0 0 0
0:00:00.00 271703 N 0 0 0
0:00:00.00 272027 N 0 0 0
0:00:00.00 272360 N 0 0 0
0:00:00.00 272695 N 0 0 0
0:00:00.00 273015 N 0 0 0
0:00:00.00 273332 N 0 0 0
0:00:00.00 273649 N 0 0 0
0:00:00.00 273974 N 0 0 0
0:00:00.00 274313 N 0 0 0
0:00:00.00 274644 N 0 0 0
0:00:00.00 274975 N 0 0 0
0:00:00.00 275303 N 0 0 0
0:00:00.00 275625 N 0 0 0
0:00:00.00 275938 N 0 0 0
0:00:00.00 276259 N 0 0 0
0:00:00.00 276601 N 0 0 0
0:00:00.00 276943 N 0 0 0
0:00:00.00 277267 N 0 0 0
0:00:00.00 277587 N 0 0 0
0:00:00.00 277906 N 0 0 0
0:00:00.00 278222 N 0 0 0
0:00:00.00 278566 N 0 0 0
0:00:00.00 278906 N 0 0 0
0:00:00.00 279238 N 0 0 0
0:00:00.00 279580 N 0 0 0
0:00:00.00 279902 N 0 0 0
0:00:00.00 280220 N 0 0 0
0:00:00.00 280546 N 0 0 0
0:00:00.00 280894 N 0 0 0
0:00:00.00 281245 N 0 0 0
0:00:00.00 281574 N 0 0 0
0:00:00.00 281905 N 0 0 0
0:00:00.00 282245 N 0 0 0
0:00:00.00 282571 N 0 0 0
0:00:00.00 282920 N 0 0 0
0:00:00.00 283273 N 0 0 0
0:00:00.00 283615 N 0 0 0
0:00:00.00 283959 N 0 0 0
0:00:00.00 284292 N 0 0 0
0:00:00.00 284623 N 0 0 0
0:00:00.00 284962 N 0 0 0
0:00:00.00 285329 N 0 0 0
0:00:00.00 285674 N 0 0 0
0:00:00.00 286011 N 0 0 0
0:00:00.00 286353 N 0 0 0
0:00:00.00 286684 N 0 0 0
0:00:00.00 287023 N 0 0 0
0:00:00.00 287377 N 0 0 0
0:00:00.00 287723 N 0 0 0
0:00:00.00 288070 N 0 0 0
0:00:00.00 288409 N 0 0 0
0:00:00.00 288740 N 0 0 0
0:00:00.00 289067 N 0 0 0
0:00:00.00 289418 N 0 0 0
0:00:00.00 289778 N 0 0 0
0:00:00.00 290124 N 0 0 0
0:00:00.00 290461 N 0 0 0
0:00:00.00 290794 N 0 0 0
0:00:00.00 291127 N 0 0 0
0:00:00.00 291479 N 0 0 0
0:00:00.00 291827 N 0 0 0
0:00:00.00 292172 N 0 0 0
0:00:00.00 292513 N 0 0 0
0:00:00.00 292858 N 0 0 0
0:00:00.00 293186 N 0 0 0
0:00:00.00 293524 N 0 0 0
0:00:00.00 293895 N 0 0 0
0:00:00.00 294248 N 0 0 0
0:00:00.00 294590 N 0 0 0
0:00:00.00 294928 N 0 0 0
0:00:00.00 295263 N 0 0 0
0:00:00.00 295605 N 0 0 0
0:00:00.00 295954 N 0 0 0
0:00:00.00 296309 N 0 0 0
0:00:00.00 296660 N 0 0 0
0:00:00.00 297000 N 0 0 0
0:00:00.00 297335 N 0 0 0
0:00:00.00 297664 N 0 0 0
0:00:00.00 298021 N 0 0 0
0:00:00.00 298379 N 0 0 0
0:00:00.00 298730 N 0 0 0
0:00:00.00 299070 N 0 0 0
0:00:00.00 299403 N 0 0 0
0:00:00.00 299743 N 0 0 0
0:00:00.00 300087 N 0 0 0
0:00:00.00 300440 N 0 0 0
0:00:00.00 300787 N 0 0 0
0:00:00.00 301133 N 0 0 0
0:00:00.00 301477 N 0 0 0
0:00:00.00 301806 N 0 0 0
0:00:00.00 302148 N 0 0 0
0:00:00.00 302515 N 0 0 0
0:00:00.00 302866 N 0 0 0
0:00:00.00 303205 N 0 0 0
0:00:00.00 303541 N 0 0 0
0:00:00.00 303881 N 0 0 0
0:00:00.00 304218 N 0 0 0
0:00:00.00 304571 N 0 0 0
0:00:00.00 304922 N 0 0 0
0:00:00.00 305275 N 0 0 0
0:00:00.00 305617 N 0 0 0
0:00:00.00 305951 N 0 0 0
0:00:00.00 306281 N 0 0 0
0:00:00.00 306632 N 0 0 0
0:00:00.00 306992 N 0 0 0
0:00:00.00 307337 N 0 0 0
0:00:00.00 307678 N 0 0 0
0:00:00.00 308016 N 0 0 0
0:00:00.00 308349 N 0 0 0
0:00:00.00 308693 N 0 0 0
0:00:00.00 309047 N 0 0 0
0:00:00.00 309397 N 0 0 0
0:00:00.00 309749 N 0 0 0
0:00:00.00 310091 N 0 0 0
0:00:00.00 310423 N 0 0 0
0:00:00.00 310759 N 0 0 0
0:00:00.00 311123 N 0 0 0
0:00:00.00 311479 N 0 0 0
0:00:00.00 311819 N 0 0 0
0:00:00.00 312158 N 0 0 0
0:00:00.00 312496 N 0 0 0
0:00:00.00 312833 N 0 0 0
0:00:00.00 313187 N 0 0 0
0:00:00.00 313538 N 0 0 0
0:00:00.00 313898 N 0 0 0
0:00:00.00 314242 N 0 0 0
0:00:00.00 314572 N 0 0 0
0:00:00.00 314905 N 0 0 0
0:00:00.00 315252 N 0 0 0
0:00:00.00 315616 N 0 0 0
0:00:00.00 315961 N 0 0 0
0:00:00.00 316303 N 0 0 0
0:00:00.00 316645 N 0 0 0
0:00:00.00 316975 N 0 0 0
0:00:00.00 317320 N 0 0 0
0:00:00.00 317677 N 0 0 0
0:00:00.00 318024 N 0 0 0
0:00:00.00 318379 N 0 0 0
0:00:00.00 318717 N 0 0 0
0:00:00.00 319048 N 0 0 0
0:00:00.00 319385 N 0 0 0
0:00:00.00 319745 N 0 0 0
0:00:00.00 320098 N 0 0 0
0:00:00.00 320434 N 0 0 0
0:00:00.00 320771 N 0 0 0
0:00:00.00 321111 N 0 0 0
0:00:00.00 321446 N 0 0 0
0:00:00.00 321799 N 0 0 0
0:00:00.00 322151 N 0 0 0
0:00:00.00 322506 N 0 0 0
0:00:00.00 322848 N 0 0 0
0:00:00.00 323176 N 0 0 0
0:00:00.00 323503 N 0 0 0
0:00:00.00 323851 N 0 0 0
0:00:00.00 324212 N 0 0 0
0:00:00.00 324560 N 0 0 0
0:00:00.00 324898 N 0 0 0
0:00:00.00 325247 N 0 0 0
0:00:00.00 325580 N 0 0 0
0:00:00.00 325919 N 0 0 0
0:00:00.00 326281 N 0 0 0
0:00:00.00 326633 N 0 0 0
0:00:00.00 326984 N 0 0 0
0:00:00.00 327321 N 0 0 0
0:00:00.00 327654 N 0 0 0
0:00:00.00 327996 N 0 0 0
0:00:00.00 328352 N 0 0 0
0:00:00.00 328705 N 0 0 0
0:00:00.00 329053 N 0 0 0
0:00:00.00 329393 N 0 0 0
0:00:00.00 329735 N 0 0 0
0:00:00.00 330068 N 0 0 0
0:00:00.00 330419 N 0 0 0
0:00:00.00 330773 N 0 0 0
0:00:00.00 331128 N 0 0 0
0:00:00.00 331463 N 0 0 0
0:00:00.00 331798 N 0 0 0
0:00:00.00 332123 N 0 0 0
0:00:00.00 332471 N 0 0 0
0:00:00.00 332836 N 0 0 0
0:00:00.00 333180 N 0 0 0
0:00:00.00 333527 N 0 0 0
0:00:00.00 333875 N 0 0 0
0:00:00.00 334208 N 0 0 0
0:00:00.00 334550 N 0 0 0
0:00:00.00 334904 N 0 0 0
0:00:00.00 335259 N 0 0 0
0:00:00.00 335608 N 0 0 0
0:00:00.00 335939 N 0 0 0
0:00:00.00 336274 N 0 0 0
0:00:00.00 336613 N 0 0 0
0:00:00.00 336971 N 0 0 0
0:00:00.00 337322 N 0 0 0
0:00:00.00 337666 N 0 0 0
0:00:00.00 338009 N 0 0 0
0:00:00.00 338350 N 0 0 0
0:00:00.00 338683 N 0 0 0
0:00:00.00 339030 N 0 0 0
0:00:00.00 339390 N 0 0 0
0:00:00.00 339743 N 0 0 0
0:00:00.00 340083 N 0 0 0
0:00:00.00 340418 N 0 0 0
0:00:00.00 340747 N 0 0 0
0:00:00.00 341102 N 0 0 0
0:00:00.00 341469 N 0 0 0
0:00:00.00 341818 N 0 0 0
0:00:00.00 342169 N 0 0 0
0:00:00.00 342515 N 0 0 0
0:00:00.00 342851 N 0 0 0
0:00:00.00 343190 N 0 0 0
0:00:00.00 343548 N 0 0 0
0:00:00.00 343908 N 0 0 0
0:00:00.00 344257 N 0 0 0
0:00:00.00 344603 N 0 0 0
0:00:00.00 344939 N 0 0 0
0:00:00.00 345289 N 0 0 0
0:00:00.00 345654 N 0 0 0
0:00:00.00 346009 N 0 0 0
0:00:00.00 346361 N 0 0 0
0:00:00.00 346705 N 0 0 0
0:00:00.00 347051 N 0 0 0
0:00:00.00 347389 N 0 0 0
0:00:00.00 347742 N 0 0 0
0:00:00.00 348109 N 0 0 0
0:00:00.00 348460 N 0 0 0
0:00:00.00 348804 N 0 0 0
0:00:00.00 349144 N 0 0 0
0:00:00.00 349475 N 0 0 0
0:00:00.00 349769 N 0 0 0
0:00:00.00 350134 N 0 0 0
0:00:00.00 350489 N 0 0 0
0:00:00.00 350851 N 0 0 0
0:00:00.00 351196 N 0 0 0
0:00:00.00 351529 N 0 0 0
0:00:00.00 351878 N 0 0 0
0:00:00.00 352238 N 0 0 0
0:00:00.00 352606 N 0 0 0
0:00:00.00 352953 N 0 0 0
0:00:00.00 353293 N 0 0 0
0:00:00.00 353633 N 0 0 0
0:00:00.00 353984 N 0 0 0
0:00:00.00 354346 N 0 0 0
0:00:00.00 354697 N 0 0 0
0:00:00.00 355043 N 0 0 0
0:00:00.00 355387 N 0 0 0
0:00:00.00 355729 N 0 0 0
0:00:00.00 356062 N 0 0 0
0:00:00.00 356425 N 0 0 0
0:00:00.00 356794 N 0 0 0
0:00:00.00 357142 N 0 0 0
0:00:00.00 357485 N 0 0 0
0:00:00.00 357824 N 0 0 0
0:00:00.00 358164 N 0 0 0
0:00:00.00 358528 N 0 0 0
0:00:00.00 358886 N 0 0 0
0:00:00.00 359239 N 0 0 0
0:00:00.00 359590 N 0 0 0
0:00:00.00 359932 N 0 0 0
0:00:00.00 360263 N 0 0 0
0:00:00.00 360619 N 0 0 0
0:00:00.00 360988 N 0 0 0
0:00:00.00 361346 N 0 0 0
0:00:00.00 361697 N 0 0 0
0:00:00.00 362036 N 0 0 0
0:00:00.00 362383 N 0 0 0
0:00:00.00 362741 N 0 0 0
0:00:00.00 363096 N 0 0 0
0:00:00.00 363454 N 0 0 0
0:00:00.00 363802 N 0 0 0
0:00:00.00 364149 N 0 0 0
0:00:00.00 364482 N 0 0 0
0:00:00.00 364833 N 0 0 0
0:00:00.00 365209 N 0 0 0
0:00:00.00 365562 N 0 0 0
0:00:00.00 365913 N 0 0 0
0:00:00.00 366253 N 0 0 0
0:00:00.00 366590 N 0 0 0
0:00:00.00 366944 N 0 0 0
0:00:00.00 367299 N 0 0 0
0:00:00.00 367652 N 0 0 0
0:00:00.00 368008 N 0 0 0
0:00:00.00 368348 N 0 0 0
0:00:00.00 368685 N 0 0 0
0:00:00.00 369023 N 0 0 0
0:00:00.00 369383 N 0 0 0
0:00:00.00 369752 N 0 0 0
0:00:00.00 370100 N 0 0 0
0:00:00.00 370436 N 0 0 0
0:00:00.00 370780 N 0 0 0
0:00:00.00 371117 N 0 0 0
0:00:00.00 371471 N 0 0 0
0:00:00.00 371828 N 0 0 0
0:00:00.00 372172 N 0 0 0
0:00:00.00 372523 N 0 0 0
0:00:00.00 372865 N 0 0 0
0:00:00.00 373190 N 0 0 0
0:00:00.00 373552 N 0 0 0
0:00:00.00 373918 N 0 0 0
0:00:00.00 374269 N 0 0 0
0:00:00.00 374611 N 0 0 0
0:00:00.00 374949 N 0 0 0
0:00:00.00 375284 N 0 0 0
0:00:00.00 375635 N 0 0 0
0:00:00.00 375997 N 0 0 0
0:00:00.00 376351 N 0 0 0
0:00:00.00 376708 N 0 0 0
0:00:00.00 377051 N 0 0 0
0:00:00.00 377384 N 0 0 0
0:00:00.00 377732 N 0 0 0
0:00:00.00 378095 N 0 0 0
0:00:00.00 378457 N 0 0 0
0:00:00.00 378808 N 0 0 0
0:00:00.00 379147 N 0 0 0
0:00:00.00 379496 N 0 0 0
0:00:00.00 379836 N 0 0 0
0:00:00.00 380192 N 0 0 0
0:00:00.00 380552 N 0 0 0
0:00:00.00 380902 N 0 0 0
0:00:00.00 381253 N 0 0 0
0:00:00.00 381593 N 0 0 0
0:00:00.00 381933 N 0 0 0
0:00:00.00 382302 N 0 0 0
0:00:00.00 382658 N 0 0 0
0:00:00.00 383002 N 0 0 0
0:00:00.00 383344 N 0 0 0
0:00:00.00 383702 N 0 0 0
0:00:00.00 384041 N 0 0 0
0:00:00.00 384395 N 0 0 0
0:00:00.00 384759 N 0 0 0
0:00:00.00 385112 N 0 0 0
0:00:00.00 385468 N 0 0 0
0:00:00.00 385805 N 0 0 0
0:00:00.00 386140 N 0 0 0
0:00:00.00 386492 N 0 0 0
0:00:00.00 386856 N 0 0 0
0:00:00.00 387211 N 0 0 0
0:00:00.00 387551 N 0 0 0
0:00:00.00 387898 N 0 0 0
0:00:00.00 388235 N 0 0 0
0:00:00.00 388582 N 0 0 0
0:00:00.00 388948 N 0 0 0
0:00:00.00 389302 N 0 0 0
0:00:00.00 389655 N 0 0 0
0:00:00.00 389999 N 0 0 0
0:00:00.00 390335 N 0 0 0
0:00:00.00 390679 N 0 0 0
0:00:00.00 391048 N 0 0 0
0:00:00.00 391406 N 0 0 0
0:00:00.00 391747 N 0 0 0
0:00:00.00 392090 N 0 0 0
0:00:00.00 392432 N 0 0 0
0:00:00.00 392776 N 0 0 0
0:00:00.00 393138 N 0 0 0
0:00:00.00 393496 N 0 0 0
0:00:00.00 393860 N 0 0 0
0:00:00.00 394207 N 0 0 0
0:00:00.00 394544 N 0 0 0
0:00:00.00 394882 N 0 0 0
0:00:00.00 395244 N 0 0 0
0:00:00.00 395613 N 0 0 0
0:00:00.00 395964 N 0 0 0
0:00:00.00 396308 N 0 0 0
0:00:00.00 396664 N 0 0 0
0:00:00.00 397001 N 0 0 0
0:00:00.00 397361 N 0 0 0
0:00:00.00 397723 N 0 0 0
0:00:00.00 398079 N 0 0 0
0:00:00.00 398432 N 0 0 0
0:00:00.00 398774 N 0 0 0
0:00:00.00 399107 N 0 0 0
0:00:00.00 399469 N 0 0 0
0:00:00.00 399834 N 0 0 0
0:00:00.00 400185 N 0 0 0
0:00:00.00 400529 N 0 0 0
0:00:00.00 400869 N 0 0 0
0:00:00.00 401207 N 0 0 0
0:00:00.00 401557 N 0 0 0
0:00:00.00 401918 N 0 0 0
0:00:00.00 402278 N 0 0 0
0:00:00.00 402626 N 0 0 0
0:00:00.00 402962 N 0 0 0
0:00:00.00 403297 N 0 0 0
0:00:00.00 403641 N 0 0 0
0:00:00.00 404006 N 0 0 0
0:00:00.00 404361 N 0 0 0
0:00:00.00 404705 N 0 0 0
0:00:00.00 405054 N 0 0 0
0:00:00.00 405394 N 0 0 0
0:00:00.00 405733 N 0 0 0
0:00:00.00 406087 N 0 0 0
0:00:00.00 406445 N 0 0 0
0:00:00.00 406802 N 0 0 0
0:00:00.00 407138 N 0 0 0
0:00:00.00 407475 N 0 0 0
0:00:00.00 407812 N 0 0 0
0:00:00.00 408172 N 0 0 0
0:00:00.00 408532 N 0 0 0
0:00:00.00 408881 N 0 0 0
0:00:00.00 409225 N 0 0 0
0:00:00.00 409568 N 0 0 0
0:00:00.00 409905 N 0 0 0
0:00:00.00 410258 N 0 0 0
0:00:00.00 410618 N 0 0 0
0:00:00.00 410978 N 0 0 0
0:00:00.00 411323 N 0 0 0
0:00:00.00 411660 N 0 0 0
0:00:00.00 411993 N 0 0 0
0:00:00.00 412349 N 0 0 0
0:00:00.00 412720 N 0 0 0
0:00:00.00 413071 N 0 0 0
0:00:00.00 413422 N 0 0 0
0:00:00.00 413773 N 0 0 0
0:00:00.00 414110 N 0 0 0
0:00:00.00 414454 N 0 0 0
0:00:00.00 414814 N 0 0 0
0:00:00.00 415174 N 0 0 0
0:00:00.00 415525 N 0 0 0
0:00:00.00 415865 N 0 0 0
0:00:00.00 416203 N 0 0 0
0:00:00.00 416551 N 0 0 0
0:00:00.00 416916 N 0 0 0
0:00:00.00 417272 N 0 0 0
0:00:00.00 417620 N 0 0 0
0:00:00.00 417962 N 0 0 0
0:00:00.00 418307 N 0 0 0
0:00:00.00 418642 N 0 0 0
0:00:00.00 418997 N 0 0 0
0:00:00.00 419364 N 0 0 0
0:00:00.00 419711 N 0 0 0
0:00:00.00 420053 N 0 0 0
0:00:00.00 420397 N 0 0 0
0:00:00.00 420725 N 0 0 0
0:00:00.00 421096 N 0 0 0
0:00:00.00 421454 N 0 0 0
0:00:00.00 421799 N 0 0 0
0:00:00.00 422152 N 0 0 0
0:00:00.00 422491 N 0 0 0
0:00:00.00 422825 N 0 0 0
0:00:00.00 423173 N 0 0 0
0:00:00.00 423531 N 0 0 0
0:00:00.00 423889 N 0 0 0
0:00:00.00 424238 N 0 0 0
0:00:00.00 424577 N 0 0 0
0:00:00.00 424912 N 0 0 0
0:00:00.00 425268 N 0 0 0
0:00:00.00 425628 N 0 0 0
0:00:00.00 425977 N 0 0 0
0:00:00.00 426325 N 0 0 0
0:00:00.00 426665 N 0 0 0
0:00:00.00 427009 N 0 0 0
0:00:00.00 427347 N 0 0 0
0:00:00.00 427703 N 0 0 0
0:00:00.00 428072 N 0 0 0
0:00:00.00 428420 N 0 0 0
0:00:00.00 428762 N 0 0 0
0:00:00.00 429104 N 0 0 0
0:00:00.00 429442 N 0 0 0
0:00:00.00 429811 N 0 0 0
0:00:00.00 430168 N 0 0 0
0:00:00.00 430517 N 0 0 0
0:00:00.00 430870 N 0 0 0
0:00:00.00 431215 N 0 0 0
0:00:00.00 431548 N 0 0 0
0:00:00.00 431908 N 0 0 0
0:00:00.00 432277 N 0 0 0
0:00:00.00 432635 N 0 0 0
0:00:00.00 432986 N 0 0 0
0:00:00.00 433327 N 0 0 0
0:00:00.00 433672 N 0 0 0
0:00:00.00 434038 N 0 0 0
0:00:00.00 434396 N 0 0 0
0:00:00.00 434752 N 0 0 0
0:00:00.00 435103 N 0 0 0
0:00:00.00 435451 N 0 0 0
0:00:00.00 435784 N 0 0 0
0:00:00.00 436140 N 0 0 0
0:00:00.00 436513 N 0 0 0
0:00:00.00 436869 N 0 0 0
0:00:00.00 437218 N 0 0 0
0:00:00.00 437557 N 0 0 0
0:00:00.00 437891 N 0 0 0
0:00:00.00 438250 N 0 0 0
0:00:00.00 438608 N 0 0 0
0:00:00.00 438964 N 0 0 0
0:00:00.00 439315 N 0 0 0
0:00:00.00 439657 N 0 0 0
0:00:00.00 439997 N 0 0 0
0:00:00.00 440338 N 0 0 0
0:00:00.00 440703 N 0 0 0
0:00:00.00 441067 N 0 0 0
0:00:00.00 441416 N 0 0 0
0:00:00.00 441760 N 0 0 0
0:00:00.00 442100 N 0 0 0
0:00:00.00 442445 N 0 0 0
0:00:00.00 442802 N 0 0 0
0:00:00.00 443162 N 0 0 0
0:00:00.00 443513 N 0 0 0
0:00:00.00 443862 N 0 0 0
0:00:00.00 444204 N 0 0 0
0:00:00.00 444541 N 0 0 0
0:00:00.00 444908 N 0 0 0
0:00:00.00 445273 N 0 0 0
0:00:00.00 445626 N 0 0 0
0:00:00.00 445970 N 0 0 0
0:00:00.00 446310 N 0 0 0
0:00:00.00 446654 N 0 0 0
0:00:00.00 447016 N 0 0 0
0:00:00.00 447379 N 0 0 0
0:00:00.00 447736 N 0 0 0
0:00:00.00 448088 N 0 0 0
0:00:00.00 448436 N 0 0 0
0:00:00.00 448771 N 0 0 0
0:00:00.00 449132 N 0 0 0
0:00:00.00 449500 N 0 0 0
0:00:00.00 449856 N 0 0 0
0:00:00.00 450205 N 0 0 0
0:00:00.00 450545 N 0 0 0
0:00:00.00 450893 N 0 0 0
0:00:00.00 451247 N 0 0 0
0:00:00.00 451607 N 0 0 0
0:00:00.00 451962 N 0 0 0
0:00:00.00 452315 N 0 0 0
0:00:00.00 452664 N 0 0 0
0:00:00.00 452999 N 0 0 0
0:00:00.00 453350 N 0 0 0
0:00:00.00 453724 N 0 0 0
0:00:00.00 454081 N 0 0 0
0:00:00.00 454426 N 0 0 0
0:00:00.00 454766 N 0 0 0
0:00:00.00 455110 N 0 0 0
0:00:00.00 455456 N 0 0 0
0:00:00.00 455818 N 0 0 0
0:00:00.00 456174 N 0 0 0
0:00:00.00 456530 N 0 0 0
0:00:00.00 456876 N 0 0 0
0:00:00.00 457211 N 0 0 0
0:00:00.00 457551 N 0 0 0
0:00:00.00 457913 N 0 0 0
0:00:00.00 458275 N 0 0 0
0:00:00.00 458626 N 0 0 0
0:00:00.00 458964 N 0 0 0
0:00:00.00 459308 N 0 0 0
0:00:00.00 459648 N 0 0 0
0:00:00.00 460006 N 0 0 0
0:00:00.00 460364 N 0 0 0
0:00:00.00 460717 N 0 0 0
0:00:00.00 461070 N 0 0 0
0:00:00.00 461407 N 0 0 0
0:00:00.00 461740 N 0 0 0
0:00:00.00 462103 N 0 0 0
0:00:00.00 462463 N 0 0 0
0:00:00.00 462812 N 0 0 0
0:00:00.00 463153 N 0 0 0
0:00:00.00 463496 N 0 0 0
0:00:00.00 463835 N 0 0 0
0:00:00.00 464188 N 0 0 0
0:00:00.00 464551 N 0 0 0
0:00:00.00 464908 N 0 0 0
0:00:00.00 465262 N 0 0 0
0:00:00.00 465602 N 0 0 0
0:00:00.00 465934 N 0 0 0
0:00:00.00 466286 N 0 0 0
0:00:00.00 466654 N 0 0 0
0:00:00.00 467015 N 0 0 0
0:00:00.00 467365 N 0 0 0
0:00:00.00 467710 N 0 0 0
0:00:00.00 468059 N 0 0 0
0:00:00.00 468407 N 0 0 0
0:00:00.00 468772 N 0 0 0
0:00:00.00 469132 N 0 0 0
0:00:00.00 469489 N 0 0 0
0:00:00.00 469840 N 0 0 0
0:00:00.00 470182 N 0 0 0
0:00:00.00 470525 N 0 0 0
0:00:00.00 470898 N 0 0 0
0:00:00.00 471267 N 0 0 0
0:00:00.00 471613 N 0 0 0
0:00:00.00 471962 N 0 0 0
0:00:00.00 472311 N 0 0 0
0:00:00.00 472658 N 0 0 0
0:00:00.00 473020 N 0 0 0
0:00:00.00 473386 N 0 0 0
0:00:00.00 473747 N 0 0 0
0:00:00.00 474093 N 0 0 0
0:00:00.00 474433 N 0 0 0
0:00:00.00 474772 N 0 0 0
0:00:00.00 475132 N 0 0 0
0:00:00.00 475501 N 0 0 0
0:00:00.00 475848 N 0 0 0
0:00:00.00 476195 N 0 0 0
0:00:00.00 476546 N 0 0 0
0:00:00.00 476879 N 0 0 0
0:00:00.00 477239 N 0 0 0
0:00:00.00 477598 N 0 0 0
0:00:00.00 477952 N 0 0 0
0:00:00.00 478303 N 0 0 0
0:00:00.00 478643 N 0 0 0
0:00:00.00 478975 N 0 0 0
0:00:00.00 479340 N 0 0 0
0:00:00.00 479702 N 0 0 0
0:00:00.00 480053 N 0 0 0
0:00:00.00 480404 N 0 0 0
0:00:00.00 480749 N 0 0 0
0:00:00.00 481086 N 0 0 0
0:00:00.00 481444 N 0 0 0
0:00:00.00 481804 N 0 0 0
0:00:00.00 482171 N 0 0 0
0:00:00.00 482524 N 0 0 0
0:00:00.00 482864 N 0 0 0
0:00:00.00 483203 N 0 0 0
0:00:00.00 483557 N 0 0 0
0:00:00.00 483932 N 0 0 0
0:00:00.00 484290 N 0 0 0
0:00:00.00 484641 N 0 0 0
0:00:00.00 484999 N 0 0 0
0:00:00.00 485339 N 0 0 0
0:00:00.00 485687 N 0 0 0
0:00:00.00 486054 N 0 0 0
0:00:00.00 486418 N 0 0 0
0:00:00.00 486774 N 0 0 0
0:00:00.00 487120 N 0 0 0
0:00:00.00 487463 N 0 0 0
0:00:00.00 487816 N 0 0 0
0:00:00.00 488189 N 0 0 0
0:00:00.00 488549 N 0 0 0
0:00:00.00 488903 N 0 0 0
0:00:00.00 489256 N 0 0 0
0:00:00.00 489602 N 0 0 0
0:00:00.00 489947 N 0 0 0
0:00:00.00 490309 N 0 0 0
0:00:00.00 490682 N 0 0 0
0:00:00.00 491036 N 0 0 0
0:00:00.00 491382 N 0 0 0
0:00:00.00 491724 N 0 0 0
0:00:00.00 492068 N 0 0 0
0:00:00.00 492442 N 0 0 0
0:00:00.00 492800 N 0 0 0
0:00:00.00 493150 N 0 0 0
0:00:00.00 493504 N 0 0 0
0:00:00.00 493841 N 0 0 0
0:00:00.00 494177 N 0 0 0
0:00:00.00 494537 N 0 0 0
0:00:00.00 494897 N 0 0 0
0:00:00.00 495257 N 0 0 0
0:00:00.00 495599 N 0 0 0
0:00:00.00 495940 N 0 0 0
0:00:00.00 496283 N 0 0 0
0:00:00.00 496643 N 0 0 0
0:00:00.00 497005 N 0 0 0
0:00:00.00 497360 N 0 0 0
0:00:00.00 497705 N 0 0 0
0:00:00.00 498053 N 0 0 0
0:00:00.00 498389 N 0 0 0
0:00:00.00 498739 N 0 0 0
0:00:00.00 499111 N 0 0 0
0:00:00.00 499471 N 0 0 0
0:00:00.00 499820 N 0 0 0
0:00:00.00 500166 N 0 0 0
0:00:00.00 500501 N 0 0 0
0:00:00.00 500864 N 0 0 0
0:00:00.00 501233 N 0 0 0
0:00:00.00 501586 N 0 0 0
0:00:00.00 501943 N 0 0 0
0:00:00.00 502292 N 0 0 0
0:00:00.00 502628 N 0 0 0
0:00:00.00 502976 N 0 0 0
0:00:00.00 503343 N 0 0 0
0:00:00.00 503707 N 0 0 0
0:00:00.00 504059 N 0 0 0
0:00:00.00 504407 N 0 0 0
0:00:00.00 504751 N 0 0 0
0:00:00.00 505105 N 0 0 0
0:00:00.00 505471 N 0 0 0
0:00:00.00 505831 N 0 0 0
0:00:00.00 506187 N 0 0 0
0:00:00.00 506542 N 0 0 0
0:00:00.00 506889 N 0 0 0
0:00:00.00 507235 N 0 0 0
0:00:00.00 507613 N 0 0 0
0:00:00.00 507983 N 0 0 0
0:00:00.00 508338 N 0 0 0
0:00:00.00 508693 N 0 0 0
0:00:00.00 509035 N 0 0 0
0:00:00.00 509389 N 0 0 0
0:00:00.00 509764 N 0 0 0
0:00:00.00 510125 N 0 0 0
0:00:00.00 510484 N 0 0 0
0:00:00.00 510842 N 0 0 0
0:00:00.00 511186 N 0 0 0
0:00:00.00 511528 N 0 0 0
0:00:00.00 511897 N 0 0 0
0:00:00.00 512264 N 0 0 0
0:00:00.00 512618 N 0 0 0
0:00:00.00 512966 N 0 0 0
0:00:00.00 513308 N 0 0 0
0:00:00.00 513657 N 0 0 0
0:00:00.00 514019 N 0 0 0
0:00:00.00 514379 N 0 0 0
0:00:00.00 514732 N 0 0 0
0:00:00.00 515083 N 0 0 0
0:00:00.00 515426 N 0 0 0
0:00:00.00 515767 N 0 0 0
0:00:00.00 516134 N 0 0 0
0:00:00.00 516503 N 0 0 0
0:00:00.00 516856 N 0 0 0
0:00:00.00 517203 N 0 0 0
0:00:00.00 517543 N 0 0 0
0:00:00.00 517889 N 0 0 0
0:00:00.00 518249 N 0 0 0
0:00:00.00 518614 N 0 0 0
0:00:00.00 518972 N 0 0 0
0:00:00.00 519325 N 0 0 0
0:00:00.00 519671 N 0 0 0
0:00:00.00 520007 N 0 0 0
0:00:00.00 520367 N 0 0 0
0:00:00.00 520738 N 0 0 0
0:00:00.00 521098 N 0 0 0
0:00:00.00 521446 N 0 0 0
0:00:00.00 521791 N 0 0 0
0:00:00.00 522135 N 0 0 0
0:00:00.00 522491 N 0 0 0
0:00:00.00 522857 N 0 0 0
0:00:00.00 523215 N 0 0 0
0:00:00.00 523573 N 0 0 0
0:00:00.00 523922 N 0 0 0
0:00:00.00 524257 N 0 0 0
0:00:00.00 524623 N 0 0 0
0:00:00.00 524993 N 0 0 0
0:00:00.00 525348 N 0 0 0
0:00:00.00 525703 N 0 0 0
0:00:00.00 526046 N 0 0 0
0:00:00.00 526392 N 0 0 0
0:00:00.00 526750 N 0 0 0
0:00:00.00 527116 N 0 0 0
0:00:00.00 527481 N 0 0 0
0:00:00.00 527841 N 0 0 0
0:00:00.00 528188 N 0 0 0
0:00:00.00 528527 N 0 0 0
0:00:00.00 528885 N 0 0 0
0:00:00.00 529256 N 0 0 0
0:00:00.00 529616 N 0 0 0
0:00:00.00 529969 N 0 0 0
0:00:00.00 530309 N 0 0 0
0:00:00.00 530658 N 0 0 0
0:00:00.00 531002 N 0 0 0
0:00:00.00 531362 N 0 0 0
0:00:00.00 531725 N 0 0 0
0:00:00.00 532080 N 0 0 0
0:00:00.00 532429 N 0 0 0
0:00:00.00 532769 N 0 0 0
0:00:00.00 533115 N 0 0 0
0:00:00.00 533484 N 0 0 0
0:00:00.00 533848 N 0 0 0
0:00:00.00 534195 N 0 0 0
0:00:00.00 534542 N 0 0 0
0:00:00.00 534893 N 0 0 0
0:00:00.00 535235 N 0 0 0
0:00:00.00 535601 N 0 0 0
0:00:00.00 535970 N 0 0 0
0:00:00.00 536328 N 0 0 0
0:00:00.00 536681 N 0 0 0
0:00:00.00 537021 N 0 0 0
0:00:00.00 537361 N 0 0 0
0:00:00.00 537727 N 0 0 0
0:00:00.00 538096 N 0 0 0
0:00:00.00 538450 N 0 0 0
0:00:00.00 538798 N 0 0 0
0:00:00.00 539154 N 0 0 0
0:00:00.00 539492 N 0 0 0
0:00:00.00 539854 N 0 0 0
0:00:00.00 540221 N 0 0 0
0:00:00.00 540581 N 0 0 0
0:00:00.00 540940 N 0 0 0
0:00:00.00 541282 N 0 0 0
0:00:00.00 541622 N 0 0 0
0:00:00.00 541989 N 0 0 0
0:00:00.00 542358 N 0 0 0
0:00:00.00 542709 N 0 0 0
0:00:00.00 543060 N 0 0 0
0:00:00.00 543416 N 0 0 0
0:00:00.00 543758 N 0 0 0
0:00:00.00 544122 N 0 0 0
0:00:00.00 544491 N 0 0 0
0:00:00.00 544855 N 0 0 0
0:00:00.00 545207 N 0 0 0
0:00:00.00 545553 N 0 0 0
0:00:00.00 545895 N 0 0 0
0:00:00.00 546257 N 0 0 0
0:00:00.00 546637 N 0 0 0
0:00:00.00 546995 N 0 0 0
0:00:00.00 547349 N 0 0 0
0:00:00.00 547713 N 0 0 0
0:00:00.00 548055 N 0 0 0
0:00:00.00 548415 N 0 0 0
0:00:00.00 548795 N 0 0 0
0:00:00.00 549153 N 0 0 0
0:00:00.00 549511 N 0 0 0
0:00:00.00 549855 N 0 0 0
0:00:00.00 550204 N 0 0 0
0:00:00.00 550534 N 0 0 0
0:00:00.00 550924 N 0 0 0
0:00:00.00 551282 N 0 0 0
0:00:00.00 551662 N 0 0 0
0:00:00.00 551934 N 0 0 0
0:00:00.00 552384 N 0 0 0
0:00:00.00 552460 N 0 0 0
0:00:00.00 552620 N 0 0 0
0:00:00.00 553113 N 0 0 0
0:00:00.00 553378 N 0 0 0
0:00:00.00 553862 N 0 0 0
0:00:00.00 554098 N 0 0 0
0:00:00.00 554567 N 0 0 0
0:00:00.00 554819 N 0 0 0
0:00:00.00 554994 N 0 0 0
0:00:00.00 555192 N 0 0 0
0:00:00.00 555313 N 0 0 0
0:00:00.00 555433 N 0 0 0
0:00:00.00 555554 N 0 0 0
0:00:00.00 555665 N 0 0 0
0:00:00.00 555784 N 0 0 0
0:00:00.00 555907 N 0 0 0
0:00:00.00 555986 N 0 0 0
0:00:00.00 556061 N 0 0 0
0:00:00.00 556133 N 0 0 0
0:00:00.00 556205 N 0 0 0
0:00:00.00 556288 N 0 0 0
0:00:00.00 556364 N 0 0 0
0:00:00.00 556492 N 0 0 0
0:00:00.00 556803 N 0 0 0
0:00:00.00 556913 N 0 0 0
0:00:00.00 557032 N 0 0 0
0:00:00.00 557109 N 0 0 0
0:00:00.00 557185 N 0 0 0
0:00:00.00 557269 N 0 0 0
0:00:00.00 557381 N 0 0 0
0:00:00.00 557500 N 0 0 0
0:00:00.00 557575 N 0 0 0
0:00:00.00 557649 N 0 0 0
0:00:00.00 557726 N 0 0 0
0:00:00.00 557806 N 0 0 0
0:00:00.00 557878 N 0 0 0
0:00:00.00 557966 N 0 0 0
0:00:00.00 558038 N 0 0 0
0:00:00.00 558110 N 0 0 0
0:00:00.00 558513 N 0 0 0
0:00:00.00 558585 N 0 0 0
0:00:00.00 558684 N 0 0 0
0:00:00.00 558756 N 0 0 0
0:00:00.00 558833 N 0 0 0
0:00:00.00 558918 N 0 0 0
0:00:00.00 559044 N 0 0 0
0:00:00.00 559152 N 0 0 0
0:00:00.00 559251 N 0 0 0
0:00:00.00 559366 N 0 0 0
0:00:00.00 559456 N 0 0 0
0:00:00.00 559530 N 0 0 0
0:00:00.00 559602 N 0 0 0
0:00:00.00 559683 N 0 0 0
0:00:00.00 559755 N 0 0 0
0:00:00.00 559829 N 0 0 0
0:00:00.00 559903 N 0 0 0
0:00:00.00 559976 N 0 0 0
0:00:00.00 560048 N 0 0 0
0:00:00.00 560120 N 0 0 0
0:00:00.00 560192 N 0 0 0
0:00:00.00 560264 N 0 0 0
0:00:00.00 560349 N 0 0 0
0:00:00.00 560423 N 0 0 0
0:00:00.00 560498 N 0 0 0
0:00:00.00 560570 N 0 0 0
0:00:00.00 560648 N 0 0 0
0:00:00.00 560768 N 0 0 0
0:00:00.00 560866 N 0 0 0
0:00:00.00 561386 N 0 0 0
0:00:00.00 561841 N 0 0 0
0:00:00.00 561953 N 0 0 0
0:00:00.00 562030 N 0 0 0
0:00:00.00 562102 N 0 0 0
0:00:00.00 562178 N 0 0 0
0:00:00.00 562259 N 0 0 0
0:00:00.00 562336 N 0 0 0
0:00:00.00 562414 N 0 0 0
0:00:00.00 562489 N 0 0 0
0:00:00.00 562561 N 0 0 0
0:00:00.00 562671 N 0 0 0
0:00:00.00 562802 N 0 0 0
0:00:00.00 562874 N 0 0 0
0:00:00.00 562964 N 0 0 0
0:00:00.00 563062 N 0 0 0
0:00:00.00 563161 N 0 0 0
0:00:00.00 563267 N 0 0 0
0:00:00.00 563375 N 0 0 0
0:00:00.00 563472 N 0 0 0
0:00:00.00 563548 N 0 0 0
0:00:00.00 563623 N 0 0 0
0:00:00.00 563695 N 0 0 0
0:00:00.00 563776 N 0 0 0
0:00:00.00 563857 N 0 0 0
0:00:00.00 563931 N 0 0 0
0:00:00.00 564008 N 0 0 0
0:00:00.00 564147 N 0 0 0
0:00:00.00 564223 N 0 0 0
0:00:00.00 564305 N 0 0 0
0:00:00.00 564377 N 0 0 0
0:00:00.00 564449 N 0 0 0
0:00:00.00 564523 N 0 0 0
0:00:00.00 564595 N 0 0 0
0:00:00.00 564685 N 0 0 0
0:00:00.00 564757 N 0 0 0
0:00:00.00 564831 N 0 0 0
0:00:00.00 564910 N 0 0 0
0:00:00.00 565009 N 0 0 0
0:00:00.00 565101 N 0 0 0
0:00:00.00 565193 N 0 0 0
0:00:00.00 565319 N 0 0 0
0:00:00.00 565414 N 0 0 0
0:00:00.00 565486 N 0 0 0
0:00:00.00 565574 N 0 0 0
0:00:00.00 565690 N 0 0 0
0:00:00.00 565789 N 0 0 0
0:00:00.00 565895 N 0 0 0
0:00:00.00 566001 N 0 0 0
0:00:00.00 566104 N 0 0 0
0:00:00.00 566210 N 0 0 0
0:00:00.00 566312 N 0 0 0
0:00:00.00 566512 N 0 0 0
0:00:00.00 566600 N 0 0 0
0:00:00.00 566699 N 0 0 0
0:00:00.00 566771 N 0 0 0
0:00:00.00 566847 N 0 0 0
0:00:00.00 566928 N 0 0 0
0:00:00.00 567000 N 0 0 0
0:00:00.00 567079 N 0 0 0
0:00:00.00 567189 N 0 0 0
0:00:00.00 567263 N 0 0 0
0:00:00.00 567335 N 0 0 0
0:00:00.00 567416 N 0 0 0
0:00:00.00 567495 N 0 0 0
0:00:00.00 567592 N 0 0 0
0:00:00.00 567691 N 0 0 0
0:00:00.00 567778 N 0 0 0
0:00:00.00 567896 N 0 0 0
0:00:00.00 568008 N 0 0 0
0:00:00.00 568082 N 0 0 0
0:00:00.00 568157 N 0 0 0
0:00:00.00 568231 N 0 0 0
0:00:00.00 568312 N 0 0 0
0:00:00.00 568384 N 0 0 0
0:00:00.00 568458 N 0 0 0
0:00:00.00 568534 N 0 0 0
0:00:00.00 568640 N 0 0 0
0:00:00.00 568714 N 0 0 0
0:00:00.00 568818 N 0 0 0
0:00:00.00 568919 N 0 0 0
0:00:00.00 569002 N 0 0 0
0:00:00.00 569074 N 0 0 0
0:00:00.00 569167 N 0 0 0
0:00:00.00 569259 N 0 0 0
0:00:00.00 569351 N 0 0 0
0:00:00.00 569444 N 0 0 0
0:00:00.00 569542 N 0 0 0
0:00:00.00 569630 N 0 0 0
0:00:00.00 569723 N 0 0 0
0:00:00.00 569822 N 0 0 0
0:00:00.00 569918 N 0 0 0
0:00:00.00 570017 N 0 0 0
0:00:00.00 570118 N 0 0 0
0:00:00.00 570190 N 0 0 0
0:00:00.00 570263 N 0 0 0
0:00:00.00 570339 N 0 0 0
0:00:00.00 570415 N 0 0 0
0:00:00.00 570521 N 0 0 0
0:00:00.00 570620 N 0 0 0
0:00:00.00 570715 N 0 0 0
0:00:00.00 570809 N 0 0 0
0:00:00.00 570901 N 0 0 0
0:00:00.00 570996 N 0 0 0
0:00:00.00 571090 N 0 0 0
0:00:00.00 571183 N 0 0 0
0:00:00.00 571284 N 0 0 0
0:00:00.00 571374 N 0 0 0
0:00:00.00 571466 N 0 0 0
0:00:00.00 571655 N 0 0 0
0:00:00.00 571741 N 0 0 0
0:00:00.00 571815 N 0 0 0
0:00:00.00 571923 N 0 0 0
0:00:00.00 571997 N 0 0 0
0:00:00.00 572074 N 0 0 0
0:00:00.00 572152 N 0 0 0
0:00:00.00 572236 N 0 0 0
0:00:00.00 572339 N 0 0 0
0:00:00.00 572441 N 0 0 0
0:00:00.00 572539 N 0 0 0
0:00:00.00 572620 N 0 0 0
0:00:00.00 572731 N 0 0 0
0:00:00.00 572828 N 0 0 0
0:00:00.00 572931 N 0 0 0
0:00:00.00 573030 N 0 0 0
0:00:00.00 573131 N 0 0 0
0:00:00.00 573210 N 0 0 0
0:00:00.00 573282 N 0 0 0
0:00:00.00 573359 N 0 0 0
0:00:00.00 573449 N 0 0 0
0:00:00.00 573534 N 0 0 0
0:00:00.00 573619 N 0 0 0
0:00:00.00 573831 N 0 0 0
0:00:00.00 573914 N 0 0 0
0:00:00.00 574009 N 0 0 0
0:00:00.00 574106 N 0 0 0
0:00:00.00 574180 N 0 0 0
0:00:00.00 574385 N 0 0 0
0:00:00.00 574562 N 0 0 0
0:00:00.00 574668 N 0 0 0
0:00:00.00 574740 N 0 0 0
0:00:00.00 574821 N 0 0 0
0:00:00.00 574893 N 0 0 0
0:00:00.00 574965 N 0 0 0
0:00:00.00 575062 N 0 0 0
0:00:00.00 575159 N 0 0 0
0:00:00.00 575262 N 0 0 0
0:00:00.00 575334 N 0 0 0
0:00:00.00 575410 N 0 0 0
0:00:00.00 575485 N 0 0 0
0:00:00.00 575586 N 0 0 0
0:00:00.00 575663 N 0 0 0
0:00:00.00 575840 N 0 0 0
0:00:00.00 575955 N 0 0 0
0:00:00.00 576054 N 0 0 0
0:00:00.00 576140 N 0 0 0
0:00:00.00 576216 N 0 0 0
0:00:00.00 576338 N 0 0 0
0:00:00.00 576414 N 0 0 0
0:00:00.00 576500 N 0 0 0
0:00:00.00 576603 N 0 0 0
0:00:00.00 576700 N 0 0 0
0:00:00.00 576774 N 0 0 0
0:00:00.00 576846 N 0 0 0
0:00:00.00 576918 N 0 0 0
0:00:00.00 577003 N 0 0 0
0:00:00.00 577116 N 0 0 0
0:00:00.00 577289 N 0 0 0
0:00:00.00 577366 N 0 0 0
0:00:00.00 577442 N 0 0 0
0:00:00.00 577525 N 0 0 0
0:00:00.00 577602 N 0 0 0
0:00:00.00 577679 N 0 0 0
0:00:00.00 577778 N 0 0 0
0:00:00.00 577854 N 0 0 0
0:00:00.00 577928 N 0 0 0
0:00:00.00 578014 N 0 0 0
0:00:00.00 578090 N 0 0 0
0:00:00.00 578167 N 0 0 0
0:00:00.00 578246 N 0 0 0
0:00:00.00 578362 N 0 0 0
0:00:00.00 578484 N 0 0 0
0:00:00.00 578561 N 0 0 0
0:00:00.00 578759 N 0 0 0
0:00:00.00 578851 N 0 0 0
0:00:00.00 578923 N 0 0 0
0:00:00.00 578997 N 0 0 0
0:00:00.00 579069 N 0 0 0
0:00:00.00 579157 N 0 0 0
0:00:00.00 579233 N 0 0 0
0:00:00.00 579307 N 0 0 0
0:00:00.00 579379 N 0 0 0
0:00:00.00 579451 N 0 0 0
0:00:00.00 579548 N 0 0 0
0:00:00.00 579645 N 0 0 0
0:00:00.00 579740 N 0 0 0
0:00:00.00 579965 N 0 0 0
0:00:00.00 580043 N 0 0 0
0:00:00.00 580117 N 0 0 0
0:00:00.00 580307 N 0 0 0
0:00:00.00 580421 N 0 0 0
0:00:00.00 580646 N 0 0 0
0:00:00.00 580804 N 0 0 0
0:00:00.00 580878 N 0 0 0
0:00:00.00 580955 N 0 0 0
0:00:00.00 581035 N 0 0 0
0:00:00.00 581114 N 0 0 0
0:00:00.00 581188 N 0 0 0
0:00:00.00 581292 N 0 0 0
0:00:00.00 581369 N 0 0 0
0:00:00.00 581483 N 0 0 0
0:00:00.00 581567 N 0 0 0
0:00:00.00 581648 N 0 0 0
0:00:00.00 581724 N 0 0 0
0:00:00.00 581800 N 0 0 0
0:00:00.00 581873 N 0 0 0
0:00:00.00 581945 N 0 0 0
0:00:00.00 582017 N 0 0 0
0:00:00.00 582089 N 0 0 0
0:00:00.00 582178 N 0 0 0
0:00:00.00 582269 N 0 0 0
0:00:00.00 582359 N 0 0 0
0:00:00.00 582455 N 0 0 0
0:00:00.00 582543 N 0 0 0
0:00:00.00 582637 N 0 0 0
0:00:00.00 582730 N 0 0 0
0:00:00.00 582824 N 0 0 0
0:00:00.00 582921 N 0 0 0
0:00:00.00 583024 N 0 0 0
0:00:00.00 583112 N 0 0 0
0:00:00.00 583187 N 0 0 0
0:00:00.00 583259 N 0 0 0
0:00:00.00 583333 N 0 0 0
0:00:00.00 583412 N 0 0 0
0:00:00.00 583506 N 0 0 0
0:00:00.00 583600 N 0 0 0
0:00:00.00 583695 N 0 0 0
0:00:00.00 583794 N 0 0 0
0:00:00.00 583870 N 0 0 0
0:00:00.00 583976 N 0 0 0
0:00:00.00 584057 N 0 0 0
0:00:00.00 584129 N 0 0 0
0:00:00.00 584296 N 0 0 0
0:00:00.00 584393 N 0 0 0
0:00:00.00 584492 N 0 0 0
0:00:00.00 584586 N 0 0 0
0:00:00.00 584662 N 0 0 0
0:00:00.00 584777 N 0 0 0
0:00:00.00 584879 N 0 0 0
0:00:00.00 584980 N 0 0 0
0:00:00.00 585094 N 0 0 0
0:00:00.00 585176 N 0 0 0
0:00:00.00 585248 N 0 0 0
0:00:00.00 585322 N 0 0 0
0:00:00.00 585394 N 0 0 0
0:00:00.00 585475 N 0 0 0
0:00:00.00 585556 N 0 0 0
0:00:00.00 585634 N 0 0 0
0:00:00.00 585707 N 0 0 0
0:00:00.00 585785 N 0 0 0
0:00:00.00 585869 N 0 0 0
0:00:00.00 585952 N 0 0 0
0:00:00.00 586084 N 0 0 0
0:00:00.00 586202 N 0 0 0
0:00:00.00 586274 N 0 0 0
0:00:00.00 586346 N 0 0 0
0:00:00.00 586449 N 0 0 0
0:00:00.00 586546 N 0 0 0
0:00:00.00 586643 N 0 0 0
0:00:00.00 586717 N 0 0 0
0:00:00.00 586795 N 0 0 0
0:00:00.00 586872 N 0 0 0
0:00:00.00 586971 N 0 0 0
0:00:00.00 587396 N 0 0 0
0:00:00.00 587479 N 0 0 0
0:00:00.00 587725 N 0 0 0
0:00:00.00 587806 N 0 0 0
0:00:00.00 587893 N 0 0 0
0:00:00.00 587988 N 0 0 0
0:00:00.00 588091 N 0 0 0
0:00:00.00 588163 N 0 0 0
0:00:00.00 588235 N 0 0 0
0:00:00.00 588310 N 0 0 0
0:00:00.00 588422 N 0 0 0
0:00:00.00 588528 N 0 0 0
0:00:00.00 588627 N 0 0 0
0:00:00.00 588780 N 0 0 0
0:00:00.00 588926 N 0 0 0
0:00:00.00 589064 N 0 0 0
0:00:00.00 589300 N 0 0 0
0:00:00.00 589419 N 0 0 0
0:00:00.00 589556 N 0 0 0
0:00:00.00 589687 N 0 0 0
0:00:00.00 590575 N 0 0 0
0:00:00.00 590647 N 0 0 0
0:00:00.00 590881 N 0 0 0
0:00:00.00 590953 N 0 0 0
0:00:00.00 591026 N 0 0 0
0:00:00.00 591098 N 0 0 0
0:00:00.00 591408 N 0 0 0
0:00:00.00 591480 N 0 0 0
0:00:00.00 591781 N 0 0 0
0:00:00.00 592265 N 0 0 0
0:00:00.00 592846 N 0 0 0
0:00:00.00 593287 N 0 0 0
0:00:00.00 593707 N 0 0 0
0:00:00.00 594142 N 0 0 0
0:00:00.00 594558 N 0 0 0
0:00:00.00 594967 N 0 0 0
0:00:00.00 595363 N 0 0 0
0:00:00.00 595775 N 0 0 0
0:00:00.00 596203 N 0 0 0
0:00:00.00 596608 N 0 0 0
0:00:00.00 597015 N 0 0 0
0:00:00.00 597409 N 0 0 0
0:00:00.00 597803 N 0 0 0
0:00:00.00 598217 N 0 0 0
0:00:00.00 598644 N 0 0 0
0:00:00.00 599056 N 0 0 0
0:00:00.00 599454 N 0 0 0
0:00:00.00 599839 N 0 0 0
0:00:00.00 600250 N 0 0 0
0:00:00.00 600669 N 0 0 0
0:00:00.00 601067 N 0 0 0
0:00:00.00 601459 N 0 0 0
0:00:00.00 601837 N 0 0 0
0:00:00.00 602208 N 0 0 0
0:00:00.00 602599 N 0 0 0
0:00:00.00 602982 N 0 0 0
0:00:00.00 603356 N 0 0 0
0:00:00.00 603711 N 0 0 0
0:00:00.00 604051 N 0 0 0
0:00:00.00 604404 N 0 0 0
0:00:00.00 604764 N 0 0 0
0:00:00.00 605113 N 0 0 0
0:00:00.00 605459 N 0 0 0
0:00:00.00 605794 N 0 0 0
0:00:00.00 606130 N 0 0 0
0:00:00.00 606452 N 0 0 0
0:00:00.00 606793 N 0 0 0
0:00:00.00 607142 N 0 0 0
0:00:00.00 607469 N 0 0 0
0:00:00.00 607790 N 0 0 0
0:00:00.00 608099 N 0 0 0
0:00:00.00 608404 N 0 0 0
0:00:00.00 608720 N 0 0 0
0:00:00.00 609053 N 0 0 0
0:00:00.00 609376 N 0 0 0
0:00:00.00 609687 N 0 0 0
0:00:00.00 610000 N 0 0 0
0:00:00.00 610312 N 0 0 0
0:00:00.00 610607 N 0 0 0
0:00:00.00 610913 N 0 0 0
0:00:00.00 611235 N 0 0 0
0:00:00.00 611555 N 0 0 0
0:00:00.00 611870 N 0 0 0
0:00:00.00 612176 N 0 0 0
0:00:00.00 612472 N 0 0 0
0:00:00.00 613021 N 0 0 0
0:00:00.00 613429 N 0 0 0
0:00:00.00 613753 N 0 0 0
0:00:00.00 614300 N 0 0 0
0:00:00.00 614734 N 0 0 0
0:00:00.00 615033 N 0 0 0
0:00:00.00 615373 N 0 0 0
0:00:00.00 615735 N 0 0 0
0:00:00.00 616075 N 0 0 0
0:00:00.00 616414 N 0 0 0
0:00:00.00 616747 N 0 0 0
0:00:00.00 617072 N 0 0 0
0:00:00.00 617432 N 0 0 0
0:00:00.00 617774 N 0 0 0
0:00:00.00 618122 N 0 0 0
0:00:00.00 618473 N 0 0 0
0:00:00.00 618827 N 0 0 0
0:00:00.00 619178 N 0 0 0
0:00:00.00 619544 N 0 0 0
0:00:00.00 619920 N 0 0 0
0:00:00.00 620298 N 0 0 0
0:00:00.00 620672 N 0 0 0
0:00:00.00 621025 N 0 0 0
0:00:00.00 621391 N 0 0 0
0:00:00.00 621763 N 0 0 0
0:00:00.00 622154 N 0 0 0
0:00:00.00 622525 N 0 0 0
0:00:00.00 622890 N 0 0 0
0:00:00.00 623259 N 0 0 0
0:00:00.00 623599 N 0 0 0
0:00:00.00 623930 N 0 0 0
0:00:00.00 624004 N 0 0 0
0:00:00.00 624326 N 0 0 0
0:00:00.00 624701 N 0 0 0
0:00:00.00 625054 N 0 0 0
0:00:00.00 625396 N 0 0 0
0:00:00.00 625723 N 0 0 0
0:00:00.00 626076 N 0 0 0
0:00:00.00 626423 N 0 0 0
0:00:00.00 626758 N 0 0 0
0:00:00.00 627095 N 0 0 0
0:00:00.00 627428 N 0 0 0
0:00:00.00 627737 N 0 0 0
0:00:00.00 628045 N 0 0 0
0:00:00.00 628373 N 0 0 0
0:00:00.00 628709 N 0 0 0
0:00:00.00 629035 N 0 0 0
0:00:00.00 629356 N 0 0 0
0:00:00.00 629608 N 0 0 0
0:00:00.00 629923 N 0 0 0
0:00:00.00 630148 N 0 0 0
0:00:00.00 630463 N 0 0 0
0:00:00.00 630697 N 0 0 0
0:00:00.00 630900 N 0 0 0
0:00:00.00 631183 N 0 0 0
0:00:00.00 631409 N 0 0 0
0:00:00.00 631598 N 0 0 0
0:00:00.00 631780 N 0 0 0
0:00:00.00 631949 N 0 0 0
0:00:00.00 632117 N 0 0 0
0:00:00.00 632279 N 0 0 0
0:00:00.00 632450 N 0 0 0
0:00:00.00 632626 N 0 0 0
0:00:00.00 632808 N 0 0 0
0:00:00.00 632986 N 0 0 0
0:00:00.00 633161 N 0 0 0
0:00:00.00 633335 N 0 0 0
0:00:00.00 633508 N 0 0 0
0:00:00.00 633679 N 0 0 0
0:00:00.00 633848 N 0 0 0
0:00:00.00 634019 N 0 0 0
0:00:00.00 634192 N 0 0 0
0:00:00.00 634365 N 0 0 0
0:00:00.00 634549 N 0 0 0
0:00:00.00 634730 N 0 0 0
0:00:00.00 634918 N 0 0 0
0:00:00.00 635103 N 0 0 0
0:00:00.00 635283 N 0 0 0
0:00:00.00 635467 N 0 0 0
0:00:00.00 635656 N 0 0 0
0:00:00.00 635837 N 0 0 0
0:00:00.00 636010 N 0 0 0
0:00:00.00 636181 N 0 0 0
0:00:00.00 636349 N 0 0 0
0:00:00.00 636516 N 0 0 0
0:00:00.00 636700 N 0 0 0
0:00:00.00 636885 N 0 0 0
0:00:00.00 637074 N 0 0 0
0:00:00.00 637254 N 0 0 0
0:00:00.00 637441 N 0 0 0
0:00:00.00 637618 N 0 0 0
0:00:00.00 637801 N 0 0 0
0:00:00.00 637979 N 0 0 0
0:00:00.00 638152 N 0 0 0
0:00:00.00 638329 N 0 0 0
0:00:00.00 638501 N 0 0 0
0:00:00.00 638663 N 0 0 0
0:00:00.00 638840 N 0 0 0
0:00:00.00 639022 N 0 0 0
0:00:00.00 639218 N 0 0 0
0:00:00.00 639403 N 0 0 0
0:00:00.00 639580 N 0 0 0
0:00:00.00 639752 N 0 0 0
0:00:00.00 639936 N 0 0 0
0:00:00.00 640111 N 0 0 0
0:00:00.00 640300 N 0 0 0
0:00:00.00 640465 N 0 0 0
0:00:00.00 640636 N 0 0 0
0:00:00.00 640804 N 0 0 0
0:00:00.00 640975 N 0 0 0
0:00:00.00 641156 N 0 0 0
0:00:00.00 641354 N 0 0 0
0:00:00.00 641536 N 0 0 0
0:00:00.00 641718 N 0 0 0
0:00:00.00 641896 N 0 0 0
0:00:00.00 642076 N 0 0 0
0:00:00.00 642245 N 0 0 0
0:00:00.00 642422 N 0 0 0
0:00:00.00 642596 N 0 0 0
0:00:00.00 642776 N 0 0 0
0:00:00.00 642951 N 0 0 0
0:00:00.00 643124 N 0 0 0
0:00:00.00 643297 N 0 0 0
0:00:00.00 643484 N 0 0 0
0:00:00.00 643667 N 0 0 0
0:00:00.00 643849 N 0 0 0
0:00:00.00 644033 N 0 0 0
0:00:00.00 644213 N 0 0 0
0:00:00.00 644391 N 0 0 0
0:00:00.00 644569 N 0 0 0
0:00:00.00 644738 N 0 0 0
0:00:00.00 644913 N 0 0 0
0:00:00.00 645084 N 0 0 0
0:00:00.00 645262 N 0 0 0
0:00:00.00 645435 N 0 0 0
0:00:00.00 645622 N 0 0 0
0:00:00.00 645806 N 0 0 0
0:00:00.00 645998 N 0 0 0
0:00:00.00 646180 N 0 0 0
0:00:00.00 646366 N 0 0 0
0:00:00.00 646533 N 0 0 0
0:00:00.00 646713 N 0 0 0
0:00:00.00 646897 N 0 0 0
0:00:00.00 647082 N 0 0 0
0:00:00.00 647246 N 0 0 0
0:00:00.00 647422 N 0 0 0
0:00:00.00 647606 N 0 0 0
0:00:00.00 647797 N 0 0 0
0:00:00.00 647978 N 0 0 0
0:00:00.00 648157 N 0 0 0
0:00:00.00 648346 N 0 0 0
0:00:00.00 648536 N 0 0 0
0:00:00.00 648718 N 0 0 0
0:00:00.00 648889 N 0 0 0
0:00:00.00 649071 N 0 0 0
0:00:00.00 649253 N 0 0 0
0:00:00.00 649420 N 0 0 0
0:00:00.00 649591 N 0 0 0
0:00:00.00 649789 N 0 0 0
