0:00:00.00 9 N 0 0 0
0:00:00.00 486 N 0 0 0
0:00:00.00 698 N 0 0 0
0:00:00.00 871 N 0 0 0
0:00:00.00 1183 N 0 0 0
0:00:00.00 1863 N 0 0 0
0:00:00.00 2077 N 0 0 0
0:00:00.00 2264 N 0 0 0
0:00:00.00 2540 N 0 0 0
0:00:00.00 2765 N 0 0 0
0:00:00.00 2948 N 0 0 0
0:00:00.00 3202 N 0 0 0
0:00:00.00 3434 N 0 0 0
0:00:00.00 3623 N 0 0 0
0:00:00.00 3866 N 0 0 0
0:00:00.00 4099 N 0 0 0
0:00:00.00 4567 N 0 0 0
0:00:00.00 4768 N 0 0 0
0:00:00.00 4964 N 0 0 0
0:00:00.00 5197 N 0 0 0
0:00:00.00 5416 N 0 0 0
0:00:00.00 5900 N 0 0 0
0:00:00.00 6325 N 0 0 0
0:00:00.00 6579 N 0 0 0
0:00:00.00 6777 N 0 0 0
0:00:00.00 7169 N 0 0 0
0:00:00.00 7349 N 0 0 0
0:00:00.00 7551 N 0 0 0
0:00:00.00 7753 N 0 0 0
0:00:00.00 7951 N 0 0 0
0:00:00.00 8149 N 0 0 0
0:00:00.00 8530 N 0 0 0
0:00:00.00 8728 N 0 0 0
0:00:00.00 8923 N 0 0 0
0:00:00.00 9297 N 0 0 0
0:00:00.00 9473 N 0 0 0
0:00:00.00 9652 N 0 0 0
0:00:00.00 10037 N 0 0 0
0:00:00.00 10233 N 0 0 0
0:00:00.00 10424 N 0 0 0
0:00:00.00 10607 N 0 0 0
0:00:00.00 10791 N 0 0 0
0:00:00.00 10975 N 0 0 0
0:00:00.00 11156 N 0 0 0
0:00:00.00 11529 N 0 0 0
0:00:00.00 11700 N 0 0 0
0:00:00.00 11891 N 0 0 0
0:00:00.00 12276 N 0 0 0
0:00:00.00 12474 N 0 0 0
0:00:00.00 12683 N 0 0 0
0:00:00.00 12897 N 0 0 0
0:00:00.00 13100 N 0 0 0
0:00:00.00 13295 N 0 0 0
0:00:00.00 13487 N 0 0 0
0:00:00.00 13673 N 0 0 0
0:00:00.00 13853 N 0 0 0
0:00:00.00 14049 N 0 0 0
0:00:00.00 14251 N 0 0 0
0:00:00.00 14450 N 0 0 0
0:00:00.00 14846 N 0 0 0
0:00:00.00 15037 N 0 0 0
0:00:00.00 15237 N 0 0 0
0:00:00.00 15433 N 0 0 0
0:00:00.00 15629 N 0 0 0
0:00:00.00 15835 N 0 0 0
0:00:00.00 16034 N 0 0 0
0:00:00.00 16243 N 0 0 0
0:00:00.00 16679 N 0 0 0
0:00:00.00 16902 N 0 0 0
0:00:00.00 17314 N 0 0 0
0:00:00.00 17518 N 0 0 0
0:00:00.00 17717 N 0 0 0
0:00:00.00 17919 N 0 0 0
0:00:00.00 18110 N 0 0 0
0:00:00.00 18308 N 0 0 0
0:00:00.00 18522 N 0 0 0
0:00:00.00 18729 N 0 0 0
0:00:00.00 18934 N 0 0 0
0:00:00.00 19334 N 0 0 0
0:00:00.00 19541 N 0 0 0
0:00:00.00 19730 N 0 0 0
0:00:00.00 19921 N 0 0 0
0:00:00.00 20106 N 0 0 0
0:00:00.00 20291 N 0 0 0
0:00:00.00 20723 N 0 0 0
0:00:00.00 20932 N 0 0 0
0:00:00.00 21361 N 0 0 0
0:00:00.00 21562 N 0 0 0
0:00:00.00 21951 N 0 0 0
0:00:00.00 22151 N 0 0 0
0:00:00.00 22342 N 0 0 0
0:00:00.00 22739 N 0 0 0
0:00:00.00 22946 N 0 0 0
0:00:00.00 23386 N 0 0 0
0:00:00.00 23593 N 0 0 0
0:00:00.00 24005 N 0 0 0
0:00:00.00 24206 N 0 0 0
0:00:00.00 24413 N 0 0 0
0:00:00.00 24581 N 0 0 0
0:00:00.00 24836 N 0 0 0
0:00:00.00 25070 N 0 0 0
0:00:00.00 25254 N 0 0 0
0:00:00.00 25515 N 0 0 0
0:00:00.00 25718 N 0 0 0
0:00:00.00 26123 N 0 0 0
0:00:00.00 26323 N 0 0 0
0:00:00.00 26725 N 0 0 0
0:00:00.00 26917 N 0 0 0
0:00:00.00 27400 N 0 0 0
0:00:00.00 27634 N 0 0 0
0:00:00.00 27862 N 0 0 0
0:00:00.00 28033 N 0 0 0
0:00:00.00 28316 N 0 0 0
0:00:00.00 28535 N 0 0 0
0:00:00.00 28966 N 0 0 0
0:00:00.00 29174 N 0 0 0
0:00:00.00 29579 N 0 0 0
0:00:00.00 29781 N 0 0 0
0:00:00.00 29984 N 0 0 0
0:00:00.00 30191 N 0 0 0
0:00:00.00 30402 N 0 0 0
0:00:00.00 30629 N 0 0 0
0:00:00.00 31066 N 0 0 0
0:00:00.00 31469 N 0 0 0
0:00:00.00 31703 N 0 0 0
0:00:00.00 31916 N 0 0 0
0:00:00.00 32319 N 0 0 0
0:00:00.00 32519 N 0 0 0
0:00:00.00 32722 N 0 0 0
0:00:00.00 32927 N 0 0 0
0:00:00.00 33133 N 0 0 0
0:00:00.00 33320 N 0 0 0
0:00:00.00 33523 N 0 0 0
0:00:00.00 33739 N 0 0 0
0:00:00.00 33961 N 0 0 0
0:00:00.00 34407 N 0 0 0
0:00:00.00 34614 N 0 0 0
0:00:00.00 35023 N 0 0 0
0:00:00.00 35224 N 0 0 0
0:00:00.00 35633 N 0 0 0
0:00:00.00 35843 N 0 0 0
0:00:00.00 36043 N 0 0 0
0:00:00.00 36248 N 0 0 0
0:00:00.00 36454 N 0 0 0
0:00:00.00 36652 N 0 0 0
0:00:00.00 37046 N 0 0 0
0:00:00.00 37240 N 0 0 0
0:00:00.00 37433 N 0 0 0
0:00:00.00 37613 N 0 0 0
0:00:00.00 37811 N 0 0 0
0:00:00.00 38041 N 0 0 0
0:00:00.00 38536 N 0 0 0
0:00:00.00 38921 N 0 0 0
0:00:00.00 39188 N 0 0 0
0:00:00.00 39384 N 0 0 0
0:00:00.00 39793 N 0 0 0
0:00:00.00 40007 N 0 0 0
0:00:00.00 40513 N 0 0 0
0:00:00.00 40754 N 0 0 0
0:00:00.00 41238 N 0 0 0
0:00:00.00 41620 N 0 0 0
0:00:00.00 41904 N 0 0 0
0:00:00.00 42111 N 0 0 0
0:00:00.00 42305 N 0 0 0
0:00:00.00 42572 N 0 0 0
0:00:00.00 42786 N 0 0 0
0:00:00.00 43247 N 0 0 0
0:00:00.00 43461 N 0 0 0
0:00:00.00 43641 N 0 0 0
0:00:00.00 43909 N 0 0 0
0:00:00.00 44104 N 0 0 0
0:00:00.00 44280 N 0 0 0
0:00:00.00 44541 N 0 0 0
0:00:00.00 44759 N 0 0 0
0:00:00.00 45229 N 0 0 0
0:00:00.00 45434 N 0 0 0
0:00:00.00 45617 N 0 0 0
0:00:00.00 45857 N 0 0 0
0:00:00.00 46067 N 0 0 0
0:00:00.00 46490 N 0 0 0
0:00:00.00 46703 N 0 0 0
0:00:00.00 47149 N 0 0 0
0:00:00.00 47349 N 0 0 0
0:00:00.00 47770 N 0 0 0
0:00:00.00 47974 N 0 0 0
0:00:00.00 48373 N 0 0 0
0:00:00.00 48580 N 0 0 0
0:00:00.00 49023 N 0 0 0
0:00:00.00 49241 N 0 0 0
0:00:00.00 49657 N 0 0 0
0:00:00.00 49865 N 0 0 0
0:00:00.00 50324 N 0 0 0
0:00:00.00 50535 N 0 0 0
0:00:00.00 51010 N 0 0 0
0:00:00.00 51422 N 0 0 0
0:00:00.00 51710 N 0 0 0
0:00:00.00 51923 N 0 0 0
0:00:00.00 52103 N 0 0 0
0:00:00.00 52333 N 0 0 0
0:00:00.00 52544 N 0 0 0
0:00:00.00 52979 N 0 0 0
0:00:00.00 53203 N 0 0 0
0:00:00.00 53393 N 0 0 0
0:00:00.00 53638 N 0 0 0
0:00:00.00 53838 N 0 0 0
0:00:00.00 54261 N 0 0 0
0:00:00.00 54464 N 0 0 0
0:00:00.00 54864 N 0 0 0
0:00:00.00 55085 N 0 0 0
0:00:00.00 55571 N 0 0 0
0:00:00.00 55805 N 0 0 0
0:00:00.00 56268 N 0 0 0
0:00:00.00 56657 N 0 0 0
0:00:00.00 56934 N 0 0 0
0:00:00.00 57132 N 0 0 0
0:00:00.00 57319 N 0 0 0
0:00:00.00 57555 N 0 0 0
0:00:00.00 57773 N 0 0 0
0:00:00.00 58232 N 0 0 0
0:00:00.00 58451 N 0 0 0
0:00:00.00 58878 N 0 0 0
0:00:00.00 59078 N 0 0 0
0:00:00.00 59506 N 0 0 0
0:00:00.00 59715 N 0 0 0
0:00:00.00 60151 N 0 0 0
0:00:00.00 60352 N 0 0 0
0:00:00.00 60766 N 0 0 0
0:00:00.00 60973 N 0 0 0
0:00:00.00 61405 N 0 0 0
0:00:00.00 61621 N 0 0 0
0:00:00.00 62100 N 0 0 0
0:00:00.00 62323 N 0 0 0
0:00:00.00 62752 N 0 0 0
0:00:00.00 62955 N 0 0 0
0:00:00.00 63365 N 0 0 0
0:00:00.00 63562 N 0 0 0
0:00:00.00 63981 N 0 0 0
0:00:00.00 64193 N 0 0 0
0:00:00.00 64404 N 0 0 0
0:00:00.00 64856 N 0 0 0
0:00:00.00 65059 N 0 0 0
0:00:00.00 65452 N 0 0 0
0:00:00.00 65633 N 0 0 0
0:00:00.00 65826 N 0 0 0
0:00:00.00 66020 N 0 0 0
0:00:00.00 66220 N 0 0 0
0:00:00.00 66418 N 0 0 0
0:00:00.00 66794 N 0 0 0
0:00:00.00 66978 N 0 0 0
0:00:00.00 67171 N 0 0 0
0:00:00.00 67561 N 0 0 0
0:00:00.00 67748 N 0 0 0
0:00:00.00 67932 N 0 0 0
0:00:00.00 68135 N 0 0 0
0:00:00.00 68342 N 0 0 0
0:00:00.00 68558 N 0 0 0
0:00:00.00 68981 N 0 0 0
0:00:00.00 69192 N 0 0 0
0:00:00.00 69619 N 0 0 0
0:00:00.00 69817 N 0 0 0
0:00:00.00 70231 N 0 0 0
0:00:00.00 70447 N 0 0 0
0:00:00.00 70884 N 0 0 0
0:00:00.00 71089 N 0 0 0
0:00:00.00 71512 N 0 0 0
0:00:00.00 71716 N 0 0 0
0:00:00.00 72126 N 0 0 0
0:00:00.00 72324 N 0 0 0
0:00:00.00 72756 N 0 0 0
0:00:00.00 72970 N 0 0 0
0:00:00.00 73377 N 0 0 0
0:00:00.00 73580 N 0 0 0
0:00:00.00 73994 N 0 0 0
0:00:00.00 74196 N 0 0 0
0:00:00.00 74601 N 0 0 0
0:00:00.00 74806 N 0 0 0
0:00:00.00 74992 N 0 0 0
0:00:00.00 75200 N 0 0 0
0:00:00.00 75631 N 0 0 0
0:00:00.00 75820 N 0 0 0
0:00:00.00 76012 N 0 0 0
0:00:00.00 76207 N 0 0 0
0:00:00.00 76403 N 0 0 0
0:00:00.00 76570 N 0 0 0
0:00:00.00 76795 N 0 0 0
0:00:00.00 77243 N 0 0 0
0:00:00.00 77452 N 0 0 0
0:00:00.00 77872 N 0 0 0
0:00:00.00 78075 N 0 0 0
0:00:00.00 78466 N 0 0 0
0:00:00.00 78647 N 0 0 0
0:00:00.00 78842 N 0 0 0
0:00:00.00 79043 N 0 0 0
0:00:00.00 79265 N 0 0 0
0:00:00.00 79501 N 0 0 0
0:00:00.00 79934 N 0 0 0
0:00:00.00 80134 N 0 0 0
0:00:00.00 80527 N 0 0 0
0:00:00.00 80725 N 0 0 0
0:00:00.00 80914 N 0 0 0
0:00:00.00 81108 N 0 0 0
0:00:00.00 81311 N 0 0 0
0:00:00.00 81511 N 0 0 0
0:00:00.00 81896 N 0 0 0
0:00:00.00 82080 N 0 0 0
0:00:00.00 82276 N 0 0 0
0:00:00.00 82647 N 0 0 0
0:00:00.00 82831 N 0 0 0
0:00:00.00 83007 N 0 0 0
0:00:00.00 83401 N 0 0 0
0:00:00.00 83608 N 0 0 0
0:00:00.00 83806 N 0 0 0
0:00:00.00 84004 N 0 0 0
0:00:00.00 84197 N 0 0 0
0:00:00.00 84398 N 0 0 0
0:00:00.00 84816 N 0 0 0
0:00:00.00 85014 N 0 0 0
0:00:00.00 85403 N 0 0 0
0:00:00.00 85608 N 0 0 0
0:00:00.00 85811 N 0 0 0
0:00:00.00 86017 N 0 0 0
0:00:00.00 86227 N 0 0 0
0:00:00.00 86438 N 0 0 0
0:00:00.00 86884 N 0 0 0
0:00:00.00 87086 N 0 0 0
0:00:00.00 87241 N 0 0 0
0:00:00.00 87491 N 0 0 0
0:00:00.00 87694 N 0 0 0
0:00:00.00 88108 N 0 0 0
0:00:00.00 88310 N 0 0 0
0:00:00.00 88504 N 0 0 0
0:00:00.00 88715 N 0 0 0
0:00:00.00 88931 N 0 0 0
0:00:00.00 89368 N 0 0 0
0:00:00.00 89570 N 0 0 0
0:00:00.00 89998 N 0 0 0
0:00:00.00 90214 N 0 0 0
0:00:00.00 90632 N 0 0 0
0:00:00.00 90835 N 0 0 0
0:00:00.00 91226 N 0 0 0
0:00:00.00 91427 N 0 0 0
0:00:00.00 91633 N 0 0 0
0:00:00.00 91847 N 0 0 0
0:00:00.00 92056 N 0 0 0
0:00:00.00 92277 N 0 0 0
0:00:00.00 92725 N 0 0 0
0:00:00.00 92936 N 0 0 0
0:00:00.00 93350 N 0 0 0
0:00:00.00 93544 N 0 0 0
0:00:00.00 93926 N 0 0 0
0:00:00.00 94131 N 0 0 0
0:00:00.00 94334 N 0 0 0
0:00:00.00 94540 N 0 0 0
0:00:00.00 94736 N 0 0 0
0:00:00.00 94936 N 0 0 0
0:00:00.00 95359 N 0 0 0
0:00:00.00 95560 N 0 0 0
0:00:00.00 95953 N 0 0 0
0:00:00.00 96154 N 0 0 0
0:00:00.00 96572 N 0 0 0
0:00:00.00 96788 N 0 0 0
0:00:00.00 97006 N 0 0 0
0:00:00.00 97465 N 0 0 0
0:00:00.00 97684 N 0 0 0
0:00:00.00 98105 N 0 0 0
0:00:00.00 98316 N 0 0 0
0:00:00.00 98750 N 0 0 0
0:00:00.00 98955 N 0 0 0
0:00:00.00 99355 N 0 0 0
0:00:00.00 99562 N 0 0 0
0:00:00.00 99967 N 0 0 0
0:00:00.00 100165 N 0 0 0
0:00:00.00 100570 N 0 0 0
0:00:00.00 100789 N 0 0 0
0:00:00.00 101250 N 0 0 0
0:00:00.00 101457 N 0 0 0
0:00:00.00 101871 N 0 0 0
0:00:00.00 102082 N 0 0 0
0:00:00.00 102488 N 0 0 0
0:00:00.00 102690 N 0 0 0
0:00:00.00 103095 N 0 0 0
0:00:00.00 103293 N 0 0 0
0:00:00.00 103498 N 0 0 0
0:00:00.00 103932 N 0 0 0
0:00:00.00 104134 N 0 0 0
0:00:00.00 104533 N 0 0 0
0:00:00.00 104740 N 0 0 0
0:00:00.00 104953 N 0 0 0
0:00:00.00 105167 N 0 0 0
0:00:00.00 105376 N 0 0 0
0:00:00.00 105595 N 0 0 0
0:00:00.00 106049 N 0 0 0
0:00:00.00 106258 N 0 0 0
0:00:00.00 106421 N 0 0 0
0:00:00.00 106663 N 0 0 0
0:00:00.00 106857 N 0 0 0
0:00:00.00 107264 N 0 0 0
0:00:00.00 107474 N 0 0 0
0:00:00.00 107685 N 0 0 0
0:00:00.00 107897 N 0 0 0
0:00:00.00 108113 N 0 0 0
0:00:00.00 108324 N 0 0 0
0:00:00.00 108767 N 0 0 0
0:00:00.00 108985 N 0 0 0
0:00:00.00 109440 N 0 0 0
0:00:00.00 109654 N 0 0 0
0:00:00.00 109836 N 0 0 0
0:00:00.00 110066 N 0 0 0
0:00:00.00 110279 N 0 0 0
0:00:00.00 110680 N 0 0 0
0:00:00.00 110880 N 0 0 0
0:00:00.00 111312 N 0 0 0
0:00:00.00 111532 N 0 0 0
0:00:00.00 111980 N 0 0 0
0:00:00.00 112185 N 0 0 0
0:00:00.00 112601 N 0 0 0
0:00:00.00 112806 N 0 0 0
0:00:00.00 113204 N 0 0 0
0:00:00.00 113404 N 0 0 0
0:00:00.00 113848 N 0 0 0
0:00:00.00 114059 N 0 0 0
0:00:00.00 114494 N 0 0 0
0:00:00.00 114709 N 0 0 0
0:00:00.00 115119 N 0 0 0
0:00:00.00 115313 N 0 0 0
0:00:00.00 115529 N 0 0 0
0:00:00.00 115747 N 0 0 0
0:00:00.00 115976 N 0 0 0
0:00:00.00 116197 N 0 0 0
0:00:00.00 116413 N 0 0 0
0:00:00.00 116629 N 0 0 0
0:00:00.00 116845 N 0 0 0
0:00:00.00 117065 N 0 0 0
0:00:00.00 117284 N 0 0 0
0:00:00.00 117693 N 0 0 0
0:00:00.00 117909 N 0 0 0
0:00:00.00 118350 N 0 0 0
0:00:00.00 118555 N 0 0 0
0:00:00.00 118753 N 0 0 0
0:00:00.00 118955 N 0 0 0
0:00:00.00 119156 N 0 0 0
0:00:00.00 119356 N 0 0 0
0:00:00.00 119772 N 0 0 0
0:00:00.00 119986 N 0 0 0
0:00:00.00 120411 N 0 0 0
0:00:00.00 120614 N 0 0 0
0:00:00.00 120809 N 0 0 0
0:00:00.00 121010 N 0 0 0
0:00:00.00 121199 N 0 0 0
0:00:00.00 121385 N 0 0 0
0:00:00.00 121756 N 0 0 0
0:00:00.00 121945 N 0 0 0
0:00:00.00 122137 N 0 0 0
0:00:00.00 122548 N 0 0 0
0:00:00.00 122742 N 0 0 0
0:00:00.00 122938 N 0 0 0
0:00:00.00 123336 N 0 0 0
0:00:00.00 123538 N 0 0 0
0:00:00.00 123730 N 0 0 0
0:00:00.00 123923 N 0 0 0
0:00:00.00 124103 N 0 0 0
0:00:00.00 124301 N 0 0 0
0:00:00.00 124699 N 0 0 0
0:00:00.00 124902 N 0 0 0
0:00:00.00 125100 N 0 0 0
0:00:00.00 125491 N 0 0 0
0:00:00.00 125680 N 0 0 0
0:00:00.00 125863 N 0 0 0
0:00:00.00 126054 N 0 0 0
0:00:00.00 126239 N 0 0 0
0:00:00.00 126428 N 0 0 0
0:00:00.00 126628 N 0 0 0
0:00:00.00 126817 N 0 0 0
0:00:00.00 127010 N 0 0 0
0:00:00.00 127202 N 0 0 0
0:00:00.00 127573 N 0 0 0
0:00:00.00 127753 N 0 0 0
0:00:00.00 127942 N 0 0 0
0:00:00.00 128122 N 0 0 0
0:00:00.00 128304 N 0 0 0
0:00:00.00 128489 N 0 0 0
0:00:00.00 128698 N 0 0 0
0:00:00.00 129114 N 0 0 0
0:00:00.00 129310 N 0 0 0
0:00:00.00 129496 N 0 0 0
0:00:00.00 129685 N 0 0 0
0:00:00.00 129874 N 0 0 0
0:00:00.00 130057 N 0 0 0
0:00:00.00 130248 N 0 0 0
0:00:00.00 130430 N 0 0 0
0:00:00.00 130613 N 0 0 0
0:00:00.00 130801 N 0 0 0
0:00:00.00 130988 N 0 0 0
0:00:00.00 131180 N 0 0 0
0:00:00.00 131371 N 0 0 0
0:00:00.00 131567 N 0 0 0
0:00:00.00 131940 N 0 0 0
0:00:00.00 132113 N 0 0 0
0:00:00.00 132291 N 0 0 0
0:00:00.00 132467 N 0 0 0
0:00:00.00 132633 N 0 0 0
0:00:00.00 132809 N 0 0 0
0:00:00.00 132991 N 0 0 0
0:00:00.00 133063 N 0 0 0
0:00:00.00 133182 N 0 0 0
0:00:00.00 133366 N 0 0 0
0:00:00.00 133562 N 0 0 0
0:00:00.00 133754 N 0 0 0
0:00:00.00 133965 N 0 0 0
0:00:00.00 134159 N 0 0 0
0:00:00.00 134348 N 0 0 0
0:00:00.00 134532 N 0 0 0
0:00:00.00 134710 N 0 0 0
0:00:00.00 134890 N 0 0 0
0:00:00.00 135083 N 0 0 0
0:00:00.00 135286 N 0 0 0
0:00:00.00 135718 N 0 0 0
0:00:00.00 135932 N 0 0 0
0:00:00.00 136346 N 0 0 0
0:00:00.00 136552 N 0 0 0
0:00:00.00 136994 N 0 0 0
0:00:00.00 137207 N 0 0 0
0:00:00.00 137678 N 0 0 0
0:00:00.00 137911 N 0 0 0
0:00:00.00 138388 N 0 0 0
0:00:00.00 138850 N 0 0 0
0:00:00.00 139052 N 0 0 0
0:00:00.00 139244 N 0 0 0
0:00:00.00 139707 N 0 0 0
0:00:00.00 139921 N 0 0 0
0:00:00.00 140341 N 0 0 0
0:00:00.00 140555 N 0 0 0
0:00:00.00 140758 N 0 0 0
0:00:00.00 141201 N 0 0 0
0:00:00.00 141635 N 0 0 0
0:00:00.00 141844 N 0 0 0
0:00:00.00 142063 N 0 0 0
0:00:00.00 142508 N 0 0 0
0:00:00.00 142920 N 0 0 0
0:00:00.00 143118 N 0 0 0
0:00:00.00 143316 N 0 0 0
0:00:00.00 143743 N 0 0 0
0:00:00.00 143964 N 0 0 0
0:00:00.00 144189 N 0 0 0
0:00:00.00 144367 N 0 0 0
0:00:00.00 144653 N 0 0 0
0:00:00.00 144875 N 0 0 0
0:00:00.00 145325 N 0 0 0
0:00:00.00 145523 N 0 0 0
0:00:00.00 145946 N 0 0 0
0:00:00.00 146158 N 0 0 0
0:00:00.00 146372 N 0 0 0
0:00:00.00 146828 N 0 0 0
0:00:00.00 147037 N 0 0 0
0:00:00.00 147456 N 0 0 0
0:00:00.00 147679 N 0 0 0
0:00:00.00 147888 N 0 0 0
0:00:00.00 148072 N 0 0 0
0:00:00.00 148374 N 0 0 0
0:00:00.00 148601 N 0 0 0
0:00:00.00 148774 N 0 0 0
0:00:00.00 149051 N 0 0 0
0:00:00.00 149269 N 0 0 0
0:00:00.00 149438 N 0 0 0
0:00:00.00 149679 N 0 0 0
0:00:00.00 149870 N 0 0 0
0:00:00.00 150311 N 0 0 0
0:00:00.00 150532 N 0 0 0
0:00:00.00 150755 N 0 0 0
0:00:00.00 150950 N 0 0 0
0:00:00.00 151276 N 0 0 0
0:00:00.00 151481 N 0 0 0
0:00:00.00 151740 N 0 0 0
0:00:00.00 151961 N 0 0 0
0:00:00.00 152168 N 0 0 0
0:00:00.00 152359 N 0 0 0
0:00:00.00 152667 N 0 0 0
0:00:00.00 152905 N 0 0 0
0:00:00.00 153095 N 0 0 0
0:00:00.00 153364 N 0 0 0
0:00:00.00 153572 N 0 0 0
0:00:00.00 153745 N 0 0 0
0:00:00.00 154017 N 0 0 0
0:00:00.00 154219 N 0 0 0
0:00:00.00 154706 N 0 0 0
0:00:00.00 154933 N 0 0 0
0:00:00.00 155124 N 0 0 0
0:00:00.00 155399 N 0 0 0
0:00:00.00 155623 N 0 0 0
0:00:00.00 155803 N 0 0 0
0:00:00.00 156064 N 0 0 0
0:00:00.00 156267 N 0 0 0
0:00:00.00 156697 N 0 0 0
0:00:00.00 156928 N 0 0 0
0:00:00.00 157414 N 0 0 0
0:00:00.00 157630 N 0 0 0
0:00:00.00 158083 N 0 0 0
0:00:00.00 158299 N 0 0 0
0:00:00.00 158738 N 0 0 0
0:00:00.00 158954 N 0 0 0
0:00:00.00 159448 N 0 0 0
0:00:00.00 159673 N 0 0 0
0:00:00.00 159853 N 0 0 0
0:00:00.00 160141 N 0 0 0
0:00:00.00 160357 N 0 0 0
0:00:00.00 160519 N 0 0 0
0:00:00.00 160805 N 0 0 0
0:00:00.00 161030 N 0 0 0
0:00:00.00 161217 N 0 0 0
0:00:00.00 161509 N 0 0 0
0:00:00.00 161726 N 0 0 0
0:00:00.00 162167 N 0 0 0
0:00:00.00 162383 N 0 0 0
0:00:00.00 162833 N 0 0 0
0:00:00.00 163046 N 0 0 0
0:00:00.00 163226 N 0 0 0
0:00:00.00 163537 N 0 0 0
0:00:00.00 163760 N 0 0 0
0:00:00.00 163944 N 0 0 0
0:00:00.00 164209 N 0 0 0
0:00:00.00 164419 N 0 0 0
0:00:00.00 164590 N 0 0 0
0:00:00.00 164851 N 0 0 0
0:00:00.00 165049 N 0 0 0
0:00:00.00 165233 N 0 0 0
0:00:00.00 165465 N 0 0 0
0:00:00.00 165674 N 0 0 0
0:00:00.00 165886 N 0 0 0
0:00:00.00 166106 N 0 0 0
0:00:00.00 166338 N 0 0 0
0:00:00.00 166759 N 0 0 0
0:00:00.00 167062 N 0 0 0
0:00:00.00 167267 N 0 0 0
0:00:00.00 167452 N 0 0 0
0:00:00.00 167805 N 0 0 0
0:00:00.00 168028 N 0 0 0
0:00:00.00 168208 N 0 0 0
0:00:00.00 168498 N 0 0 0
0:00:00.00 168737 N 0 0 0
0:00:00.00 168919 N 0 0 0
0:00:00.00 169222 N 0 0 0
0:00:00.00 169436 N 0 0 0
0:00:00.00 169609 N 0 0 0
0:00:00.00 169931 N 0 0 0
0:00:00.00 170154 N 0 0 0
0:00:00.00 170339 N 0 0 0
0:00:00.00 170640 N 0 0 0
0:00:00.00 171056 N 0 0 0
0:00:00.00 171349 N 0 0 0
0:00:00.00 171562 N 0 0 0
0:00:00.00 171742 N 0 0 0
0:00:00.00 172046 N 0 0 0
0:00:00.00 172269 N 0 0 0
0:00:00.00 172453 N 0 0 0
0:00:00.00 172735 N 0 0 0
0:00:00.00 172973 N 0 0 0
0:00:00.00 173162 N 0 0 0
0:00:00.00 173443 N 0 0 0
0:00:00.00 173660 N 0 0 0
0:00:00.00 173844 N 0 0 0
0:00:00.00 174119 N 0 0 0
0:00:00.00 174371 N 0 0 0
0:00:00.00 174555 N 0 0 0
0:00:00.00 174821 N 0 0 0
0:00:00.00 175041 N 0 0 0
0:00:00.00 175212 N 0 0 0
0:00:00.00 175505 N 0 0 0
0:00:00.00 175718 N 0 0 0
0:00:00.00 175880 N 0 0 0
0:00:00.00 176177 N 0 0 0
0:00:00.00 176418 N 0 0 0
0:00:00.00 176611 N 0 0 0
0:00:00.00 176895 N 0 0 0
0:00:00.00 177111 N 0 0 0
0:00:00.00 177293 N 0 0 0
0:00:00.00 177568 N 0 0 0
0:00:00.00 177777 N 0 0 0
0:00:00.00 177943 N 0 0 0
0:00:00.00 178231 N 0 0 0
0:00:00.00 178673 N 0 0 0
0:00:00.00 178978 N 0 0 0
0:00:00.00 179365 N 0 0 0
0:00:00.00 179642 N 0 0 0
0:00:00.00 179854 N 0 0 0
0:00:00.00 180025 N 0 0 0
0:00:00.00 180310 N 0 0 0
0:00:00.00 180715 N 0 0 0
0:00:00.00 181051 N 0 0 0
0:00:00.00 181267 N 0 0 0
0:00:00.00 181442 N 0 0 0
0:00:00.00 181757 N 0 0 0
0:00:00.00 181964 N 0 0 0
0:00:00.00 182138 N 0 0 0
0:00:00.00 182452 N 0 0 0
0:00:00.00 182689 N 0 0 0
0:00:00.00 182876 N 0 0 0
0:00:00.00 183217 N 0 0 0
0:00:00.00 183425 N 0 0 0
0:00:00.00 183604 N 0 0 0
0:00:00.00 183895 N 0 0 0
0:00:00.00 184124 N 0 0 0
0:00:00.00 184291 N 0 0 0
0:00:00.00 184558 N 0 0 0
0:00:00.00 184801 N 0 0 0
0:00:00.00 184993 N 0 0 0
0:00:00.00 185308 N 0 0 0
0:00:00.00 185521 N 0 0 0
0:00:00.00 185695 N 0 0 0
0:00:00.00 185983 N 0 0 0
0:00:00.00 186368 N 0 0 0
0:00:00.00 186644 N 0 0 0
0:00:00.00 186871 N 0 0 0
0:00:00.00 187367 N 0 0 0
0:00:00.00 187774 N 0 0 0
0:00:00.00 188050 N 0 0 0
0:00:00.00 188253 N 0 0 0
0:00:00.00 188420 N 0 0 0
0:00:00.00 188665 N 0 0 0
0:00:00.00 188892 N 0 0 0
0:00:00.00 189074 N 0 0 0
0:00:00.00 189398 N 0 0 0
0:00:00.00 189621 N 0 0 0
0:00:00.00 189783 N 0 0 0
0:00:00.00 190100 N 0 0 0
0:00:00.00 190319 N 0 0 0
0:00:00.00 190487 N 0 0 0
0:00:00.00 190751 N 0 0 0
0:00:00.00 190973 N 0 0 0
0:00:00.00 191151 N 0 0 0
0:00:00.00 191399 N 0 0 0
0:00:00.00 191648 N 0 0 0
0:00:00.00 192103 N 0 0 0
0:00:00.00 192319 N 0 0 0
0:00:00.00 192490 N 0 0 0
0:00:00.00 192796 N 0 0 0
0:00:00.00 193169 N 0 0 0
0:00:00.00 193473 N 0 0 0
0:00:00.00 193867 N 0 0 0
0:00:00.00 194157 N 0 0 0
0:00:00.00 194375 N 0 0 0
0:00:00.00 194555 N 0 0 0
0:00:00.00 194825 N 0 0 0
0:00:00.00 195053 N 0 0 0
0:00:00.00 195219 N 0 0 0
0:00:00.00 195509 N 0 0 0
0:00:00.00 195734 N 0 0 0
0:00:00.00 195908 N 0 0 0
0:00:00.00 196175 N 0 0 0
0:00:00.00 196382 N 0 0 0
0:00:00.00 196564 N 0 0 0
0:00:00.00 196783 N 0 0 0
0:00:00.00 196981 N 0 0 0
0:00:00.00 197174 N 0 0 0
0:00:00.00 197361 N 0 0 0
0:00:00.00 197543 N 0 0 0
0:00:00.00 197748 N 0 0 0
0:00:00.00 198259 N 0 0 0
0:00:00.00 198661 N 0 0 0
0:00:00.00 198961 N 0 0 0
0:00:00.00 199343 N 0 0 0
0:00:00.00 199593 N 0 0 0
0:00:00.00 199805 N 0 0 0
0:00:00.00 200293 N 0 0 0
0:00:00.00 200698 N 0 0 0
0:00:00.00 201010 N 0 0 0
0:00:00.00 201220 N 0 0 0
0:00:00.00 201380 N 0 0 0
0:00:00.00 201685 N 0 0 0
0:00:00.00 201890 N 0 0 0
0:00:00.00 202064 N 0 0 0
0:00:00.00 202340 N 0 0 0
0:00:00.00 202585 N 0 0 0
0:00:00.00 202765 N 0 0 0
0:00:00.00 203027 N 0 0 0
0:00:00.00 203240 N 0 0 0
0:00:00.00 203409 N 0 0 0
0:00:00.00 203695 N 0 0 0
0:00:00.00 203897 N 0 0 0
0:00:00.00 204068 N 0 0 0
0:00:00.00 204361 N 0 0 0
0:00:00.00 204586 N 0 0 0
0:00:00.00 204757 N 0 0 0
0:00:00.00 205018 N 0 0 0
0:00:00.00 205259 N 0 0 0
0:00:00.00 205429 N 0 0 0
0:00:00.00 205702 N 0 0 0
0:00:00.00 205907 N 0 0 0
0:00:00.00 206077 N 0 0 0
0:00:00.00 206388 N 0 0 0
0:00:00.00 206611 N 0 0 0
0:00:00.00 206791 N 0 0 0
0:00:00.00 207058 N 0 0 0
0:00:00.00 207295 N 0 0 0
0:00:00.00 207470 N 0 0 0
0:00:00.00 207718 N 0 0 0
0:00:00.00 207949 N 0 0 0
0:00:00.00 208125 N 0 0 0
0:00:00.00 208375 N 0 0 0
0:00:00.00 208593 N 0 0 0
0:00:00.00 209066 N 0 0 0
0:00:00.00 209284 N 0 0 0
0:00:00.00 209453 N 0 0 0
0:00:00.00 209756 N 0 0 0
0:00:00.00 209966 N 0 0 0
0:00:00.00 210148 N 0 0 0
0:00:00.00 210409 N 0 0 0
0:00:00.00 210625 N 0 0 0
0:00:00.00 210802 N 0 0 0
0:00:00.00 211066 N 0 0 0
0:00:00.00 211307 N 0 0 0
0:00:00.00 211496 N 0 0 0
0:00:00.00 211774 N 0 0 0
0:00:00.00 211986 N 0 0 0
0:00:00.00 212161 N 0 0 0
0:00:00.00 212423 N 0 0 0
0:00:00.00 212625 N 0 0 0
0:00:00.00 212801 N 0 0 0
0:00:00.00 213079 N 0 0 0
0:00:00.00 213323 N 0 0 0
0:00:00.00 213507 N 0 0 0
0:00:00.00 213773 N 0 0 0
0:00:00.00 213988 N 0 0 0
0:00:00.00 214171 N 0 0 0
0:00:00.00 214452 N 0 0 0
0:00:00.00 214661 N 0 0 0
0:00:00.00 214819 N 0 0 0
0:00:00.00 215105 N 0 0 0
0:00:00.00 215327 N 0 0 0
0:00:00.00 215521 N 0 0 0
0:00:00.00 215782 N 0 0 0
0:00:00.00 215996 N 0 0 0
0:00:00.00 216169 N 0 0 0
0:00:00.00 216416 N 0 0 0
0:00:00.00 216626 N 0 0 0
0:00:00.00 217071 N 0 0 0
0:00:00.00 217291 N 0 0 0
0:00:00.00 217750 N 0 0 0
0:00:00.00 217967 N 0 0 0
0:00:00.00 218410 N 0 0 0
0:00:00.00 218621 N 0 0 0
0:00:00.00 219040 N 0 0 0
0:00:00.00 219253 N 0 0 0
0:00:00.00 219719 N 0 0 0
0:00:00.00 219942 N 0 0 0
0:00:00.00 220367 N 0 0 0
0:00:00.00 220576 N 0 0 0
0:00:00.00 221004 N 0 0 0
0:00:00.00 221204 N 0 0 0
0:00:00.00 221636 N 0 0 0
0:00:00.00 221848 N 0 0 0
0:00:00.00 222282 N 0 0 0
0:00:00.00 222491 N 0 0 0
0:00:00.00 222926 N 0 0 0
0:00:00.00 223133 N 0 0 0
0:00:00.00 223567 N 0 0 0
0:00:00.00 223787 N 0 0 0
0:00:00.00 223969 N 0 0 0
0:00:00.00 224224 N 0 0 0
0:00:00.00 224428 N 0 0 0
0:00:00.00 224676 N 0 0 0
0:00:00.00 224960 N 0 0 0
0:00:00.00 225167 N 0 0 0
0:00:00.00 225326 N 0 0 0
0:00:00.00 225598 N 0 0 0
0:00:00.00 225833 N 0 0 0
0:00:00.00 226013 N 0 0 0
0:00:00.00 226246 N 0 0 0
0:00:00.00 226444 N 0 0 0
0:00:00.00 226638 N 0 0 0
0:00:00.00 226825 N 0 0 0
0:00:00.00 227014 N 0 0 0
0:00:00.00 227194 N 0 0 0
0:00:00.00 227380 N 0 0 0
0:00:00.00 227569 N 0 0 0
0:00:00.00 227747 N 0 0 0
0:00:00.00 227939 N 0 0 0
0:00:00.00 228139 N 0 0 0
0:00:00.00 228350 N 0 0 0
0:00:00.00 228568 N 0 0 0
0:00:00.00 228778 N 0 0 0
0:00:00.00 228965 N 0 0 0
0:00:00.00 229228 N 0 0 0
0:00:00.00 229433 N 0 0 0
0:00:00.00 229610 N 0 0 0
0:00:00.00 229840 N 0 0 0
0:00:00.00 230053 N 0 0 0
0:00:00.00 230495 N 0 0 0
0:00:00.00 230708 N 0 0 0
0:00:00.00 230911 N 0 0 0
0:00:00.00 231118 N 0 0 0
0:00:00.00 231331 N 0 0 0
0:00:00.00 231541 N 0 0 0
0:00:00.00 231980 N 0 0 0
0:00:00.00 232187 N 0 0 0
0:00:00.00 232393 N 0 0 0
0:00:00.00 232609 N 0 0 0
0:00:00.00 232823 N 0 0 0
0:00:00.00 233028 N 0 0 0
0:00:00.00 233226 N 0 0 0
0:00:00.00 233428 N 0 0 0
0:00:00.00 233629 N 0 0 0
0:00:00.00 234049 N 0 0 0
0:00:00.00 234257 N 0 0 0
0:00:00.00 234709 N 0 0 0
0:00:00.00 234936 N 0 0 0
0:00:00.00 235402 N 0 0 0
0:00:00.00 235624 N 0 0 0
0:00:00.00 235793 N 0 0 0
0:00:00.00 236038 N 0 0 0
0:00:00.00 236237 N 0 0 0
0:00:00.00 236648 N 0 0 0
0:00:00.00 236871 N 0 0 0
0:00:00.00 237346 N 0 0 0
0:00:00.00 237568 N 0 0 0
0:00:00.00 237739 N 0 0 0
0:00:00.00 238043 N 0 0 0
0:00:00.00 238259 N 0 0 0
0:00:00.00 238421 N 0 0 0
0:00:00.00 238671 N 0 0 0
0:00:00.00 238910 N 0 0 0
0:00:00.00 239098 N 0 0 0
0:00:00.00 239359 N 0 0 0
0:00:00.00 239575 N 0 0 0
0:00:00.00 240014 N 0 0 0
0:00:00.00 240224 N 0 0 0
0:00:00.00 240647 N 0 0 0
0:00:00.00 240867 N 0 0 0
0:00:00.00 241052 N 0 0 0
0:00:00.00 241322 N 0 0 0
0:00:00.00 241537 N 0 0 0
0:00:00.00 241956 N 0 0 0
0:00:00.00 242167 N 0 0 0
0:00:00.00 242597 N 0 0 0
0:00:00.00 242797 N 0 0 0
0:00:00.00 243254 N 0 0 0
0:00:00.00 243482 N 0 0 0
0:00:00.00 243670 N 0 0 0
0:00:00.00 243932 N 0 0 0
0:00:00.00 244138 N 0 0 0
0:00:00.00 244307 N 0 0 0
0:00:00.00 244579 N 0 0 0
0:00:00.00 244784 N 0 0 0
0:00:00.00 244951 N 0 0 0
0:00:00.00 245232 N 0 0 0
0:00:00.00 245453 N 0 0 0
0:00:00.00 245635 N 0 0 0
0:00:00.00 245880 N 0 0 0
0:00:00.00 246119 N 0 0 0
0:00:00.00 246560 N 0 0 0
0:00:00.00 246758 N 0 0 0
0:00:00.00 247183 N 0 0 0
0:00:00.00 247392 N 0 0 0
0:00:00.00 247833 N 0 0 0
0:00:00.00 248044 N 0 0 0
0:00:00.00 248467 N 0 0 0
0:00:00.00 248679 N 0 0 0
0:00:00.00 249106 N 0 0 0
0:00:00.00 249300 N 0 0 0
0:00:00.00 249725 N 0 0 0
0:00:00.00 249943 N 0 0 0
0:00:00.00 250421 N 0 0 0
0:00:00.00 250641 N 0 0 0
0:00:00.00 250810 N 0 0 0
0:00:00.00 251066 N 0 0 0
0:00:00.00 251273 N 0 0 0
0:00:00.00 251692 N 0 0 0
0:00:00.00 251910 N 0 0 0
0:00:00.00 252374 N 0 0 0
0:00:00.00 252589 N 0 0 0
0:00:00.00 252760 N 0 0 0
0:00:00.00 253049 N 0 0 0
0:00:00.00 253262 N 0 0 0
0:00:00.00 253427 N 0 0 0
0:00:00.00 253660 N 0 0 0
0:00:00.00 253901 N 0 0 0
0:00:00.00 254093 N 0 0 0
0:00:00.00 254380 N 0 0 0
0:00:00.00 254605 N 0 0 0
0:00:00.00 254779 N 0 0 0
0:00:00.00 255047 N 0 0 0
0:00:00.00 255260 N 0 0 0
0:00:00.00 255699 N 0 0 0
0:00:00.00 255904 N 0 0 0
0:00:00.00 256374 N 0 0 0
0:00:00.00 256597 N 0 0 0
0:00:00.00 256790 N 0 0 0
0:00:00.00 257083 N 0 0 0
0:00:00.00 257301 N 0 0 0
0:00:00.00 257468 N 0 0 0
0:00:00.00 257738 N 0 0 0
0:00:00.00 257940 N 0 0 0
0:00:00.00 258127 N 0 0 0
0:00:00.00 258431 N 0 0 0
0:00:00.00 258658 N 0 0 0
0:00:00.00 258851 N 0 0 0
0:00:00.00 259128 N 0 0 0
0:00:00.00 259349 N 0 0 0
0:00:00.00 259537 N 0 0 0
0:00:00.00 259790 N 0 0 0
0:00:00.00 259999 N 0 0 0
0:00:00.00 260446 N 0 0 0
0:00:00.00 260671 N 0 0 0
0:00:00.00 261140 N 0 0 0
0:00:00.00 261356 N 0 0 0
0:00:00.00 261803 N 0 0 0
0:00:00.00 262017 N 0 0 0
0:00:00.00 262458 N 0 0 0
0:00:00.00 262678 N 0 0 0
0:00:00.00 263146 N 0 0 0
0:00:00.00 263362 N 0 0 0
0:00:00.00 263821 N 0 0 0
0:00:00.00 264033 N 0 0 0
0:00:00.00 264479 N 0 0 0
0:00:00.00 264904 N 0 0 0
0:00:00.00 265216 N 0 0 0
0:00:00.00 265622 N 0 0 0
0:00:00.00 265883 N 0 0 0
0:00:00.00 266090 N 0 0 0
0:00:00.00 266548 N 0 0 0
0:00:00.00 266771 N 0 0 0
0:00:00.00 266938 N 0 0 0
0:00:00.00 267259 N 0 0 0
0:00:00.00 267494 N 0 0 0
0:00:00.00 267665 N 0 0 0
0:00:00.00 267928 N 0 0 0
0:00:00.00 268157 N 0 0 0
0:00:00.00 268610 N 0 0 0
0:00:00.00 268819 N 0 0 0
0:00:00.00 269293 N 0 0 0
0:00:00.00 269518 N 0 0 0
0:00:00.00 269975 N 0 0 0
0:00:00.00 270200 N 0 0 0
0:00:00.00 270373 N 0 0 0
0:00:00.00 270659 N 0 0 0
0:00:00.00 270864 N 0 0 0
0:00:00.00 271035 N 0 0 0
0:00:00.00 271325 N 0 0 0
0:00:00.00 271555 N 0 0 0
0:00:00.00 271735 N 0 0 0
0:00:00.00 272030 N 0 0 0
0:00:00.00 272248 N 0 0 0
0:00:00.00 272419 N 0 0 0
0:00:00.00 272718 N 0 0 0
0:00:00.00 272936 N 0 0 0
0:00:00.00 273105 N 0 0 0
0:00:00.00 273397 N 0 0 0
0:00:00.00 273623 N 0 0 0
0:00:00.00 273802 N 0 0 0
0:00:00.00 274072 N 0 0 0
0:00:00.00 274313 N 0 0 0
0:00:00.00 274493 N 0 0 0
0:00:00.00 274754 N 0 0 0
0:00:00.00 274982 N 0 0 0
0:00:00.00 275166 N 0 0 0
0:00:00.00 275420 N 0 0 0
0:00:00.00 275641 N 0 0 0
0:00:00.00 276097 N 0 0 0
0:00:00.00 276314 N 0 0 0
0:00:00.00 276786 N 0 0 0
0:00:00.00 277189 N 0 0 0
0:00:00.00 277436 N 0 0 0
0:00:00.00 277652 N 0 0 0
0:00:00.00 278120 N 0 0 0
0:00:00.00 278345 N 0 0 0
0:00:00.00 278518 N 0 0 0
0:00:00.00 278807 N 0 0 0
0:00:00.00 279016 N 0 0 0
0:00:00.00 279191 N 0 0 0
0:00:00.00 279455 N 0 0 0
0:00:00.00 279666 N 0 0 0
0:00:00.00 279841 N 0 0 0
0:00:00.00 280129 N 0 0 0
0:00:00.00 280368 N 0 0 0
0:00:00.00 280550 N 0 0 0
0:00:00.00 280836 N 0 0 0
0:00:00.00 281068 N 0 0 0
0:00:00.00 281243 N 0 0 0
0:00:00.00 281480 N 0 0 0
0:00:00.00 281704 N 0 0 0
0:00:00.00 281871 N 0 0 0
0:00:00.00 282150 N 0 0 0
0:00:00.00 282377 N 0 0 0
0:00:00.00 282859 N 0 0 0
0:00:00.00 283261 N 0 0 0
0:00:00.00 283545 N 0 0 0
0:00:00.00 283754 N 0 0 0
0:00:00.00 283910 N 0 0 0
0:00:00.00 284162 N 0 0 0
0:00:00.00 284407 N 0 0 0
0:00:00.00 284589 N 0 0 0
0:00:00.00 284863 N 0 0 0
0:00:00.00 285084 N 0 0 0
0:00:00.00 285521 N 0 0 0
0:00:00.00 285728 N 0 0 0
0:00:00.00 286177 N 0 0 0
0:00:00.00 286400 N 0 0 0
0:00:00.00 286582 N 0 0 0
0:00:00.00 286852 N 0 0 0
0:00:00.00 287071 N 0 0 0
0:00:00.00 287503 N 0 0 0
0:00:00.00 287721 N 0 0 0
0:00:00.00 288164 N 0 0 0
0:00:00.00 288571 N 0 0 0
0:00:00.00 288880 N 0 0 0
0:00:00.00 289283 N 0 0 0
0:00:00.00 289534 N 0 0 0
0:00:00.00 289742 N 0 0 0
0:00:00.00 290173 N 0 0 0
0:00:00.00 290381 N 0 0 0
0:00:00.00 290853 N 0 0 0
0:00:00.00 291073 N 0 0 0
0:00:00.00 291258 N 0 0 0
0:00:00.00 291537 N 0 0 0
0:00:00.00 291751 N 0 0 0
0:00:00.00 291913 N 0 0 0
0:00:00.00 292176 N 0 0 0
0:00:00.00 292381 N 0 0 0
0:00:00.00 292545 N 0 0 0
0:00:00.00 292817 N 0 0 0
0:00:00.00 293042 N 0 0 0
0:00:00.00 293490 N 0 0 0
0:00:00.00 293697 N 0 0 0
0:00:00.00 294154 N 0 0 0
0:00:00.00 294361 N 0 0 0
0:00:00.00 294532 N 0 0 0
0:00:00.00 294799 N 0 0 0
0:00:00.00 295015 N 0 0 0
0:00:00.00 295195 N 0 0 0
0:00:00.00 295472 N 0 0 0
0:00:00.00 295691 N 0 0 0
0:00:00.00 296134 N 0 0 0
0:00:00.00 296338 N 0 0 0
0:00:00.00 296782 N 0 0 0
0:00:00.00 296995 N 0 0 0
0:00:00.00 297178 N 0 0 0
0:00:00.00 297454 N 0 0 0
0:00:00.00 297671 N 0 0 0
0:00:00.00 297842 N 0 0 0
0:00:00.00 298120 N 0 0 0
0:00:00.00 298334 N 0 0 0
0:00:00.00 298791 N 0 0 0
0:00:00.00 298991 N 0 0 0
0:00:00.00 299169 N 0 0 0
0:00:00.00 299466 N 0 0 0
0:00:00.00 299689 N 0 0 0
0:00:00.00 299867 N 0 0 0
0:00:00.00 300130 N 0 0 0
0:00:00.00 300343 N 0 0 0
0:00:00.00 300791 N 0 0 0
0:00:00.00 301000 N 0 0 0
0:00:00.00 301426 N 0 0 0
0:00:00.00 301640 N 0 0 0
0:00:00.00 302083 N 0 0 0
0:00:00.00 302297 N 0 0 0
0:00:00.00 302758 N 0 0 0
0:00:00.00 302971 N 0 0 0
0:00:00.00 303410 N 0 0 0
0:00:00.00 303629 N 0 0 0
0:00:00.00 304090 N 0 0 0
0:00:00.00 304306 N 0 0 0
0:00:00.00 304780 N 0 0 0
0:00:00.00 304990 N 0 0 0
0:00:00.00 305170 N 0 0 0
0:00:00.00 305417 N 0 0 0
0:00:00.00 305629 N 0 0 0
0:00:00.00 305818 N 0 0 0
0:00:00.00 306110 N 0 0 0
0:00:00.00 306342 N 0 0 0
0:00:00.00 306524 N 0 0 0
0:00:00.00 306823 N 0 0 0
0:00:00.00 307033 N 0 0 0
0:00:00.00 307215 N 0 0 0
0:00:00.00 307494 N 0 0 0
0:00:00.00 307701 N 0 0 0
0:00:00.00 308164 N 0 0 0
0:00:00.00 308389 N 0 0 0
0:00:00.00 308567 N 0 0 0
0:00:00.00 308860 N 0 0 0
0:00:00.00 309085 N 0 0 0
0:00:00.00 309258 N 0 0 0
0:00:00.00 309530 N 0 0 0
0:00:00.00 309733 N 0 0 0
0:00:00.00 309906 N 0 0 0
0:00:00.00 310208 N 0 0 0
0:00:00.00 310437 N 0 0 0
0:00:00.00 310615 N 0 0 0
0:00:00.00 310898 N 0 0 0
0:00:00.00 311119 N 0 0 0
0:00:00.00 311294 N 0 0 0
0:00:00.00 311573 N 0 0 0
0:00:00.00 311789 N 0 0 0
0:00:00.00 311945 N 0 0 0
0:00:00.00 312215 N 0 0 0
0:00:00.00 312439 N 0 0 0
0:00:00.00 312912 N 0 0 0
0:00:00.00 313126 N 0 0 0
0:00:00.00 313549 N 0 0 0
0:00:00.00 313758 N 0 0 0
0:00:00.00 314172 N 0 0 0
0:00:00.00 314401 N 0 0 0
0:00:00.00 314865 N 0 0 0
0:00:00.00 315083 N 0 0 0
0:00:00.00 315279 N 0 0 0
0:00:00.00 315592 N 0 0 0
0:00:00.00 315830 N 0 0 0
0:00:00.00 316273 N 0 0 0
0:00:00.00 316483 N 0 0 0
0:00:00.00 316674 N 0 0 0
0:00:00.00 316912 N 0 0 0
0:00:00.00 317120 N 0 0 0
0:00:00.00 317317 N 0 0 0
0:00:00.00 317507 N 0 0 0
0:00:00.00 317700 N 0 0 0
0:00:00.00 317905 N 0 0 0
0:00:00.00 318116 N 0 0 0
0:00:00.00 318317 N 0 0 0
0:00:00.00 318517 N 0 0 0
0:00:00.00 318739 N 0 0 0
0:00:00.00 319205 N 0 0 0
0:00:00.00 319423 N 0 0 0
0:00:00.00 319822 N 0 0 0
0:00:00.00 320018 N 0 0 0
0:00:00.00 320207 N 0 0 0
0:00:00.00 320391 N 0 0 0
0:00:00.00 320630 N 0 0 0
0:00:00.00 320850 N 0 0 0
0:00:00.00 321064 N 0 0 0
0:00:00.00 321271 N 0 0 0
0:00:00.00 321478 N 0 0 0
0:00:00.00 321687 N 0 0 0
0:00:00.00 322085 N 0 0 0
0:00:00.00 322281 N 0 0 0
0:00:00.00 322474 N 0 0 0
0:00:00.00 322866 N 0 0 0
0:00:00.00 323084 N 0 0 0
0:00:00.00 323323 N 0 0 0
0:00:00.00 323798 N 0 0 0
0:00:00.00 324029 N 0 0 0
0:00:00.00 324189 N 0 0 0
0:00:00.00 324445 N 0 0 0
0:00:00.00 324650 N 0 0 0
0:00:00.00 325085 N 0 0 0
0:00:00.00 325165 N 0 0 0
0:00:00.00 325301 N 0 0 0
0:00:00.00 325517 N 0 0 0
0:00:00.00 325998 N 0 0 0
0:00:00.00 326216 N 0 0 0
0:00:00.00 326641 N 0 0 0
0:00:00.00 326848 N 0 0 0
0:00:00.00 327022 N 0 0 0
0:00:00.00 327281 N 0 0 0
0:00:00.00 327505 N 0 0 0
0:00:00.00 327964 N 0 0 0
0:00:00.00 328174 N 0 0 0
0:00:00.00 328392 N 0 0 0
0:00:00.00 328844 N 0 0 0
0:00:00.00 329056 N 0 0 0
0:00:00.00 329485 N 0 0 0
0:00:00.00 329710 N 0 0 0
0:00:00.00 330176 N 0 0 0
0:00:00.00 330394 N 0 0 0
0:00:00.00 330809 N 0 0 0
0:00:00.00 331029 N 0 0 0
0:00:00.00 331506 N 0 0 0
0:00:00.00 331747 N 0 0 0
0:00:00.00 332224 N 0 0 0
0:00:00.00 332498 N 0 0 0
0:00:00.00 332723 N 0 0 0
0:00:00.00 332915 N 0 0 0
0:00:00.00 333220 N 0 0 0
0:00:00.00 333432 N 0 0 0
0:00:00.00 333607 N 0 0 0
0:00:00.00 333893 N 0 0 0
0:00:00.00 334127 N 0 0 0
0:00:00.00 334325 N 0 0 0
0:00:00.00 334588 N 0 0 0
0:00:00.00 334809 N 0 0 0
0:00:00.00 335196 N 0 0 0
0:00:00.00 335529 N 0 0 0
0:00:00.00 335731 N 0 0 0
0:00:00.00 335972 N 0 0 0
0:00:00.00 336200 N 0 0 0
0:00:00.00 336451 N 0 0 0
0:00:00.00 336641 N 0 0 0
0:00:00.00 336944 N 0 0 0
0:00:00.00 337162 N 0 0 0
0:00:00.00 337403 N 0 0 0
0:00:00.00 337628 N 0 0 0
0:00:00.00 337840 N 0 0 0
0:00:00.00 338044 N 0 0 0
0:00:00.00 338362 N 0 0 0
0:00:00.00 338589 N 0 0 0
0:00:00.00 338776 N 0 0 0
0:00:00.00 339091 N 0 0 0
0:00:00.00 339316 N 0 0 0
0:00:00.00 339557 N 0 0 0
0:00:00.00 339773 N 0 0 0
0:00:00.00 339979 N 0 0 0
0:00:00.00 340162 N 0 0 0
0:00:00.00 340454 N 0 0 0
0:00:00.00 340700 N 0 0 0
0:00:00.00 340868 N 0 0 0
0:00:00.00 341212 N 0 0 0
0:00:00.00 341428 N 0 0 0
0:00:00.00 341687 N 0 0 0
0:00:00.00 341908 N 0 0 0
0:00:00.00 342130 N 0 0 0
0:00:00.00 342315 N 0 0 0
0:00:00.00 342571 N 0 0 0
0:00:00.00 342794 N 0 0 0
0:00:00.00 342995 N 0 0 0
0:00:00.00 343228 N 0 0 0
0:00:00.00 343438 N 0 0 0
0:00:00.00 343649 N 0 0 0
0:00:00.00 344061 N 0 0 0
0:00:00.00 344263 N 0 0 0
0:00:00.00 344480 N 0 0 0
0:00:00.00 344734 N 0 0 0
0:00:00.00 344975 N 0 0 0
0:00:00.00 345400 N 0 0 0
0:00:00.00 345719 N 0 0 0
0:00:00.00 345944 N 0 0 0
0:00:00.00 346109 N 0 0 0
0:00:00.00 346428 N 0 0 0
0:00:00.00 346635 N 0 0 0
0:00:00.00 346801 N 0 0 0
0:00:00.00 347090 N 0 0 0
0:00:00.00 347324 N 0 0 0
0:00:00.00 347801 N 0 0 0
0:00:00.00 348032 N 0 0 0
0:00:00.00 348512 N 0 0 0
0:00:00.00 348919 N 0 0 0
0:00:00.00 349238 N 0 0 0
0:00:00.00 349650 N 0 0 0
0:00:00.00 349972 N 0 0 0
0:00:00.00 350433 N 0 0 0
0:00:00.00 350662 N 0 0 0
0:00:00.00 350872 N 0 0 0
0:00:00.00 351135 N 0 0 0
0:00:00.00 351389 N 0 0 0
0:00:00.00 351626 N 0 0 0
0:00:00.00 351896 N 0 0 0
0:00:00.00 352134 N 0 0 0
0:00:00.00 352629 N 0 0 0
0:00:00.00 352858 N 0 0 0
0:00:00.00 353020 N 0 0 0
0:00:00.00 353362 N 0 0 0
0:00:00.00 353585 N 0 0 0
0:00:00.00 353801 N 0 0 0
0:00:00.00 354058 N 0 0 0
0:00:00.00 354283 N 0 0 0
0:00:00.00 354496 N 0 0 0
0:00:00.00 354683 N 0 0 0
0:00:00.00 354973 N 0 0 0
0:00:00.00 355187 N 0 0 0
0:00:00.00 355390 N 0 0 0
0:00:00.00 355723 N 0 0 0
0:00:00.00 355963 N 0 0 0
0:00:00.00 356238 N 0 0 0
0:00:00.00 356468 N 0 0 0
0:00:00.00 356699 N 0 0 0
0:00:00.00 356927 N 0 0 0
0:00:00.00 357156 N 0 0 0
0:00:00.00 357359 N 0 0 0
0:00:00.00 357662 N 0 0 0
0:00:00.00 357917 N 0 0 0
0:00:00.00 358087 N 0 0 0
0:00:00.00 358420 N 0 0 0
0:00:00.00 358636 N 0 0 0
0:00:00.00 358819 N 0 0 0
0:00:00.00 359050 N 0 0 0
0:00:00.00 359284 N 0 0 0
0:00:00.00 359750 N 0 0 0
0:00:00.00 359980 N 0 0 0
0:00:00.00 360180 N 0 0 0
0:00:00.00 360482 N 0 0 0
0:00:00.00 360706 N 0 0 0
0:00:00.00 360932 N 0 0 0
0:00:00.00 361157 N 0 0 0
0:00:00.00 361377 N 0 0 0
0:00:00.00 361629 N 0 0 0
0:00:00.00 361867 N 0 0 0
0:00:00.00 362371 N 0 0 0
0:00:00.00 362612 N 0 0 0
0:00:00.00 363082 N 0 0 0
0:00:00.00 363314 N 0 0 0
0:00:00.00 363746 N 0 0 0
0:00:00.00 363949 N 0 0 0
0:00:00.00 364167 N 0 0 0
0:00:00.00 364624 N 0 0 0
0:00:00.00 364862 N 0 0 0
0:00:00.00 365071 N 0 0 0
0:00:00.00 365362 N 0 0 0
0:00:00.00 365591 N 0 0 0
0:00:00.00 366100 N 0 0 0
0:00:00.00 366323 N 0 0 0
0:00:00.00 366559 N 0 0 0
0:00:00.00 366750 N 0 0 0
0:00:00.00 366952 N 0 0 0
0:00:00.00 367083 N 0 0 0
0:00:00.00 367317 N 0 0 0
0:00:00.00 367549 N 0 0 0
0:00:00.00 367736 N 0 0 0
0:00:00.00 368030 N 0 0 0
0:00:00.00 368240 N 0 0 0
0:00:00.00 368426 N 0 0 0
0:00:00.00 368737 N 0 0 0
0:00:00.00 368987 N 0 0 0
0:00:00.00 369212 N 0 0 0
0:00:00.00 369434 N 0 0 0
0:00:00.00 369653 N 0 0 0
0:00:00.00 370147 N 0 0 0
0:00:00.00 370562 N 0 0 0
0:00:00.00 370834 N 0 0 0
0:00:00.00 371070 N 0 0 0
0:00:00.00 371304 N 0 0 0
0:00:00.00 371534 N 0 0 0
0:00:00.00 371754 N 0 0 0
0:00:00.00 372226 N 0 0 0
0:00:00.00 372445 N 0 0 0
0:00:00.00 372946 N 0 0 0
0:00:00.00 373194 N 0 0 0
0:00:00.00 373687 N 0 0 0
0:00:00.00 373939 N 0 0 0
0:00:00.00 374407 N 0 0 0
0:00:00.00 374621 N 0 0 0
0:00:00.00 375097 N 0 0 0
0:00:00.00 375338 N 0 0 0
0:00:00.00 375813 N 0 0 0
0:00:00.00 376049 N 0 0 0
0:00:00.00 376265 N 0 0 0
0:00:00.00 376547 N 0 0 0
0:00:00.00 376767 N 0 0 0
0:00:00.00 377287 N 0 0 0
0:00:00.00 377518 N 0 0 0
0:00:00.00 377748 N 0 0 0
0:00:00.00 378290 N 0 0 0
0:00:00.00 378515 N 0 0 0
0:00:00.00 378733 N 0 0 0
0:00:00.00 378913 N 0 0 0
0:00:00.00 379195 N 0 0 0
0:00:00.00 379436 N 0 0 0
0:00:00.00 379629 N 0 0 0
0:00:00.00 379908 N 0 0 0
0:00:00.00 380119 N 0 0 0
0:00:00.00 380322 N 0 0 0
0:00:00.00 380525 N 0 0 0
0:00:00.00 380729 N 0 0 0
0:00:00.00 380939 N 0 0 0
0:00:00.00 381393 N 0 0 0
0:00:00.00 381634 N 0 0 0
0:00:00.00 382176 N 0 0 0
0:00:00.00 382628 N 0 0 0
0:00:00.00 382851 N 0 0 0
0:00:00.00 383285 N 0 0 0
0:00:00.00 383546 N 0 0 0
0:00:00.00 383785 N 0 0 0
0:00:00.00 384014 N 0 0 0
0:00:00.00 384286 N 0 0 0
0:00:00.00 384539 N 0 0 0
0:00:00.00 384759 N 0 0 0
0:00:00.00 385047 N 0 0 0
0:00:00.00 385265 N 0 0 0
0:00:00.00 385641 N 0 0 0
0:00:00.00 385781 N 0 0 0
0:00:00.00 385992 N 0 0 0
0:00:00.00 386246 N 0 0 0
0:00:00.00 386793 N 0 0 0
0:00:00.00 387018 N 0 0 0
0:00:00.00 387263 N 0 0 0
0:00:00.00 387484 N 0 0 0
0:00:00.00 387697 N 0 0 0
0:00:00.00 387940 N 0 0 0
0:00:00.00 388195 N 0 0 0
0:00:00.00 388424 N 0 0 0
0:00:00.00 388724 N 0 0 0
0:00:00.00 388971 N 0 0 0
0:00:00.00 389475 N 0 0 0
0:00:00.00 389702 N 0 0 0
0:00:00.00 389939 N 0 0 0
0:00:00.00 390191 N 0 0 0
0:00:00.00 390438 N 0 0 0
0:00:00.00 390670 N 0 0 0
0:00:00.00 390955 N 0 0 0
0:00:00.00 391199 N 0 0 0
0:00:00.00 391423 N 0 0 0
0:00:00.00 391709 N 0 0 0
0:00:00.00 391937 N 0 0 0
0:00:00.00 392470 N 0 0 0
0:00:00.00 392733 N 0 0 0
0:00:00.00 392969 N 0 0 0
0:00:00.00 393223 N 0 0 0
0:00:00.00 393457 N 0 0 0
0:00:00.00 393678 N 0 0 0
0:00:00.00 393944 N 0 0 0
0:00:00.00 394177 N 0 0 0
0:00:00.00 394405 N 0 0 0
0:00:00.00 394661 N 0 0 0
0:00:00.00 394909 N 0 0 0
0:00:00.00 395143 N 0 0 0
0:00:00.00 395429 N 0 0 0
0:00:00.00 395662 N 0 0 0
0:00:00.00 396140 N 0 0 0
0:00:00.00 396364 N 0 0 0
0:00:00.00 396608 N 0 0 0
0:00:00.00 396868 N 0 0 0
0:00:00.00 397112 N 0 0 0
0:00:00.00 397341 N 0 0 0
0:00:00.00 397604 N 0 0 0
0:00:00.00 397845 N 0 0 0
0:00:00.00 398074 N 0 0 0
0:00:00.00 398313 N 0 0 0
0:00:00.00 398538 N 0 0 0
0:00:00.00 399033 N 0 0 0
0:00:00.00 399272 N 0 0 0
0:00:00.00 399737 N 0 0 0
0:00:00.00 399967 N 0 0 0
0:00:00.00 400194 N 0 0 0
0:00:00.00 400460 N 0 0 0
0:00:00.00 400689 N 0 0 0
0:00:00.00 401200 N 0 0 0
0:00:00.00 401447 N 0 0 0
0:00:00.00 401675 N 0 0 0
0:00:00.00 401841 N 0 0 0
0:00:00.00 402176 N 0 0 0
0:00:00.00 402401 N 0 0 0
0:00:00.00 402611 N 0 0 0
0:00:00.00 402824 N 0 0 0
0:00:00.00 403065 N 0 0 0
0:00:00.00 403324 N 0 0 0
0:00:00.00 403569 N 0 0 0
0:00:00.00 404075 N 0 0 0
0:00:00.00 404312 N 0 0 0
0:00:00.00 404667 N 0 0 0
0:00:00.00 404809 N 0 0 0
0:00:00.00 405074 N 0 0 0
0:00:00.00 405292 N 0 0 0
0:00:00.00 405617 N 0 0 0
0:00:00.00 405864 N 0 0 0
0:00:00.00 406114 N 0 0 0
0:00:00.00 406350 N 0 0 0
0:00:00.00 406568 N 0 0 0
0:00:00.00 406805 N 0 0 0
0:00:00.00 407029 N 0 0 0
0:00:00.00 407545 N 0 0 0
0:00:00.00 407790 N 0 0 0
0:00:00.00 408280 N 0 0 0
0:00:00.00 408523 N 0 0 0
0:00:00.00 408976 N 0 0 0
0:00:00.00 409196 N 0 0 0
0:00:00.00 409673 N 0 0 0
0:00:00.00 409919 N 0 0 0
0:00:00.00 410400 N 0 0 0
0:00:00.00 410621 N 0 0 0
0:00:00.00 411089 N 0 0 0
0:00:00.00 411302 N 0 0 0
0:00:00.00 411521 N 0 0 0
0:00:00.00 411746 N 0 0 0
0:00:00.00 411986 N 0 0 0
0:00:00.00 412216 N 0 0 0
0:00:00.00 412470 N 0 0 0
0:00:00.00 412704 N 0 0 0
0:00:00.00 413170 N 0 0 0
0:00:00.00 413388 N 0 0 0
0:00:00.00 413608 N 0 0 0
0:00:00.00 413861 N 0 0 0
0:00:00.00 414099 N 0 0 0
0:00:00.00 414326 N 0 0 0
0:00:00.00 414562 N 0 0 0
0:00:00.00 414794 N 0 0 0
0:00:00.00 415269 N 0 0 0
0:00:00.00 415503 N 0 0 0
0:00:00.00 415971 N 0 0 0
0:00:00.00 416210 N 0 0 0
0:00:00.00 416448 N 0 0 0
0:00:00.00 416680 N 0 0 0
0:00:00.00 416911 N 0 0 0
0:00:00.00 417379 N 0 0 0
0:00:00.00 417602 N 0 0 0
0:00:00.00 418084 N 0 0 0
0:00:00.00 418322 N 0 0 0
0:00:00.00 418799 N 0 0 0
0:00:00.00 419031 N 0 0 0
0:00:00.00 419503 N 0 0 0
0:00:00.00 419719 N 0 0 0
0:00:00.00 420179 N 0 0 0
0:00:00.00 420426 N 0 0 0
0:00:00.00 420671 N 0 0 0
0:00:00.00 420901 N 0 0 0
0:00:00.00 421132 N 0 0 0
0:00:00.00 421619 N 0 0 0
0:00:00.00 421852 N 0 0 0
0:00:00.00 422282 N 0 0 0
0:00:00.00 422507 N 0 0 0
0:00:00.00 422732 N 0 0 0
0:00:00.00 422948 N 0 0 0
0:00:00.00 423164 N 0 0 0
0:00:00.00 423374 N 0 0 0
0:00:00.00 423571 N 0 0 0
0:00:00.00 423765 N 0 0 0
0:00:00.00 423950 N 0 0 0
0:00:00.00 424138 N 0 0 0
0:00:00.00 424323 N 0 0 0
0:00:00.00 424512 N 0 0 0
0:00:00.00 424701 N 0 0 0
0:00:00.00 424886 N 0 0 0
0:00:00.00 425072 N 0 0 0
0:00:00.00 425254 N 0 0 0
0:00:00.00 425430 N 0 0 0
0:00:00.00 425601 N 0 0 0
0:00:00.00 425777 N 0 0 0
0:00:00.00 425947 N 0 0 0
0:00:00.00 426112 N 0 0 0
0:00:00.00 426278 N 0 0 0
0:00:00.00 426436 N 0 0 0
0:00:00.00 426598 N 0 0 0
0:00:00.00 426769 N 0 0 0
0:00:00.00 426951 N 0 0 0
0:00:00.00 427133 N 0 0 0
0:00:00.00 427304 N 0 0 0
0:00:00.00 427475 N 0 0 0
0:00:00.00 427633 N 0 0 0
0:00:00.00 427804 N 0 0 0
0:00:00.00 427979 N 0 0 0
0:00:00.00 428143 N 0 0 0
0:00:00.00 428317 N 0 0 0
0:00:00.00 428494 N 0 0 0
0:00:00.00 428677 N 0 0 0
0:00:00.00 428870 N 0 0 0
0:00:00.00 429071 N 0 0 0
0:00:00.00 429275 N 0 0 0
0:00:00.00 429482 N 0 0 0
0:00:00.00 429687 N 0 0 0
0:00:00.00 429878 N 0 0 0
0:00:00.00 429962 N 0 0 0
0:00:00.00 430067 N 0 0 0
0:00:00.00 430245 N 0 0 0
0:00:00.00 430429 N 0 0 0
0:00:00.00 430619 N 0 0 0
0:00:00.00 430798 N 0 0 0
0:00:00.00 430996 N 0 0 0
0:00:00.00 431195 N 0 0 0
0:00:00.00 431406 N 0 0 0
0:00:00.00 431609 N 0 0 0
0:00:00.00 431809 N 0 0 0
0:00:00.00 432000 N 0 0 0
0:00:00.00 432194 N 0 0 0
0:00:00.00 432389 N 0 0 0
0:00:00.00 432571 N 0 0 0
0:00:00.00 432758 N 0 0 0
0:00:00.00 432934 N 0 0 0
0:00:00.00 433129 N 0 0 0
0:00:00.00 433334 N 0 0 0
0:00:00.00 433528 N 0 0 0
0:00:00.00 433726 N 0 0 0
0:00:00.00 433924 N 0 0 0
0:00:00.00 434108 N 0 0 0
0:00:00.00 434295 N 0 0 0
0:00:00.00 434479 N 0 0 0
0:00:00.00 434668 N 0 0 0
0:00:00.00 434858 N 0 0 0
0:00:00.00 435044 N 0 0 0
0:00:00.00 435226 N 0 0 0
0:00:00.00 435420 N 0 0 0
0:00:00.00 435625 N 0 0 0
0:00:00.00 435827 N 0 0 0
0:00:00.00 436028 N 0 0 0
0:00:00.00 436225 N 0 0 0
0:00:00.00 436428 N 0 0 0
0:00:00.00 436630 N 0 0 0
0:00:00.00 436831 N 0 0 0
0:00:00.00 437045 N 0 0 0
0:00:00.00 437229 N 0 0 0
0:00:00.00 437431 N 0 0 0
0:00:00.00 437647 N 0 0 0
0:00:00.00 437861 N 0 0 0
0:00:00.00 438077 N 0 0 0
0:00:00.00 438696 N 0 0 0
0:00:00.00 438896 N 0 0 0
0:00:00.00 439096 N 0 0 0
0:00:00.00 439295 N 0 0 0
0:00:00.00 439484 N 0 0 0
0:00:00.00 439686 N 0 0 0
0:00:00.00 440122 N 0 0 0
0:00:00.00 440336 N 0 0 0
0:00:00.00 440730 N 0 0 0
0:00:00.00 440921 N 0 0 0
0:00:00.00 441112 N 0 0 0
0:00:00.00 441301 N 0 0 0
0:00:00.00 441488 N 0 0 0
0:00:00.00 441677 N 0 0 0
0:00:00.00 441886 N 0 0 0
0:00:00.00 442103 N 0 0 0
0:00:00.00 442327 N 0 0 0
0:00:00.00 442764 N 0 0 0
0:00:00.00 442973 N 0 0 0
0:00:00.00 443178 N 0 0 0
0:00:00.00 443381 N 0 0 0
0:00:00.00 443579 N 0 0 0
0:00:00.00 443777 N 0 0 0
0:00:00.00 443930 N 0 0 0
0:00:00.00 444010 N 0 0 0
0:00:00.00 444200 N 0 0 0
0:00:00.00 444413 N 0 0 0
0:00:00.00 444625 N 0 0 0
0:00:00.00 444823 N 0 0 0
0:00:00.00 445025 N 0 0 0
0:00:00.00 445417 N 0 0 0
0:00:00.00 445617 N 0 0 0
0:00:00.00 445810 N 0 0 0
0:00:00.00 445995 N 0 0 0
0:00:00.00 446189 N 0 0 0
0:00:00.00 446387 N 0 0 0
0:00:00.00 446593 N 0 0 0
0:00:00.00 446783 N 0 0 0
0:00:00.00 446985 N 0 0 0
0:00:00.00 447188 N 0 0 0
0:00:00.00 447386 N 0 0 0
0:00:00.00 447579 N 0 0 0
0:00:00.00 447768 N 0 0 0
0:00:00.00 447964 N 0 0 0
0:00:00.00 448169 N 0 0 0
0:00:00.00 448657 N 0 0 0
0:00:00.00 449087 N 0 0 0
0:00:00.00 449298 N 0 0 0
0:00:00.00 449505 N 0 0 0
0:00:00.00 449739 N 0 0 0
0:00:00.00 449964 N 0 0 0
0:00:00.00 450166 N 0 0 0
0:00:00.00 450385 N 0 0 0
0:00:00.00 450612 N 0 0 0
0:00:00.00 451089 N 0 0 0
0:00:00.00 451305 N 0 0 0
0:00:00.00 451762 N 0 0 0
0:00:00.00 451989 N 0 0 0
0:00:00.00 452430 N 0 0 0
0:00:00.00 452651 N 0 0 0
0:00:00.00 453101 N 0 0 0
0:00:00.00 453328 N 0 0 0
0:00:00.00 453544 N 0 0 0
0:00:00.00 453758 N 0 0 0
0:00:00.00 453967 N 0 0 0
0:00:00.00 454109 N 0 0 0
0:00:00.00 454183 N 0 0 0
0:00:00.00 454388 N 0 0 0
0:00:00.00 454583 N 0 0 0
0:00:00.00 454784 N 0 0 0
0:00:00.00 455000 N 0 0 0
0:00:00.00 455215 N 0 0 0
0:00:00.00 455438 N 0 0 0
0:00:00.00 455663 N 0 0 0
0:00:00.00 455868 N 0 0 0
0:00:00.00 456091 N 0 0 0
0:00:00.00 456460 N 0 0 0
0:00:00.00 456703 N 0 0 0
0:00:00.00 456899 N 0 0 0
0:00:00.00 457099 N 0 0 0
0:00:00.00 457303 N 0 0 0
0:00:00.00 457495 N 0 0 0
0:00:00.00 458399 N 0 0 0
0:00:00.00 458474 N 0 0 0
0:00:00.00 458561 N 0 0 0
0:00:00.00 458645 N 0 0 0
0:00:00.00 458800 N 0 0 0
0:00:00.00 458989 N 0 0 0
0:00:00.00 459182 N 0 0 0
0:00:00.00 459385 N 0 0 0
0:00:00.00 459599 N 0 0 0
0:00:00.00 460073 N 0 0 0
0:00:00.00 460289 N 0 0 0
0:00:00.00 460726 N 0 0 0
0:00:00.00 460924 N 0 0 0
0:00:00.00 461115 N 0 0 0
0:00:00.00 461329 N 0 0 0
0:00:00.00 461552 N 0 0 0
0:00:00.00 461774 N 0 0 0
0:00:00.00 462002 N 0 0 0
0:00:00.00 462218 N 0 0 0
0:00:00.00 462429 N 0 0 0
0:00:00.00 462641 N 0 0 0
0:00:00.00 462845 N 0 0 0
0:00:00.00 463045 N 0 0 0
0:00:00.00 463252 N 0 0 0
0:00:00.00 463471 N 0 0 0
0:00:00.00 463968 N 0 0 0
0:00:00.00 464215 N 0 0 0
0:00:00.00 464683 N 0 0 0
0:00:00.00 464888 N 0 0 0
0:00:00.00 465089 N 0 0 0
0:00:00.00 465286 N 0 0 0
0:00:00.00 465489 N 0 0 0
0:00:00.00 465698 N 0 0 0
0:00:00.00 465908 N 0 0 0
0:00:00.00 466108 N 0 0 0
0:00:00.00 466304 N 0 0 0
0:00:00.00 466493 N 0 0 0
0:00:00.00 466691 N 0 0 0
0:00:00.00 466893 N 0 0 0
0:00:00.00 467091 N 0 0 0
0:00:00.00 467285 N 0 0 0
0:00:00.00 467473 N 0 0 0
0:00:00.00 467680 N 0 0 0
0:00:00.00 467912 N 0 0 0
0:00:00.00 468135 N 0 0 0
0:00:00.00 468351 N 0 0 0
0:00:00.00 468578 N 0 0 0
0:00:00.00 468797 N 0 0 0
0:00:00.00 469015 N 0 0 0
0:00:00.00 469228 N 0 0 0
0:00:00.00 469436 N 0 0 0
0:00:00.00 469625 N 0 0 0
0:00:00.00 469827 N 0 0 0
0:00:00.00 470027 N 0 0 0
0:00:00.00 470232 N 0 0 0
0:00:00.00 470443 N 0 0 0
0:00:00.00 470644 N 0 0 0
0:00:00.00 470844 N 0 0 0
0:00:00.00 471038 N 0 0 0
0:00:00.00 471240 N 0 0 0
0:00:00.00 471442 N 0 0 0
0:00:00.00 471883 N 0 0 0
0:00:00.00 472127 N 0 0 0
0:00:00.00 472354 N 0 0 0
0:00:00.00 472849 N 0 0 0
0:00:00.00 473065 N 0 0 0
0:00:00.00 473261 N 0 0 0
0:00:00.00 473465 N 0 0 0
0:00:00.00 473665 N 0 0 0
0:00:00.00 474145 N 0 0 0
0:00:00.00 474655 N 0 0 0
0:00:00.00 474898 N 0 0 0
0:00:00.00 475340 N 0 0 0
0:00:00.00 475551 N 0 0 0
0:00:00.00 475760 N 0 0 0
0:00:00.00 475958 N 0 0 0
0:00:00.00 476411 N 0 0 0
0:00:00.00 476629 N 0 0 0
0:00:00.00 476847 N 0 0 0
0:00:00.00 477063 N 0 0 0
0:00:00.00 477290 N 0 0 0
0:00:00.00 477504 N 0 0 0
0:00:00.00 477932 N 0 0 0
0:00:00.00 478130 N 0 0 0
0:00:00.00 478316 N 0 0 0
0:00:00.00 478510 N 0 0 0
0:00:00.00 478706 N 0 0 0
0:00:00.00 478904 N 0 0 0
0:00:00.00 479101 N 0 0 0
0:00:00.00 479291 N 0 0 0
0:00:00.00 479484 N 0 0 0
0:00:00.00 479696 N 0 0 0
0:00:00.00 479930 N 0 0 0
0:00:00.00 480404 N 0 0 0
0:00:00.00 480825 N 0 0 0
0:00:00.00 481036 N 0 0 0
0:00:00.00 481252 N 0 0 0
0:00:00.00 481475 N 0 0 0
0:00:00.00 481707 N 0 0 0
0:00:00.00 482186 N 0 0 0
0:00:00.00 482602 N 0 0 0
0:00:00.00 482816 N 0 0 0
0:00:00.00 483026 N 0 0 0
0:00:00.00 483255 N 0 0 0
0:00:00.00 483484 N 0 0 0
0:00:00.00 483948 N 0 0 0
0:00:00.00 484162 N 0 0 0
0:00:00.00 484355 N 0 0 0
0:00:00.00 484547 N 0 0 0
0:00:00.00 484799 N 0 0 0
0:00:00.00 485231 N 0 0 0
0:00:00.00 485464 N 0 0 0
0:00:00.00 485915 N 0 0 0
0:00:00.00 486115 N 0 0 0
0:00:00.00 486536 N 0 0 0
0:00:00.00 486747 N 0 0 0
0:00:00.00 486943 N 0 0 0
0:00:00.00 487211 N 0 0 0
0:00:00.00 487661 N 0 0 0
0:00:00.00 487876 N 0 0 0
0:00:00.00 488077 N 0 0 0
0:00:00.00 488273 N 0 0 0
0:00:00.00 488462 N 0 0 0
0:00:00.00 488644 N 0 0 0
0:00:00.00 488826 N 0 0 0
0:00:00.00 489002 N 0 0 0
0:00:00.00 489173 N 0 0 0
0:00:00.00 489359 N 0 0 0
0:00:00.00 489548 N 0 0 0
0:00:00.00 489746 N 0 0 0
0:00:00.00 489942 N 0 0 0
0:00:00.00 490149 N 0 0 0
0:00:00.00 490349 N 0 0 0
0:00:00.00 490558 N 0 0 0
0:00:00.00 490757 N 0 0 0
0:00:00.00 490952 N 0 0 0
0:00:00.00 491143 N 0 0 0
0:00:00.00 491319 N 0 0 0
0:00:00.00 491519 N 0 0 0
0:00:00.00 491726 N 0 0 0
0:00:00.00 491936 N 0 0 0
0:00:00.00 492147 N 0 0 0
0:00:00.00 492358 N 0 0 0
0:00:00.00 492791 N 0 0 0
0:00:00.00 493007 N 0 0 0
0:00:00.00 493436 N 0 0 0
0:00:00.00 493648 N 0 0 0
0:00:00.00 494138 N 0 0 0
0:00:00.00 494615 N 0 0 0
0:00:00.00 494831 N 0 0 0
0:00:00.00 495045 N 0 0 0
0:00:00.00 495254 N 0 0 0
0:00:00.00 495461 N 0 0 0
0:00:00.00 495652 N 0 0 0
0:00:00.00 495864 N 0 0 0
0:00:00.00 496102 N 0 0 0
0:00:00.00 496631 N 0 0 0
0:00:00.00 497104 N 0 0 0
0:00:00.00 497331 N 0 0 0
0:00:00.00 497547 N 0 0 0
0:00:00.00 497727 N 0 0 0
0:00:00.00 498010 N 0 0 0
0:00:00.00 499916 N 0 0 0
0:00:00.00 500400 N 0 0 0
0:00:00.00 500632 N 0 0 0
0:00:00.00 500850 N 0 0 0
0:00:00.00 501071 N 0 0 0
0:00:00.00 501291 N 0 0 0
0:00:00.00 501725 N 0 0 0
0:00:00.00 501926 N 0 0 0
0:00:00.00 502367 N 0 0 0
0:00:00.00 502598 N 0 0 0
0:00:00.00 502816 N 0 0 0
0:00:00.00 503046 N 0 0 0
0:00:00.00 503264 N 0 0 0
0:00:00.00 503762 N 0 0 0
0:00:00.00 503989 N 0 0 0
0:00:00.00 504202 N 0 0 0
0:00:00.00 504425 N 0 0 0
0:00:00.00 504653 N 0 0 0
0:00:00.00 505116 N 0 0 0
0:00:00.00 505343 N 0 0 0
0:00:00.00 505834 N 0 0 0
0:00:00.00 506059 N 0 0 0
0:00:00.00 506448 N 0 0 0
0:00:00.00 506720 N 0 0 0
0:00:00.00 507163 N 0 0 0
0:00:00.00 507370 N 0 0 0
0:00:00.00 507578 N 0 0 0
0:00:00.00 507989 N 0 0 0
0:00:00.00 508190 N 0 0 0
0:00:00.00 508387 N 0 0 0
0:00:00.00 508586 N 0 0 0
0:00:00.00 508788 N 0 0 0
0:00:00.00 508993 N 0 0 0
0:00:00.00 509422 N 0 0 0
0:00:00.00 509629 N 0 0 0
0:00:00.00 509827 N 0 0 0
0:00:00.00 510026 N 0 0 0
0:00:00.00 510226 N 0 0 0
0:00:00.00 510426 N 0 0 0
0:00:00.00 510849 N 0 0 0
0:00:00.00 511072 N 0 0 0
0:00:00.00 511560 N 0 0 0
0:00:00.00 511794 N 0 0 0
0:00:00.00 512021 N 0 0 0
0:00:00.00 512219 N 0 0 0
0:00:00.00 512460 N 0 0 0
0:00:00.00 512662 N 0 0 0
0:00:00.00 512870 N 0 0 0
0:00:00.00 513085 N 0 0 0
0:00:00.00 513311 N 0 0 0
0:00:00.00 513553 N 0 0 0
0:00:00.00 513774 N 0 0 0
0:00:00.00 513988 N 0 0 0
0:00:00.00 514195 N 0 0 0
0:00:00.00 514409 N 0 0 0
0:00:00.00 514627 N 0 0 0
0:00:00.00 514827 N 0 0 0
0:00:00.00 515020 N 0 0 0
0:00:00.00 515232 N 0 0 0
0:00:00.00 515716 N 0 0 0
0:00:00.00 516206 N 0 0 0
0:00:00.00 516429 N 0 0 0
0:00:00.00 516645 N 0 0 0
0:00:00.00 516859 N 0 0 0
0:00:00.00 517073 N 0 0 0
0:00:00.00 517284 N 0 0 0
0:00:00.00 517500 N 0 0 0
0:00:00.00 517707 N 0 0 0
0:00:00.00 517921 N 0 0 0
0:00:00.00 518132 N 0 0 0
0:00:00.00 518346 N 0 0 0
0:00:00.00 518576 N 0 0 0
0:00:00.00 518771 N 0 0 0
0:00:00.00 519039 N 0 0 0
0:00:00.00 519442 N 0 0 0
0:00:00.00 519656 N 0 0 0
0:00:00.00 519876 N 0 0 0
0:00:00.00 520094 N 0 0 0
0:00:00.00 520319 N 0 0 0
0:00:00.00 520745 N 0 0 0
0:00:00.00 520965 N 0 0 0
0:00:00.00 521415 N 0 0 0
0:00:00.00 521624 N 0 0 0
0:00:00.00 522077 N 0 0 0
0:00:00.00 522315 N 0 0 0
0:00:00.00 522790 N 0 0 0
0:00:00.00 523008 N 0 0 0
0:00:00.00 523210 N 0 0 0
0:00:00.00 523395 N 0 0 0
0:00:00.00 523618 N 0 0 0
0:00:00.00 523813 N 0 0 0
0:00:00.00 524030 N 0 0 0
0:00:00.00 524263 N 0 0 0
0:00:00.00 524727 N 0 0 0
0:00:00.00 524930 N 0 0 0
0:00:00.00 525145 N 0 0 0
0:00:00.00 525352 N 0 0 0
0:00:00.00 525555 N 0 0 0
0:00:00.00 525744 N 0 0 0
0:00:00.00 525935 N 0 0 0
0:00:00.00 526145 N 0 0 0
0:00:00.00 526351 N 0 0 0
0:00:00.00 526770 N 0 0 0
0:00:00.00 526988 N 0 0 0
0:00:00.00 527465 N 0 0 0
0:00:00.00 527684 N 0 0 0
0:00:00.00 528122 N 0 0 0
0:00:00.00 528563 N 0 0 0
0:00:00.00 528772 N 0 0 0
0:00:00.00 528973 N 0 0 0
0:00:00.00 529177 N 0 0 0
0:00:00.00 529389 N 0 0 0
0:00:00.00 529603 N 0 0 0
0:00:00.00 530041 N 0 0 0
0:00:00.00 530244 N 0 0 0
0:00:00.00 530692 N 0 0 0
0:00:00.00 530914 N 0 0 0
0:00:00.00 531320 N 0 0 0
0:00:00.00 531527 N 0 0 0
0:00:00.00 531722 N 0 0 0
0:00:00.00 531927 N 0 0 0
0:00:00.00 532161 N 0 0 0
0:00:00.00 532606 N 0 0 0
0:00:00.00 532843 N 0 0 0
0:00:00.00 533347 N 0 0 0
0:00:00.00 533574 N 0 0 0
0:00:00.00 533992 N 0 0 0
0:00:00.00 534224 N 0 0 0
0:00:00.00 534424 N 0 0 0
0:00:00.00 534622 N 0 0 0
0:00:00.00 534827 N 0 0 0
0:00:00.00 535021 N 0 0 0
0:00:00.00 535217 N 0 0 0
0:00:00.00 535406 N 0 0 0
0:00:00.00 535603 N 0 0 0
0:00:00.00 535817 N 0 0 0
0:00:00.00 536044 N 0 0 0
0:00:00.00 536283 N 0 0 0
0:00:00.00 536760 N 0 0 0
0:00:00.00 537242 N 0 0 0
0:00:00.00 537480 N 0 0 0
0:00:00.00 537696 N 0 0 0
0:00:00.00 537896 N 0 0 0
0:00:00.00 538096 N 0 0 0
0:00:00.00 538295 N 0 0 0
0:00:00.00 538499 N 0 0 0
0:00:00.00 538709 N 0 0 0
0:00:00.00 539152 N 0 0 0
0:00:00.00 539368 N 0 0 0
0:00:00.00 539802 N 0 0 0
0:00:00.00 540016 N 0 0 0
0:00:00.00 540230 N 0 0 0
0:00:00.00 540445 N 0 0 0
0:00:00.00 540644 N 0 0 0
0:00:00.00 540848 N 0 0 0
0:00:00.00 541042 N 0 0 0
0:00:00.00 541251 N 0 0 0
0:00:00.00 541467 N 0 0 0
0:00:00.00 541904 N 0 0 0
0:00:00.00 542113 N 0 0 0
0:00:00.00 542518 N 0 0 0
0:00:00.00 542722 N 0 0 0
0:00:00.00 543125 N 0 0 0
0:00:00.00 543326 N 0 0 0
0:00:00.00 543775 N 0 0 0
0:00:00.00 543994 N 0 0 0
0:00:00.00 544451 N 0 0 0
0:00:00.00 544671 N 0 0 0
0:00:00.00 545110 N 0 0 0
0:00:00.00 545315 N 0 0 0
0:00:00.00 545521 N 0 0 0
0:00:00.00 545733 N 0 0 0
0:00:00.00 545938 N 0 0 0
0:00:00.00 546381 N 0 0 0
0:00:00.00 546588 N 0 0 0
0:00:00.00 546997 N 0 0 0
0:00:00.00 547184 N 0 0 0
0:00:00.00 547376 N 0 0 0
0:00:00.00 547564 N 0 0 0
0:00:00.00 547767 N 0 0 0
0:00:00.00 547974 N 0 0 0
0:00:00.00 548384 N 0 0 0
0:00:00.00 548582 N 0 0 0
0:00:00.00 548788 N 0 0 0
0:00:00.00 548995 N 0 0 0
0:00:00.00 549198 N 0 0 0
0:00:00.00 549398 N 0 0 0
0:00:00.00 549580 N 0 0 0
0:00:00.00 549783 N 0 0 0
0:00:00.00 549997 N 0 0 0
0:00:00.00 550211 N 0 0 0
0:00:00.00 550426 N 0 0 0
0:00:00.00 550629 N 0 0 0
0:00:00.00 550843 N 0 0 0
0:00:00.00 551014 N 0 0 0
0:00:00.00 551088 N 0 0 0
0:00:00.00 551196 N 0 0 0
0:00:00.00 551390 N 0 0 0
0:00:00.00 551594 N 0 0 0
0:00:00.00 551792 N 0 0 0
0:00:00.00 552006 N 0 0 0
0:00:00.00 552451 N 0 0 0
0:00:00.00 552661 N 0 0 0
0:00:00.00 552856 N 0 0 0
0:00:00.00 553059 N 0 0 0
0:00:00.00 553261 N 0 0 0
0:00:00.00 553464 N 0 0 0
0:00:00.00 553684 N 0 0 0
0:00:00.00 553876 N 0 0 0
0:00:00.00 554094 N 0 0 0
0:00:00.00 554317 N 0 0 0
0:00:00.00 554596 N 0 0 0
0:00:00.00 555044 N 0 0 0
0:00:00.00 555257 N 0 0 0
0:00:00.00 555466 N 0 0 0
0:00:00.00 555671 N 0 0 0
0:00:00.00 555887 N 0 0 0
0:00:00.00 556366 N 0 0 0
0:00:00.00 556585 N 0 0 0
0:00:00.00 556805 N 0 0 0
0:00:00.00 557014 N 0 0 0
0:00:00.00 557253 N 0 0 0
0:00:00.00 557689 N 0 0 0
0:00:00.00 557885 N 0 0 0
0:00:00.00 558074 N 0 0 0
0:00:00.00 558479 N 0 0 0
0:00:00.00 558706 N 0 0 0
0:00:00.00 558923 N 0 0 0
0:00:00.00 559132 N 0 0 0
0:00:00.00 559332 N 0 0 0
0:00:00.00 559541 N 0 0 0
0:00:00.00 559759 N 0 0 0
0:00:00.00 559987 N 0 0 0
0:00:00.00 560203 N 0 0 0
0:00:00.00 560407 N 0 0 0
0:00:00.00 560626 N 0 0 0
0:00:00.00 560867 N 0 0 0
0:00:00.00 561103 N 0 0 0
0:00:00.00 561344 N 0 0 0
0:00:00.00 561559 N 0 0 0
0:00:00.00 561778 N 0 0 0
0:00:00.00 562014 N 0 0 0
0:00:00.00 562244 N 0 0 0
0:00:00.00 562457 N 0 0 0
0:00:00.00 562680 N 0 0 0
0:00:00.00 562910 N 0 0 0
0:00:00.00 563414 N 0 0 0
0:00:00.00 563647 N 0 0 0
0:00:00.00 564129 N 0 0 0
0:00:00.00 564347 N 0 0 0
0:00:00.00 564808 N 0 0 0
0:00:00.00 565054 N 0 0 0
0:00:00.00 565283 N 0 0 0
0:00:00.00 565538 N 0 0 0
0:00:00.00 565780 N 0 0 0
0:00:00.00 566253 N 0 0 0
0:00:00.00 566485 N 0 0 0
0:00:00.00 566941 N 0 0 0
0:00:00.00 567166 N 0 0 0
0:00:00.00 567671 N 0 0 0
0:00:00.00 567900 N 0 0 0
0:00:00.00 568375 N 0 0 0
0:00:00.00 568606 N 0 0 0
0:00:00.00 568814 N 0 0 0
0:00:00.00 569061 N 0 0 0
0:00:00.00 569309 N 0 0 0
0:00:00.00 569808 N 0 0 0
0:00:00.00 570056 N 0 0 0
0:00:00.00 570283 N 0 0 0
0:00:00.00 570559 N 0 0 0
0:00:00.00 570784 N 0 0 0
0:00:00.00 571252 N 0 0 0
0:00:00.00 571480 N 0 0 0
0:00:00.00 571988 N 0 0 0
0:00:00.00 572229 N 0 0 0
0:00:00.00 572695 N 0 0 0
0:00:00.00 572942 N 0 0 0
0:00:00.00 573152 N 0 0 0
0:00:00.00 573435 N 0 0 0
0:00:00.00 573671 N 0 0 0
0:00:00.00 573939 N 0 0 0
0:00:00.00 574186 N 0 0 0
0:00:00.00 574668 N 0 0 0
0:00:00.00 574907 N 0 0 0
0:00:00.00 575118 N 0 0 0
0:00:00.00 575370 N 0 0 0
0:00:00.00 575595 N 0 0 0
0:00:00.00 576092 N 0 0 0
0:00:00.00 576324 N 0 0 0
0:00:00.00 576830 N 0 0 0
0:00:00.00 577060 N 0 0 0
0:00:00.00 577469 N 0 0 0
0:00:00.00 577773 N 0 0 0
0:00:00.00 578261 N 0 0 0
0:00:00.00 578495 N 0 0 0
0:00:00.00 578972 N 0 0 0
0:00:00.00 579199 N 0 0 0
0:00:00.00 579686 N 0 0 0
0:00:00.00 579920 N 0 0 0
0:00:00.00 580450 N 0 0 0
0:00:00.00 580703 N 0 0 0
0:00:00.00 580948 N 0 0 0
0:00:00.00 581456 N 0 0 0
0:00:00.00 581702 N 0 0 0
0:00:00.00 581920 N 0 0 0
0:00:00.00 582181 N 0 0 0
0:00:00.00 582442 N 0 0 0
0:00:00.00 582979 N 0 0 0
0:00:00.00 583214 N 0 0 0
0:00:00.00 583391 N 0 0 0
0:00:00.00 583722 N 0 0 0
0:00:00.00 583929 N 0 0 0
0:00:00.00 584195 N 0 0 0
0:00:00.00 584429 N 0 0 0
0:00:00.00 584667 N 0 0 0
0:00:00.00 584935 N 0 0 0
0:00:00.00 585187 N 0 0 0
0:00:00.00 585400 N 0 0 0
0:00:00.00 585684 N 0 0 0
0:00:00.00 585916 N 0 0 0
0:00:00.00 586111 N 0 0 0
0:00:00.00 586463 N 0 0 0
0:00:00.00 586672 N 0 0 0
0:00:00.00 586973 N 0 0 0
0:00:00.00 587214 N 0 0 0
0:00:00.00 587722 N 0 0 0
0:00:00.00 588181 N 0 0 0
0:00:00.00 588397 N 0 0 0
0:00:00.00 588611 N 0 0 0
0:00:00.00 588850 N 0 0 0
0:00:00.00 589104 N 0 0 0
0:00:00.00 589639 N 0 0 0
0:00:00.00 590135 N 0 0 0
0:00:00.00 590380 N 0 0 0
0:00:00.00 590881 N 0 0 0
0:00:00.00 591129 N 0 0 0
0:00:00.00 591656 N 0 0 0
0:00:00.00 591894 N 0 0 0
0:00:00.00 592412 N 0 0 0
0:00:00.00 592657 N 0 0 0
0:00:00.00 593154 N 0 0 0
0:00:00.00 593408 N 0 0 0
0:00:00.00 593926 N 0 0 0
0:00:00.00 594401 N 0 0 0
0:00:00.00 594619 N 0 0 0
0:00:00.00 594833 N 0 0 0
0:00:00.00 595049 N 0 0 0
0:00:00.00 595274 N 0 0 0
0:00:00.00 595782 N 0 0 0
0:00:00.00 596016 N 0 0 0
0:00:00.00 596497 N 0 0 0
0:00:00.00 596740 N 0 0 0
0:00:00.00 597204 N 0 0 0
0:00:00.00 597434 N 0 0 0
0:00:00.00 597938 N 0 0 0
0:00:00.00 598172 N 0 0 0
0:00:00.00 598642 N 0 0 0
0:00:00.00 598885 N 0 0 0
0:00:00.00 599350 N 0 0 0
0:00:00.00 599576 N 0 0 0
0:00:00.00 599798 N 0 0 0
0:00:00.00 600012 N 0 0 0
0:00:00.00 600235 N 0 0 0
0:00:00.00 600458 N 0 0 0
0:00:00.00 600687 N 0 0 0
0:00:00.00 600905 N 0 0 0
0:00:00.00 601126 N 0 0 0
0:00:00.00 601344 N 0 0 0
0:00:00.00 601558 N 0 0 0
0:00:00.00 602084 N 0 0 0
0:00:00.00 602336 N 0 0 0
0:00:00.00 602833 N 0 0 0
0:00:00.00 603331 N 0 0 0
0:00:00.00 603554 N 0 0 0
0:00:00.00 603734 N 0 0 0
0:00:00.00 604046 N 0 0 0
0:00:00.00 604264 N 0 0 0
0:00:00.00 604561 N 0 0 0
0:00:00.00 604796 N 0 0 0
0:00:00.00 605286 N 0 0 0
0:00:00.00 605747 N 0 0 0
0:00:00.00 605972 N 0 0 0
0:00:00.00 606204 N 0 0 0
0:00:00.00 606411 N 0 0 0
0:00:00.00 606740 N 0 0 0
0:00:00.00 606947 N 0 0 0
0:00:00.00 607235 N 0 0 0
0:00:00.00 607471 N 0 0 0
0:00:00.00 607664 N 0 0 0
0:00:00.00 608015 N 0 0 0
0:00:00.00 608272 N 0 0 0
0:00:00.00 608530 N 0 0 0
0:00:00.00 608798 N 0 0 0
0:00:00.00 609145 N 0 0 0
0:00:00.00 609304 N 0 0 0
0:00:00.00 609579 N 0 0 0
0:00:00.00 609793 N 0 0 0
0:00:00.00 610112 N 0 0 0
0:00:00.00 610337 N 0 0 0
0:00:00.00 610634 N 0 0 0
0:00:00.00 610875 N 0 0 0
0:00:00.00 611066 N 0 0 0
0:00:00.00 611433 N 0 0 0
0:00:00.00 611649 N 0 0 0
0:00:00.00 611834 N 0 0 0
0:00:00.00 612160 N 0 0 0
0:00:00.00 612365 N 0 0 0
0:00:00.00 612619 N 0 0 0
0:00:00.00 612859 N 0 0 0
0:00:00.00 613085 N 0 0 0
0:00:00.00 613355 N 0 0 0
0:00:00.00 613586 N 0 0 0
0:00:00.00 614110 N 0 0 0
0:00:00.00 614347 N 0 0 0
0:00:00.00 614556 N 0 0 0
0:00:00.00 614844 N 0 0 0
0:00:00.00 615085 N 0 0 0
0:00:00.00 615407 N 0 0 0
0:00:00.00 615641 N 0 0 0
0:00:00.00 615825 N 0 0 0
0:00:00.00 616185 N 0 0 0
0:00:00.00 616390 N 0 0 0
0:00:00.00 616703 N 0 0 0
0:00:00.00 616943 N 0 0 0
0:00:00.00 617197 N 0 0 0
0:00:00.00 617467 N 0 0 0
0:00:00.00 617971 N 0 0 0
0:00:00.00 618203 N 0 0 0
0:00:00.00 618696 N 0 0 0
0:00:00.00 618923 N 0 0 0
0:00:00.00 619159 N 0 0 0
0:00:00.00 619477 N 0 0 0
0:00:00.00 619724 N 0 0 0
0:00:00.00 620237 N 0 0 0
0:00:00.00 620449 N 0 0 0
0:00:00.00 620734 N 0 0 0
0:00:00.00 620957 N 0 0 0
0:00:00.00 621466 N 0 0 0
0:00:00.00 621967 N 0 0 0
0:00:00.00 622202 N 0 0 0
0:00:00.00 622609 N 0 0 0
0:00:00.00 622903 N 0 0 0
0:00:00.00 623108 N 0 0 0
0:00:00.00 623381 N 0 0 0
0:00:00.00 623619 N 0 0 0
0:00:00.00 624020 N 0 0 0
0:00:00.00 624359 N 0 0 0
0:00:00.00 624591 N 0 0 0
0:00:00.00 625055 N 0 0 0
0:00:00.00 625491 N 0 0 0
0:00:00.00 625736 N 0 0 0
0:00:00.00 625970 N 0 0 0
0:00:00.00 626220 N 0 0 0
0:00:00.00 626458 N 0 0 0
0:00:00.00 626960 N 0 0 0
0:00:00.00 627183 N 0 0 0
0:00:00.00 627370 N 0 0 0
0:00:00.00 627698 N 0 0 0
0:00:00.00 627916 N 0 0 0
0:00:00.00 628209 N 0 0 0
0:00:00.00 628456 N 0 0 0
0:00:00.00 628628 N 0 0 0
0:00:00.00 628943 N 0 0 0
0:00:00.00 629150 N 0 0 0
0:00:00.00 629399 N 0 0 0
0:00:00.00 629606 N 0 0 0
0:00:00.00 629838 N 0 0 0
0:00:00.00 630079 N 0 0 0
0:00:00.00 630374 N 0 0 0
0:00:00.00 630601 N 0 0 0
0:00:00.00 630783 N 0 0 0
0:00:00.00 631129 N 0 0 0
0:00:00.00 631334 N 0 0 0
0:00:00.00 631633 N 0 0 0
0:00:00.00 631850 N 0 0 0
0:00:00.00 632045 N 0 0 0
0:00:00.00 632380 N 0 0 0
0:00:00.00 632603 N 0 0 0
0:00:00.00 632873 N 0 0 0
0:00:00.00 633094 N 0 0 0
0:00:00.00 633307 N 0 0 0
0:00:00.00 633497 N 0 0 0
0:00:00.00 633798 N 0 0 0
0:00:00.00 634000 N 0 0 0
0:00:00.00 634262 N 0 0 0
0:00:00.00 634496 N 0 0 0
0:00:00.00 634739 N 0 0 0
0:00:00.00 634939 N 0 0 0
0:00:00.00 635256 N 0 0 0
0:00:00.00 635472 N 0 0 0
0:00:00.00 635720 N 0 0 0
0:00:00.00 635944 N 0 0 0
0:00:00.00 636156 N 0 0 0
0:00:00.00 636359 N 0 0 0
0:00:00.00 636705 N 0 0 0
0:00:00.00 636921 N 0 0 0
0:00:00.00 637180 N 0 0 0
0:00:00.00 637418 N 0 0 0
0:00:00.00 637632 N 0 0 0
0:00:00.00 637832 N 0 0 0
0:00:00.00 638134 N 0 0 0
0:00:00.00 638343 N 0 0 0
0:00:00.00 638640 N 0 0 0
0:00:00.00 638883 N 0 0 0
0:00:00.00 639133 N 0 0 0
0:00:00.00 639371 N 0 0 0
0:00:00.00 639851 N 0 0 0
0:00:00.00 640082 N 0 0 0
0:00:00.00 640499 N 0 0 0
0:00:00.00 640836 N 0 0 0
0:00:00.00 641329 N 0 0 0
0:00:00.00 641565 N 0 0 0
0:00:00.00 641934 N 0 0 0
0:00:00.00 642071 N 0 0 0
0:00:00.00 642281 N 0 0 0
0:00:00.00 642492 N 0 0 0
0:00:00.00 642730 N 0 0 0
0:00:00.00 643000 N 0 0 0
0:00:00.00 643243 N 0 0 0
0:00:00.00 643473 N 0 0 0
0:00:00.00 643732 N 0 0 0
0:00:00.00 643972 N 0 0 0
0:00:00.00 644193 N 0 0 0
0:00:00.00 644458 N 0 0 0
0:00:00.00 644683 N 0 0 0
0:00:00.00 645154 N 0 0 0
0:00:00.00 645390 N 0 0 0
0:00:00.00 645611 N 0 0 0
0:00:00.00 645835 N 0 0 0
0:00:00.00 646067 N 0 0 0
0:00:00.00 646290 N 0 0 0
0:00:00.00 646542 N 0 0 0
0:00:00.00 646765 N 0 0 0
0:00:00.00 646990 N 0 0 0
0:00:00.00 647287 N 0 0 0
0:00:00.00 647530 N 0 0 0
0:00:00.00 647701 N 0 0 0
0:00:00.00 648036 N 0 0 0
0:00:00.00 648245 N 0 0 0
0:00:00.00 648524 N 0 0 0
0:00:00.00 648749 N 0 0 0
0:00:00.00 648911 N 0 0 0
0:00:00.00 649206 N 0 0 0
0:00:00.00 649706 N 0 0 0
0:00:00.00 649939 N 0 0 0
