0:00:00.00 47 N 0 0 0
0:00:00.00 126 N 0 0 0
0:00:00.00 214 N 0 0 0
0:00:00.00 425 N 0 0 0
0:00:00.00 661 N 0 0 0
0:00:00.00 891 N 0 0 0
0:00:00.00 1116 N 0 0 0
0:00:00.00 1337 N 0 0 0
0:00:00.00 1553 N 0 0 0
0:00:00.00 1771 N 0 0 0
0:00:00.00 2000 N 0 0 0
0:00:00.00 2236 N 0 0 0
0:00:00.00 2477 N 0 0 0
0:00:00.00 2707 N 0 0 0
0:00:00.00 2934 N 0 0 0
0:00:00.00 3164 N 0 0 0
0:00:00.00 3389 N 0 0 0
0:00:00.00 3618 N 0 0 0
0:00:00.00 3845 N 0 0 0
0:00:00.00 4061 N 0 0 0
0:00:00.00 4293 N 0 0 0
0:00:00.00 4529 N 0 0 0
0:00:00.00 4766 N 0 0 0
0:00:00.00 5009 N 0 0 0
0:00:00.00 5247 N 0 0 0
0:00:00.00 5479 N 0 0 0
0:00:00.00 5701 N 0 0 0
0:00:00.00 5927 N 0 0 0
0:00:00.00 6147 N 0 0 0
0:00:00.00 6374 N 0 0 0
0:00:00.00 6622 N 0 0 0
0:00:00.00 6863 N 0 0 0
0:00:00.00 7105 N 0 0 0
0:00:00.00 7340 N 0 0 0
0:00:00.00 7569 N 0 0 0
0:00:00.00 7803 N 0 0 0
0:00:00.00 8039 N 0 0 0
0:00:00.00 8260 N 0 0 0
0:00:00.00 8492 N 0 0 0
0:00:00.00 8726 N 0 0 0
0:00:00.00 8968 N 0 0 0
0:00:00.00 9203 N 0 0 0
0:00:00.00 9430 N 0 0 0
0:00:00.00 9666 N 0 0 0
0:00:00.00 9905 N 0 0 0
0:00:00.00 10138 N 0 0 0
0:00:00.00 10372 N 0 0 0
0:00:00.00 10600 N 0 0 0
0:00:00.00 10845 N 0 0 0
0:00:00.00 11101 N 0 0 0
0:00:00.00 11351 N 0 0 0
0:00:00.00 11594 N 0 0 0
0:00:00.00 11830 N 0 0 0
0:00:00.00 12065 N 0 0 0
0:00:00.00 12303 N 0 0 0
0:00:00.00 12530 N 0 0 0
0:00:00.00 12757 N 0 0 0
0:00:00.00 13005 N 0 0 0
0:00:00.00 13246 N 0 0 0
0:00:00.00 13487 N 0 0 0
0:00:00.00 13720 N 0 0 0
0:00:00.00 13954 N 0 0 0
0:00:00.00 14186 N 0 0 0
0:00:00.00 14413 N 0 0 0
0:00:00.00 14639 N 0 0 0
0:00:00.00 14848 N 0 0 0
0:00:00.00 15075 N 0 0 0
0:00:00.00 15316 N 0 0 0
0:00:00.00 15552 N 0 0 0
0:00:00.00 15781 N 0 0 0
0:00:00.00 16020 N 0 0 0
0:00:00.00 16245 N 0 0 0
0:00:00.00 16474 N 0 0 0
0:00:00.00 16691 N 0 0 0
0:00:00.00 16913 N 0 0 0
0:00:00.00 17145 N 0 0 0
0:00:00.00 17381 N 0 0 0
0:00:00.00 17618 N 0 0 0
0:00:00.00 17849 N 0 0 0
0:00:00.00 18076 N 0 0 0
0:00:00.00 18302 N 0 0 0
0:00:00.00 18522 N 0 0 0
0:00:00.00 18749 N 0 0 0
0:00:00.00 18974 N 0 0 0
0:00:00.00 19148 N 0 0 0
0:00:00.00 19404 N 0 0 0
0:00:00.00 19640 N 0 0 0
0:00:00.00 19874 N 0 0 0
0:00:00.00 20108 N 0 0 0
0:00:00.00 20335 N 0 0 0
0:00:00.00 20558 N 0 0 0
0:00:00.00 20779 N 0 0 0
0:00:00.00 20995 N 0 0 0
0:00:00.00 21209 N 0 0 0
0:00:00.00 21431 N 0 0 0
0:00:00.00 21667 N 0 0 0
0:00:00.00 21911 N 0 0 0
0:00:00.00 22158 N 0 0 0
0:00:00.00 22388 N 0 0 0
0:00:00.00 22619 N 0 0 0
0:00:00.00 22840 N 0 0 0
0:00:00.00 23065 N 0 0 0
0:00:00.00 23292 N 0 0 0
0:00:00.00 23503 N 0 0 0
0:00:00.00 23731 N 0 0 0
0:00:00.00 23960 N 0 0 0
0:00:00.00 24169 N 0 0 0
0:00:00.00 24417 N 0 0 0
0:00:00.00 24640 N 0 0 0
0:00:00.00 24871 N 0 0 0
0:00:00.00 25096 N 0 0 0
0:00:00.00 25313 N 0 0 0
0:00:00.00 25495 N 0 0 0
0:00:00.00 25736 N 0 0 0
0:00:00.00 25969 N 0 0 0
0:00:00.00 26208 N 0 0 0
0:00:00.00 26444 N 0 0 0
0:00:00.00 26671 N 0 0 0
0:00:00.00 26890 N 0 0 0
0:00:00.00 27115 N 0 0 0
0:00:00.00 27338 N 0 0 0
0:00:00.00 27553 N 0 0 0
0:00:00.00 27763 N 0 0 0
0:00:00.00 27985 N 0 0 0
0:00:00.00 28219 N 0 0 0
0:00:00.00 28451 N 0 0 0
0:00:00.00 28678 N 0 0 0
0:00:00.00 28903 N 0 0 0
0:00:00.00 29133 N 0 0 0
0:00:00.00 29356 N 0 0 0
0:00:00.00 29574 N 0 0 0
0:00:00.00 29783 N 0 0 0
0:00:00.00 29999 N 0 0 0
0:00:00.00 30224 N 0 0 0
0:00:00.00 30456 N 0 0 0
0:00:00.00 30692 N 0 0 0
0:00:00.00 30924 N 0 0 0
0:00:00.00 31154 N 0 0 0
0:00:00.00 31383 N 0 0 0
0:00:00.00 31613 N 0 0 0
0:00:00.00 31835 N 0 0 0
0:00:00.00 32058 N 0 0 0
0:00:00.00 32299 N 0 0 0
0:00:00.00 32544 N 0 0 0
0:00:00.00 32789 N 0 0 0
0:00:00.00 33028 N 0 0 0
0:00:00.00 33260 N 0 0 0
0:00:00.00 33493 N 0 0 0
0:00:00.00 33719 N 0 0 0
0:00:00.00 33919 N 0 0 0
0:00:00.00 34169 N 0 0 0
0:00:00.00 34389 N 0 0 0
0:00:00.00 34621 N 0 0 0
0:00:00.00 34855 N 0 0 0
0:00:00.00 35096 N 0 0 0
0:00:00.00 35332 N 0 0 0
0:00:00.00 35559 N 0 0 0
0:00:00.00 35784 N 0 0 0
0:00:00.00 36002 N 0 0 0
0:00:00.00 36171 N 0 0 0
0:00:00.00 36409 N 0 0 0
0:00:00.00 36643 N 0 0 0
0:00:00.00 36877 N 0 0 0
0:00:00.00 37116 N 0 0 0
0:00:00.00 37341 N 0 0 0
0:00:00.00 37573 N 0 0 0
0:00:00.00 37795 N 0 0 0
0:00:00.00 38016 N 0 0 0
0:00:00.00 38243 N 0 0 0
0:00:00.00 38461 N 0 0 0
0:00:00.00 38675 N 0 0 0
0:00:00.00 38898 N 0 0 0
0:00:00.00 39130 N 0 0 0
0:00:00.00 39364 N 0 0 0
0:00:00.00 39587 N 0 0 0
0:00:00.00 39812 N 0 0 0
0:00:00.00 40039 N 0 0 0
0:00:00.00 40261 N 0 0 0
0:00:00.00 40477 N 0 0 0
0:00:00.00 40685 N 0 0 0
0:00:00.00 40909 N 0 0 0
0:00:00.00 41143 N 0 0 0
0:00:00.00 41377 N 0 0 0
0:00:00.00 41611 N 0 0 0
0:00:00.00 41834 N 0 0 0
0:00:00.00 42059 N 0 0 0
0:00:00.00 42277 N 0 0 0
0:00:00.00 42451 N 0 0 0
0:00:00.00 42710 N 0 0 0
0:00:00.00 42932 N 0 0 0
0:00:00.00 43173 N 0 0 0
0:00:00.00 43416 N 0 0 0
0:00:00.00 43643 N 0 0 0
0:00:00.00 43888 N 0 0 0
0:00:00.00 44123 N 0 0 0
0:00:00.00 44357 N 0 0 0
0:00:00.00 44581 N 0 0 0
0:00:00.00 44804 N 0 0 0
0:00:00.00 45014 N 0 0 0
0:00:00.00 45238 N 0 0 0
0:00:00.00 45468 N 0 0 0
0:00:00.00 45702 N 0 0 0
0:00:00.00 45938 N 0 0 0
0:00:00.00 46165 N 0 0 0
0:00:00.00 46388 N 0 0 0
0:00:00.00 46609 N 0 0 0
0:00:00.00 46827 N 0 0 0
0:00:00.00 47050 N 0 0 0
0:00:00.00 47270 N 0 0 0
0:00:00.00 47500 N 0 0 0
0:00:00.00 47738 N 0 0 0
0:00:00.00 47968 N 0 0 0
0:00:00.00 48199 N 0 0 0
0:00:00.00 48427 N 0 0 0
0:00:00.00 48656 N 0 0 0
0:00:00.00 48883 N 0 0 0
0:00:00.00 49111 N 0 0 0
0:00:00.00 49325 N 0 0 0
0:00:00.00 49552 N 0 0 0
0:00:00.00 49781 N 0 0 0
0:00:00.00 50018 N 0 0 0
0:00:00.00 50258 N 0 0 0
0:00:00.00 50488 N 0 0 0
0:00:00.00 50715 N 0 0 0
0:00:00.00 50936 N 0 0 0
0:00:00.00 51161 N 0 0 0
0:00:00.00 51386 N 0 0 0
0:00:00.00 51597 N 0 0 0
0:00:00.00 51835 N 0 0 0
0:00:00.00 52079 N 0 0 0
0:00:00.00 52319 N 0 0 0
0:00:00.00 52553 N 0 0 0
0:00:00.00 52780 N 0 0 0
0:00:00.00 53006 N 0 0 0
0:00:00.00 53233 N 0 0 0
0:00:00.00 53411 N 0 0 0
0:00:00.00 53649 N 0 0 0
0:00:00.00 53870 N 0 0 0
0:00:00.00 54095 N 0 0 0
0:00:00.00 54322 N 0 0 0
0:00:00.00 54549 N 0 0 0
0:00:00.00 54772 N 0 0 0
0:00:00.00 55001 N 0 0 0
0:00:00.00 55228 N 0 0 0
0:00:00.00 55447 N 0 0 0
0:00:00.00 55665 N 0 0 0
0:00:00.00 55876 N 0 0 0
0:00:00.00 56108 N 0 0 0
0:00:00.00 56349 N 0 0 0
0:00:00.00 56578 N 0 0 0
0:00:00.00 56745 N 0 0 0
0:00:00.00 56986 N 0 0 0
0:00:00.00 57215 N 0 0 0
0:00:00.00 57436 N 0 0 0
0:00:00.00 57650 N 0 0 0
0:00:00.00 57863 N 0 0 0
0:00:00.00 58088 N 0 0 0
0:00:00.00 58316 N 0 0 0
0:00:00.00 58550 N 0 0 0
0:00:00.00 58783 N 0 0 0
0:00:00.00 59011 N 0 0 0
0:00:00.00 59238 N 0 0 0
0:00:00.00 59467 N 0 0 0
0:00:00.00 59688 N 0 0 0
0:00:00.00 59909 N 0 0 0
0:00:00.00 60122 N 0 0 0
0:00:00.00 60345 N 0 0 0
0:00:00.00 60579 N 0 0 0
0:00:00.00 60818 N 0 0 0
0:00:00.00 61056 N 0 0 0
0:00:00.00 61292 N 0 0 0
0:00:00.00 61515 N 0 0 0
0:00:00.00 61738 N 0 0 0
0:00:00.00 61961 N 0 0 0
0:00:00.00 62192 N 0 0 0
0:00:00.00 62422 N 0 0 0
0:00:00.00 62662 N 0 0 0
0:00:00.00 62908 N 0 0 0
0:00:00.00 63148 N 0 0 0
0:00:00.00 63385 N 0 0 0
0:00:00.00 63623 N 0 0 0
0:00:00.00 63860 N 0 0 0
0:00:00.00 64096 N 0 0 0
0:00:00.00 64332 N 0 0 0
0:00:00.00 64550 N 0 0 0
0:00:00.00 64784 N 0 0 0
0:00:00.00 65020 N 0 0 0
0:00:00.00 65257 N 0 0 0
0:00:00.00 65500 N 0 0 0
0:00:00.00 65727 N 0 0 0
0:00:00.00 65954 N 0 0 0
0:00:00.00 66175 N 0 0 0
0:00:00.00 66397 N 0 0 0
0:00:00.00 66614 N 0 0 0
0:00:00.00 66839 N 0 0 0
0:00:00.00 67079 N 0 0 0
0:00:00.00 67325 N 0 0 0
0:00:00.00 67554 N 0 0 0
0:00:00.00 67783 N 0 0 0
0:00:00.00 68009 N 0 0 0
0:00:00.00 68240 N 0 0 0
0:00:00.00 68468 N 0 0 0
0:00:00.00 68690 N 0 0 0
0:00:00.00 68908 N 0 0 0
0:00:00.00 69136 N 0 0 0
0:00:00.00 69367 N 0 0 0
0:00:00.00 69556 N 0 0 0
0:00:00.00 69817 N 0 0 0
0:00:00.00 70045 N 0 0 0
0:00:00.00 70277 N 0 0 0
0:00:00.00 70495 N 0 0 0
0:00:00.00 70713 N 0 0 0
0:00:00.00 70922 N 0 0 0
0:00:00.00 71147 N 0 0 0
0:00:00.00 71392 N 0 0 0
0:00:00.00 71636 N 0 0 0
0:00:00.00 71878 N 0 0 0
0:00:00.00 72104 N 0 0 0
0:00:00.00 72338 N 0 0 0
0:00:00.00 72571 N 0 0 0
0:00:00.00 72794 N 0 0 0
0:00:00.00 73021 N 0 0 0
0:00:00.00 73247 N 0 0 0
0:00:00.00 73480 N 0 0 0
0:00:00.00 73719 N 0 0 0
0:00:00.00 73951 N 0 0 0
0:00:00.00 74183 N 0 0 0
0:00:00.00 74414 N 0 0 0
0:00:00.00 74642 N 0 0 0
0:00:00.00 74869 N 0 0 0
0:00:00.00 75089 N 0 0 0
0:00:00.00 75299 N 0 0 0
0:00:00.00 75532 N 0 0 0
0:00:00.00 75767 N 0 0 0
0:00:00.00 76007 N 0 0 0
0:00:00.00 76252 N 0 0 0
0:00:00.00 76482 N 0 0 0
0:00:00.00 76718 N 0 0 0
0:00:00.00 76937 N 0 0 0
0:00:00.00 77162 N 0 0 0
0:00:00.00 77391 N 0 0 0
0:00:00.00 77614 N 0 0 0
0:00:00.00 77848 N 0 0 0
0:00:00.00 78079 N 0 0 0
0:00:00.00 78313 N 0 0 0
0:00:00.00 78547 N 0 0 0
0:00:00.00 78768 N 0 0 0
0:00:00.00 78995 N 0 0 0
0:00:00.00 79216 N 0 0 0
0:00:00.00 79427 N 0 0 0
0:00:00.00 79632 N 0 0 0
0:00:00.00 79850 N 0 0 0
0:00:00.00 80077 N 0 0 0
0:00:00.00 80305 N 0 0 0
0:00:00.00 80530 N 0 0 0
0:00:00.00 80746 N 0 0 0
0:00:00.00 80964 N 0 0 0
0:00:00.00 81175 N 0 0 0
0:00:00.00 81387 N 0 0 0
0:00:00.00 81603 N 0 0 0
0:00:00.00 81808 N 0 0 0
0:00:00.00 82030 N 0 0 0
0:00:00.00 82265 N 0 0 0
0:00:00.00 82494 N 0 0 0
0:00:00.00 82719 N 0 0 0
0:00:00.00 82933 N 0 0 0
0:00:00.00 83151 N 0 0 0
0:00:00.00 83371 N 0 0 0
0:00:00.00 83583 N 0 0 0
0:00:00.00 83795 N 0 0 0
0:00:00.00 83992 N 0 0 0
0:00:00.00 84215 N 0 0 0
0:00:00.00 84442 N 0 0 0
0:00:00.00 84665 N 0 0 0
0:00:00.00 84892 N 0 0 0
0:00:00.00 85111 N 0 0 0
0:00:00.00 85334 N 0 0 0
0:00:00.00 85547 N 0 0 0
0:00:00.00 85748 N 0 0 0
0:00:00.00 85970 N 0 0 0
0:00:00.00 86182 N 0 0 0
0:00:00.00 86414 N 0 0 0
0:00:00.00 86645 N 0 0 0
0:00:00.00 86875 N 0 0 0
0:00:00.00 87095 N 0 0 0
0:00:00.00 87309 N 0 0 0
0:00:00.00 87532 N 0 0 0
0:00:00.00 87745 N 0 0 0
0:00:00.00 87962 N 0 0 0
0:00:00.00 88178 N 0 0 0
0:00:00.00 88394 N 0 0 0
0:00:00.00 88619 N 0 0 0
0:00:00.00 88843 N 0 0 0
0:00:00.00 89069 N 0 0 0
0:00:00.00 89298 N 0 0 0
0:00:00.00 89523 N 0 0 0
0:00:00.00 89735 N 0 0 0
0:00:00.00 89950 N 0 0 0
0:00:00.00 90164 N 0 0 0
0:00:00.00 90367 N 0 0 0
0:00:00.00 90580 N 0 0 0
0:00:00.00 90794 N 0 0 0
0:00:00.00 91017 N 0 0 0
0:00:00.00 91242 N 0 0 0
0:00:00.00 91453 N 0 0 0
0:00:00.00 91661 N 0 0 0
0:00:00.00 91868 N 0 0 0
0:00:00.00 92074 N 0 0 0
0:00:00.00 92279 N 0 0 0
0:00:00.00 92488 N 0 0 0
0:00:00.00 92684 N 0 0 0
0:00:00.00 92894 N 0 0 0
0:00:00.00 93044 N 0 0 0
0:00:00.00 93287 N 0 0 0
0:00:00.00 93503 N 0 0 0
0:00:00.00 93706 N 0 0 0
0:00:00.00 93915 N 0 0 0
0:00:00.00 94120 N 0 0 0
0:00:00.00 94325 N 0 0 0
0:00:00.00 94525 N 0 0 0
0:00:00.00 94718 N 0 0 0
0:00:00.00 94918 N 0 0 0
0:00:00.00 95087 N 0 0 0
0:00:00.00 95332 N 0 0 0
0:00:00.00 95549 N 0 0 0
0:00:00.00 95753 N 0 0 0
0:00:00.00 95958 N 0 0 0
0:00:00.00 96122 N 0 0 0
0:00:00.00 96345 N 0 0 0
0:00:00.00 96541 N 0 0 0
0:00:00.00 96736 N 0 0 0
0:00:00.00 96926 N 0 0 0
0:00:00.00 97126 N 0 0 0
0:00:00.00 97339 N 0 0 0
0:00:00.00 97546 N 0 0 0
0:00:00.00 97753 N 0 0 0
0:00:00.00 97951 N 0 0 0
0:00:00.00 98149 N 0 0 0
0:00:00.00 98350 N 0 0 0
0:00:00.00 98554 N 0 0 0
0:00:00.00 98748 N 0 0 0
0:00:00.00 98941 N 0 0 0
0:00:00.00 99122 N 0 0 0
0:00:00.00 99324 N 0 0 0
0:00:00.00 99533 N 0 0 0
0:00:00.00 99736 N 0 0 0
0:00:00.00 99941 N 0 0 0
0:00:00.00 100145 N 0 0 0
0:00:00.00 100346 N 0 0 0
0:00:00.00 100543 N 0 0 0
0:00:00.00 100739 N 0 0 0
0:00:00.00 100928 N 0 0 0
0:00:00.00 101117 N 0 0 0
0:00:00.00 101306 N 0 0 0
0:00:00.00 101509 N 0 0 0
0:00:00.00 101711 N 0 0 0
0:00:00.00 101916 N 0 0 0
0:00:00.00 102114 N 0 0 0
0:00:00.00 102308 N 0 0 0
0:00:00.00 102501 N 0 0 0
0:00:00.00 102697 N 0 0 0
0:00:00.00 102886 N 0 0 0
0:00:00.00 103079 N 0 0 0
0:00:00.00 103268 N 0 0 0
0:00:00.00 103457 N 0 0 0
0:00:00.00 103653 N 0 0 0
0:00:00.00 103846 N 0 0 0
0:00:00.00 104051 N 0 0 0
0:00:00.00 104254 N 0 0 0
0:00:00.00 104459 N 0 0 0
0:00:00.00 104657 N 0 0 0
0:00:00.00 104852 N 0 0 0
0:00:00.00 105046 N 0 0 0
0:00:00.00 105235 N 0 0 0
0:00:00.00 105424 N 0 0 0
0:00:00.00 105611 N 0 0 0
0:00:00.00 105808 N 0 0 0
0:00:00.00 106011 N 0 0 0
0:00:00.00 106218 N 0 0 0
0:00:00.00 106425 N 0 0 0
0:00:00.00 106618 N 0 0 0
0:00:00.00 106816 N 0 0 0
0:00:00.00 107008 N 0 0 0
0:00:00.00 107199 N 0 0 0
0:00:00.00 107341 N 0 0 0
0:00:00.00 107546 N 0 0 0
0:00:00.00 107739 N 0 0 0
0:00:00.00 107942 N 0 0 0
0:00:00.00 108144 N 0 0 0
0:00:00.00 108344 N 0 0 0
0:00:00.00 108538 N 0 0 0
0:00:00.00 108742 N 0 0 0
0:00:00.00 108934 N 0 0 0
0:00:00.00 109132 N 0 0 0
0:00:00.00 109323 N 0 0 0
0:00:00.00 109516 N 0 0 0
0:00:00.00 109703 N 0 0 0
0:00:00.00 109881 N 0 0 0
0:00:00.00 110021 N 0 0 0
0:00:00.00 110234 N 0 0 0
0:00:00.00 110444 N 0 0 0
0:00:00.00 110659 N 0 0 0
0:00:00.00 110855 N 0 0 0
0:00:00.00 111046 N 0 0 0
0:00:00.00 111236 N 0 0 0
0:00:00.00 111429 N 0 0 0
0:00:00.00 111620 N 0 0 0
0:00:00.00 111809 N 0 0 0
0:00:00.00 111992 N 0 0 0
0:00:00.00 112187 N 0 0 0
0:00:00.00 112392 N 0 0 0
0:00:00.00 112541 N 0 0 0
0:00:00.00 112750 N 0 0 0
0:00:00.00 112955 N 0 0 0
0:00:00.00 113150 N 0 0 0
0:00:00.00 113348 N 0 0 0
0:00:00.00 113546 N 0 0 0
0:00:00.00 113738 N 0 0 0
0:00:00.00 113931 N 0 0 0
0:00:00.00 114111 N 0 0 0
0:00:00.00 114300 N 0 0 0
0:00:00.00 114494 N 0 0 0
0:00:00.00 114701 N 0 0 0
0:00:00.00 114903 N 0 0 0
0:00:00.00 115106 N 0 0 0
0:00:00.00 115306 N 0 0 0
0:00:00.00 115510 N 0 0 0
0:00:00.00 115704 N 0 0 0
0:00:00.00 115900 N 0 0 0
0:00:00.00 116089 N 0 0 0
0:00:00.00 116284 N 0 0 0
0:00:00.00 116485 N 0 0 0
0:00:00.00 116692 N 0 0 0
0:00:00.00 116901 N 0 0 0
0:00:00.00 117108 N 0 0 0
0:00:00.00 117317 N 0 0 0
0:00:00.00 117517 N 0 0 0
0:00:00.00 117724 N 0 0 0
0:00:00.00 117922 N 0 0 0
0:00:00.00 118089 N 0 0 0
0:00:00.00 118323 N 0 0 0
0:00:00.00 118517 N 0 0 0
0:00:00.00 118719 N 0 0 0
0:00:00.00 118928 N 0 0 0
0:00:00.00 119140 N 0 0 0
0:00:00.00 119351 N 0 0 0
0:00:00.00 119567 N 0 0 0
0:00:00.00 119770 N 0 0 0
0:00:00.00 119977 N 0 0 0
0:00:00.00 120170 N 0 0 0
0:00:00.00 120364 N 0 0 0
0:00:00.00 120566 N 0 0 0
0:00:00.00 120760 N 0 0 0
0:00:00.00 120969 N 0 0 0
0:00:00.00 121180 N 0 0 0
0:00:00.00 121394 N 0 0 0
0:00:00.00 121599 N 0 0 0
0:00:00.00 121797 N 0 0 0
0:00:00.00 121993 N 0 0 0
0:00:00.00 122189 N 0 0 0
0:00:00.00 122332 N 0 0 0
0:00:00.00 122569 N 0 0 0
0:00:00.00 122758 N 0 0 0
0:00:00.00 122956 N 0 0 0
0:00:00.00 123149 N 0 0 0
0:00:00.00 123361 N 0 0 0
0:00:00.00 123568 N 0 0 0
0:00:00.00 123772 N 0 0 0
0:00:00.00 123973 N 0 0 0
0:00:00.00 124130 N 0 0 0
0:00:00.00 124367 N 0 0 0
0:00:00.00 124562 N 0 0 0
0:00:00.00 124756 N 0 0 0
0:00:00.00 124943 N 0 0 0
0:00:00.00 125086 N 0 0 0
0:00:00.00 125305 N 0 0 0
0:00:00.00 125519 N 0 0 0
0:00:00.00 125723 N 0 0 0
0:00:00.00 125930 N 0 0 0
0:00:00.00 126076 N 0 0 0
0:00:00.00 126283 N 0 0 0
0:00:00.00 126466 N 0 0 0
0:00:00.00 126682 N 0 0 0
0:00:00.00 126875 N 0 0 0
0:00:00.00 127066 N 0 0 0
0:00:00.00 127260 N 0 0 0
0:00:00.00 127467 N 0 0 0
0:00:00.00 127672 N 0 0 0
0:00:00.00 127847 N 0 0 0
0:00:00.00 128070 N 0 0 0
0:00:00.00 128270 N 0 0 0
0:00:00.00 128473 N 0 0 0
0:00:00.00 128671 N 0 0 0
0:00:00.00 128804 N 0 0 0
0:00:00.00 129035 N 0 0 0
0:00:00.00 129222 N 0 0 0
0:00:00.00 129409 N 0 0 0
0:00:00.00 129613 N 0 0 0
0:00:00.00 129816 N 0 0 0
0:00:00.00 130027 N 0 0 0
0:00:00.00 130237 N 0 0 0
0:00:00.00 130439 N 0 0 0
0:00:00.00 130595 N 0 0 0
0:00:00.00 130822 N 0 0 0
0:00:00.00 131015 N 0 0 0
0:00:00.00 131206 N 0 0 0
0:00:00.00 131396 N 0 0 0
0:00:00.00 131596 N 0 0 0
0:00:00.00 131798 N 0 0 0
0:00:00.00 132007 N 0 0 0
0:00:00.00 132205 N 0 0 0
0:00:00.00 132408 N 0 0 0
0:00:00.00 132602 N 0 0 0
0:00:00.00 132799 N 0 0 0
0:00:00.00 132959 N 0 0 0
0:00:00.00 133182 N 0 0 0
0:00:00.00 133382 N 0 0 0
0:00:00.00 133569 N 0 0 0
0:00:00.00 133763 N 0 0 0
0:00:00.00 133965 N 0 0 0
0:00:00.00 134172 N 0 0 0
0:00:00.00 134383 N 0 0 0
0:00:00.00 134579 N 0 0 0
0:00:00.00 134786 N 0 0 0
0:00:00.00 134989 N 0 0 0
0:00:00.00 135184 N 0 0 0
0:00:00.00 135378 N 0 0 0
0:00:00.00 135536 N 0 0 0
0:00:00.00 135754 N 0 0 0
0:00:00.00 135952 N 0 0 0
0:00:00.00 136150 N 0 0 0
0:00:00.00 136370 N 0 0 0
0:00:00.00 136566 N 0 0 0
0:00:00.00 136782 N 0 0 0
0:00:00.00 136976 N 0 0 0
0:00:00.00 137173 N 0 0 0
0:00:00.00 137367 N 0 0 0
0:00:00.00 137565 N 0 0 0
0:00:00.00 137759 N 0 0 0
0:00:00.00 137907 N 0 0 0
0:00:00.00 138128 N 0 0 0
0:00:00.00 138332 N 0 0 0
0:00:00.00 138535 N 0 0 0
0:00:00.00 138742 N 0 0 0
0:00:00.00 138888 N 0 0 0
0:00:00.00 139104 N 0 0 0
0:00:00.00 139307 N 0 0 0
0:00:00.00 139507 N 0 0 0
0:00:00.00 139698 N 0 0 0
0:00:00.00 139891 N 0 0 0
0:00:00.00 140071 N 0 0 0
0:00:00.00 140265 N 0 0 0
0:00:00.00 140461 N 0 0 0
0:00:00.00 140674 N 0 0 0
0:00:00.00 140873 N 0 0 0
0:00:00.00 141077 N 0 0 0
0:00:00.00 141262 N 0 0 0
0:00:00.00 141430 N 0 0 0
0:00:00.00 141644 N 0 0 0
0:00:00.00 141838 N 0 0 0
0:00:00.00 142033 N 0 0 0
0:00:00.00 142218 N 0 0 0
0:00:00.00 142375 N 0 0 0
0:00:00.00 142610 N 0 0 0
0:00:00.00 142821 N 0 0 0
0:00:00.00 143024 N 0 0 0
0:00:00.00 143228 N 0 0 0
0:00:00.00 143429 N 0 0 0
0:00:00.00 143640 N 0 0 0
0:00:00.00 143836 N 0 0 0
0:00:00.00 144020 N 0 0 0
0:00:00.00 144227 N 0 0 0
0:00:00.00 144416 N 0 0 0
0:00:00.00 144616 N 0 0 0
0:00:00.00 144824 N 0 0 0
0:00:00.00 145031 N 0 0 0
0:00:00.00 145246 N 0 0 0
0:00:00.00 145456 N 0 0 0
0:00:00.00 145660 N 0 0 0
0:00:00.00 145859 N 0 0 0
0:00:00.00 146061 N 0 0 0
0:00:00.00 146261 N 0 0 0
0:00:00.00 146466 N 0 0 0
0:00:00.00 146668 N 0 0 0
0:00:00.00 146880 N 0 0 0
0:00:00.00 147103 N 0 0 0
0:00:00.00 147321 N 0 0 0
0:00:00.00 147537 N 0 0 0
0:00:00.00 147753 N 0 0 0
0:00:00.00 147967 N 0 0 0
0:00:00.00 148124 N 0 0 0
0:00:00.00 148381 N 0 0 0
0:00:00.00 148601 N 0 0 0
0:00:00.00 148806 N 0 0 0
0:00:00.00 149022 N 0 0 0
0:00:00.00 149240 N 0 0 0
0:00:00.00 149463 N 0 0 0
0:00:00.00 149692 N 0 0 0
0:00:00.00 149906 N 0 0 0
0:00:00.00 150122 N 0 0 0
0:00:00.00 150284 N 0 0 0
0:00:00.00 150530 N 0 0 0
0:00:00.00 150743 N 0 0 0
0:00:00.00 150941 N 0 0 0
0:00:00.00 151162 N 0 0 0
0:00:00.00 151389 N 0 0 0
0:00:00.00 151616 N 0 0 0
0:00:00.00 151769 N 0 0 0
0:00:00.00 151900 N 0 0 0
0:00:00.00 152033 N 0 0 0
0:00:00.00 152165 N 0 0 0
0:00:00.00 152300 N 0 0 0
0:00:00.00 152433 N 0 0 0
0:00:00.00 152568 N 0 0 0
0:00:00.00 152703 N 0 0 0
0:00:00.00 152834 N 0 0 0
0:00:00.00 152966 N 0 0 0
0:00:00.00 153095 N 0 0 0
0:00:00.00 153229 N 0 0 0
0:00:00.00 153369 N 0 0 0
0:00:00.00 153509 N 0 0 0
0:00:00.00 153652 N 0 0 0
0:00:00.00 153797 N 0 0 0
0:00:00.00 153934 N 0 0 0
0:00:00.00 154071 N 0 0 0
0:00:00.00 154204 N 0 0 0
0:00:00.00 154426 N 0 0 0
0:00:00.00 154645 N 0 0 0
0:00:00.00 154854 N 0 0 0
0:00:00.00 155056 N 0 0 0
0:00:00.00 155250 N 0 0 0
0:00:00.00 155466 N 0 0 0
0:00:00.00 155696 N 0 0 0
0:00:00.00 155855 N 0 0 0
0:00:00.00 155986 N 0 0 0
0:00:00.00 156200 N 0 0 0
0:00:00.00 156424 N 0 0 0
0:00:00.00 156640 N 0 0 0
0:00:00.00 156852 N 0 0 0
0:00:00.00 157073 N 0 0 0
0:00:00.00 157295 N 0 0 0
0:00:00.00 157514 N 0 0 0
0:00:00.00 157743 N 0 0 0
0:00:00.00 157981 N 0 0 0
0:00:00.00 158224 N 0 0 0
0:00:00.00 158459 N 0 0 0
0:00:00.00 158697 N 0 0 0
0:00:00.00 158924 N 0 0 0
0:00:00.00 159127 N 0 0 0
0:00:00.00 159370 N 0 0 0
0:00:00.00 159583 N 0 0 0
0:00:00.00 159817 N 0 0 0
0:00:00.00 160052 N 0 0 0
0:00:00.00 160294 N 0 0 0
0:00:00.00 160533 N 0 0 0
0:00:00.00 160754 N 0 0 0
0:00:00.00 160981 N 0 0 0
0:00:00.00 161204 N 0 0 0
0:00:00.00 161435 N 0 0 0
0:00:00.00 161660 N 0 0 0
0:00:00.00 161881 N 0 0 0
0:00:00.00 162121 N 0 0 0
0:00:00.00 162346 N 0 0 0
0:00:00.00 162596 N 0 0 0
0:00:00.00 162830 N 0 0 0
0:00:00.00 163064 N 0 0 0
0:00:00.00 163300 N 0 0 0
0:00:00.00 163534 N 0 0 0
0:00:00.00 163760 N 0 0 0
0:00:00.00 163982 N 0 0 0
0:00:00.00 164216 N 0 0 0
0:00:00.00 164462 N 0 0 0
0:00:00.00 164714 N 0 0 0
0:00:00.00 164952 N 0 0 0
0:00:00.00 165186 N 0 0 0
0:00:00.00 165415 N 0 0 0
0:00:00.00 165645 N 0 0 0
0:00:00.00 165872 N 0 0 0
0:00:00.00 166091 N 0 0 0
0:00:00.00 166331 N 0 0 0
0:00:00.00 166577 N 0 0 0
0:00:00.00 166819 N 0 0 0
0:00:00.00 167051 N 0 0 0
0:00:00.00 167279 N 0 0 0
0:00:00.00 167517 N 0 0 0
0:00:00.00 167708 N 0 0 0
0:00:00.00 167976 N 0 0 0
0:00:00.00 168196 N 0 0 0
0:00:00.00 168437 N 0 0 0
0:00:00.00 168678 N 0 0 0
0:00:00.00 168917 N 0 0 0
0:00:00.00 169159 N 0 0 0
0:00:00.00 169387 N 0 0 0
0:00:00.00 169618 N 0 0 0
0:00:00.00 169852 N 0 0 0
0:00:00.00 170077 N 0 0 0
0:00:00.00 170296 N 0 0 0
0:00:00.00 170532 N 0 0 0
0:00:00.00 170780 N 0 0 0
0:00:00.00 171029 N 0 0 0
0:00:00.00 171259 N 0 0 0
0:00:00.00 171488 N 0 0 0
0:00:00.00 171724 N 0 0 0
0:00:00.00 171950 N 0 0 0
0:00:00.00 172177 N 0 0 0
0:00:00.00 172404 N 0 0 0
0:00:00.00 172624 N 0 0 0
0:00:00.00 172861 N 0 0 0
0:00:00.00 173099 N 0 0 0
0:00:00.00 173342 N 0 0 0
0:00:00.00 173579 N 0 0 0
0:00:00.00 173812 N 0 0 0
0:00:00.00 173984 N 0 0 0
0:00:00.00 174247 N 0 0 0
0:00:00.00 174481 N 0 0 0
0:00:00.00 174701 N 0 0 0
0:00:00.00 174929 N 0 0 0
0:00:00.00 175169 N 0 0 0
0:00:00.00 175406 N 0 0 0
0:00:00.00 175644 N 0 0 0
0:00:00.00 175874 N 0 0 0
0:00:00.00 176099 N 0 0 0
0:00:00.00 176283 N 0 0 0
0:00:00.00 176546 N 0 0 0
0:00:00.00 176771 N 0 0 0
0:00:00.00 176999 N 0 0 0
0:00:00.00 177226 N 0 0 0
0:00:00.00 177466 N 0 0 0
0:00:00.00 177703 N 0 0 0
0:00:00.00 177930 N 0 0 0
0:00:00.00 178159 N 0 0 0
0:00:00.00 178389 N 0 0 0
0:00:00.00 178621 N 0 0 0
0:00:00.00 178844 N 0 0 0
0:00:00.00 179064 N 0 0 0
0:00:00.00 179300 N 0 0 0
0:00:00.00 179548 N 0 0 0
0:00:00.00 179791 N 0 0 0
0:00:00.00 180031 N 0 0 0
0:00:00.00 180257 N 0 0 0
0:00:00.00 180484 N 0 0 0
0:00:00.00 180704 N 0 0 0
0:00:00.00 180896 N 0 0 0
0:00:00.00 181136 N 0 0 0
0:00:00.00 181366 N 0 0 0
0:00:00.00 181598 N 0 0 0
0:00:00.00 181827 N 0 0 0
0:00:00.00 182054 N 0 0 0
0:00:00.00 182279 N 0 0 0
0:00:00.00 182516 N 0 0 0
0:00:00.00 182686 N 0 0 0
0:00:00.00 182824 N 0 0 0
0:00:00.00 183031 N 0 0 0
0:00:00.00 183301 N 0 0 0
0:00:00.00 183541 N 0 0 0
0:00:00.00 183782 N 0 0 0
0:00:00.00 184016 N 0 0 0
0:00:00.00 184252 N 0 0 0
0:00:00.00 184480 N 0 0 0
0:00:00.00 184705 N 0 0 0
0:00:00.00 184928 N 0 0 0
0:00:00.00 185144 N 0 0 0
0:00:00.00 185362 N 0 0 0
0:00:00.00 185555 N 0 0 0
0:00:00.00 185812 N 0 0 0
0:00:00.00 186050 N 0 0 0
0:00:00.00 186284 N 0 0 0
0:00:00.00 186514 N 0 0 0
0:00:00.00 186718 N 0 0 0
0:00:00.00 186971 N 0 0 0
0:00:00.00 187202 N 0 0 0
0:00:00.00 187430 N 0 0 0
0:00:00.00 187654 N 0 0 0
0:00:00.00 187835 N 0 0 0
0:00:00.00 188118 N 0 0 0
0:00:00.00 188354 N 0 0 0
0:00:00.00 188597 N 0 0 0
0:00:00.00 188829 N 0 0 0
0:00:00.00 189058 N 0 0 0
0:00:00.00 189283 N 0 0 0
0:00:00.00 189504 N 0 0 0
0:00:00.00 189724 N 0 0 0
0:00:00.00 189949 N 0 0 0
0:00:00.00 190184 N 0 0 0
0:00:00.00 190424 N 0 0 0
0:00:00.00 190665 N 0 0 0
0:00:00.00 190890 N 0 0 0
0:00:00.00 191117 N 0 0 0
0:00:00.00 191344 N 0 0 0
0:00:00.00 191570 N 0 0 0
0:00:00.00 191804 N 0 0 0
0:00:00.00 192028 N 0 0 0
0:00:00.00 192263 N 0 0 0
0:00:00.00 192505 N 0 0 0
0:00:00.00 192744 N 0 0 0
0:00:00.00 192983 N 0 0 0
0:00:00.00 193219 N 0 0 0
0:00:00.00 193451 N 0 0 0
0:00:00.00 193685 N 0 0 0
0:00:00.00 193912 N 0 0 0
0:00:00.00 194128 N 0 0 0
0:00:00.00 194360 N 0 0 0
0:00:00.00 194607 N 0 0 0
0:00:00.00 194850 N 0 0 0
0:00:00.00 195084 N 0 0 0
0:00:00.00 195316 N 0 0 0
0:00:00.00 195547 N 0 0 0
0:00:00.00 195754 N 0 0 0
0:00:00.00 195993 N 0 0 0
0:00:00.00 196214 N 0 0 0
0:00:00.00 196441 N 0 0 0
0:00:00.00 196677 N 0 0 0
0:00:00.00 196916 N 0 0 0
0:00:00.00 197150 N 0 0 0
0:00:00.00 197379 N 0 0 0
0:00:00.00 197609 N 0 0 0
0:00:00.00 197842 N 0 0 0
0:00:00.00 198067 N 0 0 0
0:00:00.00 198292 N 0 0 0
0:00:00.00 198502 N 0 0 0
0:00:00.00 198736 N 0 0 0
0:00:00.00 198952 N 0 0 0
0:00:00.00 199220 N 0 0 0
0:00:00.00 199462 N 0 0 0
0:00:00.00 199701 N 0 0 0
0:00:00.00 199933 N 0 0 0
0:00:00.00 200079 N 0 0 0
0:00:00.00 200212 N 0 0 0
0:00:00.00 200349 N 0 0 0
0:00:00.00 200506 N 0 0 0
0:00:00.00 200705 N 0 0 0
0:00:00.00 200873 N 0 0 0
0:00:00.00 201015 N 0 0 0
0:00:00.00 201159 N 0 0 0
0:00:00.00 201298 N 0 0 0
0:00:00.00 201440 N 0 0 0
0:00:00.00 201582 N 0 0 0
0:00:00.00 201715 N 0 0 0
0:00:00.00 201856 N 0 0 0
0:00:00.00 201987 N 0 0 0
0:00:00.00 202126 N 0 0 0
0:00:00.00 202262 N 0 0 0
0:00:00.00 202397 N 0 0 0
0:00:00.00 202536 N 0 0 0
0:00:00.00 202671 N 0 0 0
0:00:00.00 202799 N 0 0 0
0:00:00.00 202936 N 0 0 0
0:00:00.00 203072 N 0 0 0
0:00:00.00 203209 N 0 0 0
0:00:00.00 203350 N 0 0 0
0:00:00.00 203492 N 0 0 0
0:00:00.00 203634 N 0 0 0
0:00:00.00 203778 N 0 0 0
0:00:00.00 203913 N 0 0 0
0:00:00.00 204053 N 0 0 0
0:00:00.00 204190 N 0 0 0
0:00:00.00 204320 N 0 0 0
0:00:00.00 204451 N 0 0 0
0:00:00.00 204583 N 0 0 0
0:00:00.00 204710 N 0 0 0
0:00:00.00 204840 N 0 0 0
0:00:00.00 204961 N 0 0 0
0:00:00.00 205096 N 0 0 0
0:00:00.00 205234 N 0 0 0
0:00:00.00 205375 N 0 0 0
0:00:00.00 205519 N 0 0 0
0:00:00.00 205659 N 0 0 0
0:00:00.00 205798 N 0 0 0
0:00:00.00 205936 N 0 0 0
0:00:00.00 206068 N 0 0 0
0:00:00.00 206199 N 0 0 0
0:00:00.00 206334 N 0 0 0
0:00:00.00 206467 N 0 0 0
0:00:00.00 206602 N 0 0 0
0:00:00.00 206735 N 0 0 0
0:00:00.00 206863 N 0 0 0
0:00:00.00 206995 N 0 0 0
0:00:00.00 207122 N 0 0 0
0:00:00.00 207256 N 0 0 0
0:00:00.00 207396 N 0 0 0
0:00:00.00 207536 N 0 0 0
0:00:00.00 207673 N 0 0 0
0:00:00.00 207815 N 0 0 0
0:00:00.00 207949 N 0 0 0
0:00:00.00 208085 N 0 0 0
0:00:00.00 208222 N 0 0 0
0:00:00.00 208357 N 0 0 0
0:00:00.00 208496 N 0 0 0
0:00:00.00 208629 N 0 0 0
0:00:00.00 208764 N 0 0 0
0:00:00.00 208895 N 0 0 0
0:00:00.00 209032 N 0 0 0
0:00:00.00 209158 N 0 0 0
0:00:00.00 209284 N 0 0 0
0:00:00.00 209421 N 0 0 0
0:00:00.00 209561 N 0 0 0
0:00:00.00 209705 N 0 0 0
0:00:00.00 209844 N 0 0 0
0:00:00.00 209990 N 0 0 0
0:00:00.00 210181 N 0 0 0
0:00:00.00 210400 N 0 0 0
0:00:00.00 210613 N 0 0 0
0:00:00.00 210832 N 0 0 0
0:00:00.00 211043 N 0 0 0
0:00:00.00 211261 N 0 0 0
0:00:00.00 211486 N 0 0 0
0:00:00.00 211723 N 0 0 0
0:00:00.00 211968 N 0 0 0
0:00:00.00 212215 N 0 0 0
0:00:00.00 212463 N 0 0 0
0:00:00.00 212715 N 0 0 0
0:00:00.00 212951 N 0 0 0
0:00:00.00 213187 N 0 0 0
0:00:00.00 213413 N 0 0 0
0:00:00.00 213629 N 0 0 0
0:00:00.00 213802 N 0 0 0
0:00:00.00 214087 N 0 0 0
0:00:00.00 214328 N 0 0 0
0:00:00.00 214569 N 0 0 0
0:00:00.00 214792 N 0 0 0
0:00:00.00 215017 N 0 0 0
0:00:00.00 215235 N 0 0 0
0:00:00.00 215455 N 0 0 0
0:00:00.00 215674 N 0 0 0
0:00:00.00 215829 N 0 0 0
0:00:00.00 215966 N 0 0 0
0:00:00.00 216108 N 0 0 0
0:00:00.00 216243 N 0 0 0
0:00:00.00 216378 N 0 0 0
0:00:00.00 216518 N 0 0 0
0:00:00.00 216657 N 0 0 0
0:00:00.00 216796 N 0 0 0
0:00:00.00 216934 N 0 0 0
0:00:00.00 217071 N 0 0 0
0:00:00.00 217213 N 0 0 0
0:00:00.00 217350 N 0 0 0
0:00:00.00 217485 N 0 0 0
0:00:00.00 217629 N 0 0 0
0:00:00.00 217759 N 0 0 0
0:00:00.00 217890 N 0 0 0
0:00:00.00 218027 N 0 0 0
0:00:00.00 218165 N 0 0 0
0:00:00.00 218308 N 0 0 0
0:00:00.00 218448 N 0 0 0
0:00:00.00 218583 N 0 0 0
0:00:00.00 218725 N 0 0 0
0:00:00.00 218864 N 0 0 0
0:00:00.00 218995 N 0 0 0
0:00:00.00 219134 N 0 0 0
0:00:00.00 219269 N 0 0 0
0:00:00.00 219406 N 0 0 0
0:00:00.00 219541 N 0 0 0
0:00:00.00 219667 N 0 0 0
0:00:00.00 219800 N 0 0 0
0:00:00.00 219929 N 0 0 0
0:00:00.00 220050 N 0 0 0
0:00:00.00 220187 N 0 0 0
0:00:00.00 220324 N 0 0 0
0:00:00.00 220462 N 0 0 0
0:00:00.00 220606 N 0 0 0
0:00:00.00 220745 N 0 0 0
0:00:00.00 220883 N 0 0 0
0:00:00.00 221024 N 0 0 0
0:00:00.00 221152 N 0 0 0
0:00:00.00 221281 N 0 0 0
0:00:00.00 221413 N 0 0 0
0:00:00.00 221544 N 0 0 0
0:00:00.00 221679 N 0 0 0
0:00:00.00 221812 N 0 0 0
0:00:00.00 221940 N 0 0 0
0:00:00.00 222070 N 0 0 0
0:00:00.00 222194 N 0 0 0
0:00:00.00 222320 N 0 0 0
0:00:00.00 222462 N 0 0 0
0:00:00.00 222597 N 0 0 0
0:00:00.00 222736 N 0 0 0
0:00:00.00 222878 N 0 0 0
0:00:00.00 223013 N 0 0 0
0:00:00.00 223151 N 0 0 0
0:00:00.00 223290 N 0 0 0
0:00:00.00 223430 N 0 0 0
0:00:00.00 223569 N 0 0 0
0:00:00.00 223747 N 0 0 0
0:00:00.00 223942 N 0 0 0
0:00:00.00 224138 N 0 0 0
0:00:00.00 224323 N 0 0 0
0:00:00.00 224525 N 0 0 0
0:00:00.00 224744 N 0 0 0
0:00:00.00 224971 N 0 0 0
0:00:00.00 225214 N 0 0 0
0:00:00.00 225454 N 0 0 0
0:00:00.00 225702 N 0 0 0
0:00:00.00 225956 N 0 0 0
0:00:00.00 226202 N 0 0 0
0:00:00.00 226445 N 0 0 0
0:00:00.00 226692 N 0 0 0
0:00:00.00 226944 N 0 0 0
0:00:00.00 227194 N 0 0 0
0:00:00.00 227443 N 0 0 0
0:00:00.00 227687 N 0 0 0
0:00:00.00 227925 N 0 0 0
0:00:00.00 228152 N 0 0 0
0:00:00.00 228371 N 0 0 0
0:00:00.00 228596 N 0 0 0
0:00:00.00 228814 N 0 0 0
0:00:00.00 229046 N 0 0 0
0:00:00.00 229284 N 0 0 0
0:00:00.00 229457 N 0 0 0
0:00:00.00 229739 N 0 0 0
0:00:00.00 229966 N 0 0 0
0:00:00.00 230188 N 0 0 0
0:00:00.00 230407 N 0 0 0
0:00:00.00 230623 N 0 0 0
0:00:00.00 230841 N 0 0 0
0:00:00.00 231066 N 0 0 0
0:00:00.00 231300 N 0 0 0
0:00:00.00 231527 N 0 0 0
0:00:00.00 231752 N 0 0 0
0:00:00.00 231980 N 0 0 0
0:00:00.00 232198 N 0 0 0
0:00:00.00 232425 N 0 0 0
0:00:00.00 232607 N 0 0 0
0:00:00.00 232855 N 0 0 0
0:00:00.00 233071 N 0 0 0
0:00:00.00 233291 N 0 0 0
0:00:00.00 233527 N 0 0 0
0:00:00.00 233741 N 0 0 0
0:00:00.00 233991 N 0 0 0
0:00:00.00 234212 N 0 0 0
0:00:00.00 234430 N 0 0 0
0:00:00.00 234648 N 0 0 0
0:00:00.00 234819 N 0 0 0
0:00:00.00 235060 N 0 0 0
0:00:00.00 235282 N 0 0 0
0:00:00.00 235521 N 0 0 0
0:00:00.00 235760 N 0 0 0
0:00:00.00 235996 N 0 0 0
0:00:00.00 236223 N 0 0 0
0:00:00.00 236444 N 0 0 0
0:00:00.00 236671 N 0 0 0
0:00:00.00 236896 N 0 0 0
0:00:00.00 237112 N 0 0 0
0:00:00.00 237325 N 0 0 0
0:00:00.00 237550 N 0 0 0
0:00:00.00 237784 N 0 0 0
0:00:00.00 237998 N 0 0 0
0:00:00.00 238248 N 0 0 0
0:00:00.00 238475 N 0 0 0
0:00:00.00 238707 N 0 0 0
0:00:00.00 238925 N 0 0 0
0:00:00.00 239110 N 0 0 0
0:00:00.00 239357 N 0 0 0
0:00:00.00 239575 N 0 0 0
0:00:00.00 239810 N 0 0 0
0:00:00.00 240039 N 0 0 0
0:00:00.00 240232 N 0 0 0
0:00:00.00 240491 N 0 0 0
0:00:00.00 240714 N 0 0 0
0:00:00.00 240941 N 0 0 0
0:00:00.00 241162 N 0 0 0
0:00:00.00 241387 N 0 0 0
0:00:00.00 241601 N 0 0 0
0:00:00.00 241814 N 0 0 0
0:00:00.00 242039 N 0 0 0
0:00:00.00 242258 N 0 0 0
0:00:00.00 242482 N 0 0 0
0:00:00.00 242707 N 0 0 0
0:00:00.00 242926 N 0 0 0
0:00:00.00 243142 N 0 0 0
0:00:00.00 243353 N 0 0 0
0:00:00.00 243567 N 0 0 0
0:00:00.00 243774 N 0 0 0
0:00:00.00 243994 N 0 0 0
0:00:00.00 244217 N 0 0 0
0:00:00.00 244447 N 0 0 0
0:00:00.00 244685 N 0 0 0
0:00:00.00 244908 N 0 0 0
0:00:00.00 245129 N 0 0 0
0:00:00.00 245344 N 0 0 0
0:00:00.00 245567 N 0 0 0
0:00:00.00 245790 N 0 0 0
0:00:00.00 246004 N 0 0 0
0:00:00.00 246231 N 0 0 0
0:00:00.00 246442 N 0 0 0
0:00:00.00 246686 N 0 0 0
0:00:00.00 246919 N 0 0 0
0:00:00.00 247138 N 0 0 0
0:00:00.00 247363 N 0 0 0
0:00:00.00 247586 N 0 0 0
0:00:00.00 247802 N 0 0 0
0:00:00.00 248022 N 0 0 0
0:00:00.00 248229 N 0 0 0
0:00:00.00 248456 N 0 0 0
0:00:00.00 248693 N 0 0 0
0:00:00.00 248931 N 0 0 0
0:00:00.00 249161 N 0 0 0
0:00:00.00 249377 N 0 0 0
0:00:00.00 249597 N 0 0 0
0:00:00.00 249822 N 0 0 0
0:00:00.00 250036 N 0 0 0
0:00:00.00 250249 N 0 0 0
0:00:00.00 250470 N 0 0 0
0:00:00.00 250704 N 0 0 0
0:00:00.00 250934 N 0 0 0
0:00:00.00 251159 N 0 0 0
0:00:00.00 251379 N 0 0 0
0:00:00.00 251608 N 0 0 0
0:00:00.00 251836 N 0 0 0
0:00:00.00 252054 N 0 0 0
0:00:00.00 252272 N 0 0 0
0:00:00.00 252482 N 0 0 0
0:00:00.00 252697 N 0 0 0
0:00:00.00 252941 N 0 0 0
0:00:00.00 253174 N 0 0 0
0:00:00.00 253406 N 0 0 0
0:00:00.00 253633 N 0 0 0
0:00:00.00 253856 N 0 0 0
0:00:00.00 254077 N 0 0 0
0:00:00.00 254291 N 0 0 0
0:00:00.00 254509 N 0 0 0
0:00:00.00 254687 N 0 0 0
0:00:00.00 254950 N 0 0 0
0:00:00.00 255190 N 0 0 0
0:00:00.00 255415 N 0 0 0
0:00:00.00 255640 N 0 0 0
0:00:00.00 255829 N 0 0 0
0:00:00.00 256073 N 0 0 0
0:00:00.00 256297 N 0 0 0
0:00:00.00 256516 N 0 0 0
0:00:00.00 256732 N 0 0 0
0:00:00.00 256894 N 0 0 0
0:00:00.00 257153 N 0 0 0
0:00:00.00 257391 N 0 0 0
0:00:00.00 257630 N 0 0 0
0:00:00.00 257863 N 0 0 0
0:00:00.00 258084 N 0 0 0
0:00:00.00 258307 N 0 0 0
0:00:00.00 258525 N 0 0 0
0:00:00.00 258741 N 0 0 0
0:00:00.00 258955 N 0 0 0
0:00:00.00 259180 N 0 0 0
0:00:00.00 259418 N 0 0 0
0:00:00.00 259654 N 0 0 0
0:00:00.00 259880 N 0 0 0
0:00:00.00 260105 N 0 0 0
0:00:00.00 260329 N 0 0 0
0:00:00.00 260554 N 0 0 0
0:00:00.00 260784 N 0 0 0
0:00:00.00 261007 N 0 0 0
0:00:00.00 261225 N 0 0 0
0:00:00.00 261455 N 0 0 0
0:00:00.00 261695 N 0 0 0
0:00:00.00 261934 N 0 0 0
0:00:00.00 262159 N 0 0 0
0:00:00.00 262390 N 0 0 0
0:00:00.00 262622 N 0 0 0
0:00:00.00 262847 N 0 0 0
0:00:00.00 263045 N 0 0 0
0:00:00.00 263279 N 0 0 0
0:00:00.00 263513 N 0 0 0
0:00:00.00 263756 N 0 0 0
0:00:00.00 263995 N 0 0 0
0:00:00.00 264161 N 0 0 0
0:00:00.00 264307 N 0 0 0
0:00:00.00 264501 N 0 0 0
0:00:00.00 264670 N 0 0 0
0:00:00.00 264807 N 0 0 0
0:00:00.00 264944 N 0 0 0
0:00:00.00 265075 N 0 0 0
0:00:00.00 265210 N 0 0 0
0:00:00.00 265342 N 0 0 0
0:00:00.00 265473 N 0 0 0
0:00:00.00 265615 N 0 0 0
0:00:00.00 265757 N 0 0 0
0:00:00.00 265900 N 0 0 0
0:00:00.00 266045 N 0 0 0
0:00:00.00 266188 N 0 0 0
0:00:00.00 266328 N 0 0 0
0:00:00.00 266467 N 0 0 0
0:00:00.00 266605 N 0 0 0
0:00:00.00 266747 N 0 0 0
0:00:00.00 266893 N 0 0 0
0:00:00.00 267025 N 0 0 0
0:00:00.00 267158 N 0 0 0
0:00:00.00 267293 N 0 0 0
0:00:00.00 267424 N 0 0 0
0:00:00.00 267547 N 0 0 0
0:00:00.00 267680 N 0 0 0
0:00:00.00 267818 N 0 0 0
0:00:00.00 267957 N 0 0 0
0:00:00.00 268092 N 0 0 0
0:00:00.00 268229 N 0 0 0
0:00:00.00 268371 N 0 0 0
0:00:00.00 268508 N 0 0 0
0:00:00.00 268643 N 0 0 0
0:00:00.00 268780 N 0 0 0
0:00:00.00 268911 N 0 0 0
0:00:00.00 269044 N 0 0 0
0:00:00.00 269174 N 0 0 0
0:00:00.00 269302 N 0 0 0
0:00:00.00 269431 N 0 0 0
0:00:00.00 269557 N 0 0 0
0:00:00.00 269761 N 0 0 0
0:00:00.00 269971 N 0 0 0
0:00:00.00 270182 N 0 0 0
0:00:00.00 270389 N 0 0 0
0:00:00.00 270589 N 0 0 0
0:00:00.00 270790 N 0 0 0
0:00:00.00 270990 N 0 0 0
0:00:00.00 271184 N 0 0 0
0:00:00.00 271384 N 0 0 0
0:00:00.00 271586 N 0 0 0
0:00:00.00 271793 N 0 0 0
0:00:00.00 271915 N 0 0 0
0:00:00.00 272187 N 0 0 0
0:00:00.00 272412 N 0 0 0
0:00:00.00 272650 N 0 0 0
0:00:00.00 272891 N 0 0 0
0:00:00.00 273114 N 0 0 0
0:00:00.00 273337 N 0 0 0
0:00:00.00 273555 N 0 0 0
0:00:00.00 273771 N 0 0 0
0:00:00.00 273983 N 0 0 0
0:00:00.00 274192 N 0 0 0
0:00:00.00 274423 N 0 0 0
0:00:00.00 274649 N 0 0 0
0:00:00.00 274878 N 0 0 0
0:00:00.00 275096 N 0 0 0
0:00:00.00 275308 N 0 0 0
0:00:00.00 275515 N 0 0 0
0:00:00.00 275708 N 0 0 0
0:00:00.00 275936 N 0 0 0
0:00:00.00 276143 N 0 0 0
0:00:00.00 276345 N 0 0 0
0:00:00.00 276552 N 0 0 0
0:00:00.00 276768 N 0 0 0
0:00:00.00 276986 N 0 0 0
0:00:00.00 277198 N 0 0 0
0:00:00.00 277409 N 0 0 0
0:00:00.00 277618 N 0 0 0
0:00:00.00 277830 N 0 0 0
0:00:00.00 278032 N 0 0 0
0:00:00.00 278233 N 0 0 0
0:00:00.00 278426 N 0 0 0
0:00:00.00 278640 N 0 0 0
0:00:00.00 278863 N 0 0 0
0:00:00.00 279081 N 0 0 0
0:00:00.00 279234 N 0 0 0
0:00:00.00 279479 N 0 0 0
0:00:00.00 279695 N 0 0 0
0:00:00.00 279902 N 0 0 0
0:00:00.00 280112 N 0 0 0
0:00:00.00 280273 N 0 0 0
0:00:00.00 280503 N 0 0 0
0:00:00.00 280728 N 0 0 0
0:00:00.00 280960 N 0 0 0
0:00:00.00 281203 N 0 0 0
0:00:00.00 281439 N 0 0 0
0:00:00.00 281669 N 0 0 0
0:00:00.00 281912 N 0 0 0
0:00:00.00 282128 N 0 0 0
0:00:00.00 282364 N 0 0 0
0:00:00.00 282587 N 0 0 0
0:00:00.00 282807 N 0 0 0
0:00:00.00 283045 N 0 0 0
0:00:00.00 283275 N 0 0 0
0:00:00.00 283509 N 0 0 0
0:00:00.00 283741 N 0 0 0
0:00:00.00 283970 N 0 0 0
0:00:00.00 284197 N 0 0 0
0:00:00.00 284416 N 0 0 0
0:00:00.00 284643 N 0 0 0
0:00:00.00 284859 N 0 0 0
0:00:00.00 285014 N 0 0 0
0:00:00.00 285226 N 0 0 0
0:00:00.00 285401 N 0 0 0
0:00:00.00 285547 N 0 0 0
0:00:00.00 285692 N 0 0 0
0:00:00.00 285836 N 0 0 0
0:00:00.00 285973 N 0 0 0
0:00:00.00 286112 N 0 0 0
0:00:00.00 286252 N 0 0 0
0:00:00.00 286391 N 0 0 0
0:00:00.00 286528 N 0 0 0
0:00:00.00 286659 N 0 0 0
0:00:00.00 286792 N 0 0 0
0:00:00.00 286922 N 0 0 0
0:00:00.00 287048 N 0 0 0
0:00:00.00 287181 N 0 0 0
0:00:00.00 287318 N 0 0 0
0:00:00.00 287460 N 0 0 0
0:00:00.00 287599 N 0 0 0
0:00:00.00 287744 N 0 0 0
0:00:00.00 287894 N 0 0 0
0:00:00.00 288034 N 0 0 0
0:00:00.00 288167 N 0 0 0
0:00:00.00 288304 N 0 0 0
0:00:00.00 288428 N 0 0 0
0:00:00.00 288556 N 0 0 0
0:00:00.00 288688 N 0 0 0
0:00:00.00 288900 N 0 0 0
0:00:00.00 289141 N 0 0 0
0:00:00.00 289355 N 0 0 0
0:00:00.00 289573 N 0 0 0
0:00:00.00 289795 N 0 0 0
0:00:00.00 289998 N 0 0 0
0:00:00.00 290221 N 0 0 0
0:00:00.00 290430 N 0 0 0
0:00:00.00 290648 N 0 0 0
0:00:00.00 290871 N 0 0 0
0:00:00.00 291044 N 0 0 0
0:00:00.00 291301 N 0 0 0
0:00:00.00 291391 N 0 0 0
0:00:00.00 291524 N 0 0 0
0:00:00.00 291740 N 0 0 0
0:00:00.00 292000 N 0 0 0
0:00:00.00 292230 N 0 0 0
0:00:00.00 292459 N 0 0 0
0:00:00.00 292691 N 0 0 0
0:00:00.00 292914 N 0 0 0
0:00:00.00 293123 N 0 0 0
0:00:00.00 293355 N 0 0 0
0:00:00.00 293571 N 0 0 0
0:00:00.00 293809 N 0 0 0
0:00:00.00 294044 N 0 0 0
0:00:00.00 294224 N 0 0 0
0:00:00.00 294496 N 0 0 0
0:00:00.00 294728 N 0 0 0
0:00:00.00 294957 N 0 0 0
0:00:00.00 295173 N 0 0 0
0:00:00.00 295394 N 0 0 0
0:00:00.00 295609 N 0 0 0
0:00:00.00 295839 N 0 0 0
0:00:00.00 296068 N 0 0 0
0:00:00.00 296296 N 0 0 0
0:00:00.00 296525 N 0 0 0
0:00:00.00 296757 N 0 0 0
0:00:00.00 296982 N 0 0 0
0:00:00.00 297202 N 0 0 0
0:00:00.00 297427 N 0 0 0
0:00:00.00 297646 N 0 0 0
0:00:00.00 297859 N 0 0 0
0:00:00.00 298091 N 0 0 0
0:00:00.00 298328 N 0 0 0
0:00:00.00 298568 N 0 0 0
0:00:00.00 298807 N 0 0 0
0:00:00.00 299032 N 0 0 0
0:00:00.00 299263 N 0 0 0
0:00:00.00 299484 N 0 0 0
0:00:00.00 299711 N 0 0 0
0:00:00.00 299934 N 0 0 0
0:00:00.00 300164 N 0 0 0
0:00:00.00 300402 N 0 0 0
0:00:00.00 300638 N 0 0 0
0:00:00.00 300879 N 0 0 0
0:00:00.00 301109 N 0 0 0
0:00:00.00 301343 N 0 0 0
0:00:00.00 301572 N 0 0 0
0:00:00.00 301781 N 0 0 0
0:00:00.00 302027 N 0 0 0
0:00:00.00 302251 N 0 0 0
0:00:00.00 302488 N 0 0 0
0:00:00.00 302737 N 0 0 0
0:00:00.00 302981 N 0 0 0
0:00:00.00 303215 N 0 0 0
0:00:00.00 303449 N 0 0 0
0:00:00.00 303678 N 0 0 0
0:00:00.00 303889 N 0 0 0
0:00:00.00 304146 N 0 0 0
0:00:00.00 304376 N 0 0 0
0:00:00.00 304610 N 0 0 0
0:00:00.00 304852 N 0 0 0
0:00:00.00 305086 N 0 0 0
0:00:00.00 305314 N 0 0 0
0:00:00.00 305532 N 0 0 0
0:00:00.00 305761 N 0 0 0
0:00:00.00 305993 N 0 0 0
0:00:00.00 306212 N 0 0 0
0:00:00.00 306427 N 0 0 0
0:00:00.00 306652 N 0 0 0
0:00:00.00 306886 N 0 0 0
0:00:00.00 307105 N 0 0 0
0:00:00.00 307346 N 0 0 0
0:00:00.00 307577 N 0 0 0
0:00:00.00 307811 N 0 0 0
0:00:00.00 308030 N 0 0 0
0:00:00.00 308205 N 0 0 0
0:00:00.00 308459 N 0 0 0
0:00:00.00 308675 N 0 0 0
0:00:00.00 308907 N 0 0 0
0:00:00.00 309139 N 0 0 0
0:00:00.00 309373 N 0 0 0
0:00:00.00 309595 N 0 0 0
0:00:00.00 309812 N 0 0 0
0:00:00.00 310036 N 0 0 0
0:00:00.00 310250 N 0 0 0
0:00:00.00 310405 N 0 0 0
0:00:00.00 310608 N 0 0 0
0:00:00.00 310768 N 0 0 0
0:00:00.00 310905 N 0 0 0
0:00:00.00 311040 N 0 0 0
0:00:00.00 311182 N 0 0 0
0:00:00.00 311319 N 0 0 0
0:00:00.00 311456 N 0 0 0
0:00:00.00 311594 N 0 0 0
0:00:00.00 311738 N 0 0 0
0:00:00.00 311879 N 0 0 0
0:00:00.00 312021 N 0 0 0
0:00:00.00 312152 N 0 0 0
0:00:00.00 312293 N 0 0 0
0:00:00.00 312430 N 0 0 0
0:00:00.00 312561 N 0 0 0
0:00:00.00 312755 N 0 0 0
0:00:00.00 313004 N 0 0 0
0:00:00.00 313223 N 0 0 0
0:00:00.00 313452 N 0 0 0
0:00:00.00 313673 N 0 0 0
0:00:00.00 313897 N 0 0 0
0:00:00.00 314102 N 0 0 0
0:00:00.00 314311 N 0 0 0
0:00:00.00 314519 N 0 0 0
0:00:00.00 314726 N 0 0 0
0:00:00.00 314937 N 0 0 0
0:00:00.00 315140 N 0 0 0
0:00:00.00 315362 N 0 0 0
0:00:00.00 315583 N 0 0 0
0:00:00.00 315808 N 0 0 0
0:00:00.00 316030 N 0 0 0
0:00:00.00 316251 N 0 0 0
0:00:00.00 316471 N 0 0 0
0:00:00.00 316687 N 0 0 0
0:00:00.00 316906 N 0 0 0
0:00:00.00 317101 N 0 0 0
0:00:00.00 317318 N 0 0 0
0:00:00.00 317534 N 0 0 0
0:00:00.00 317761 N 0 0 0
0:00:00.00 317984 N 0 0 0
0:00:00.00 318226 N 0 0 0
0:00:00.00 318447 N 0 0 0
0:00:00.00 318667 N 0 0 0
0:00:00.00 318884 N 0 0 0
0:00:00.00 319088 N 0 0 0
0:00:00.00 319320 N 0 0 0
0:00:00.00 319536 N 0 0 0
0:00:00.00 319766 N 0 0 0
0:00:00.00 319995 N 0 0 0
0:00:00.00 320173 N 0 0 0
0:00:00.00 320434 N 0 0 0
0:00:00.00 320656 N 0 0 0
0:00:00.00 320879 N 0 0 0
0:00:00.00 321062 N 0 0 0
0:00:00.00 321313 N 0 0 0
0:00:00.00 321521 N 0 0 0
0:00:00.00 321737 N 0 0 0
0:00:00.00 321961 N 0 0 0
0:00:00.00 322195 N 0 0 0
0:00:00.00 322418 N 0 0 0
0:00:00.00 322646 N 0 0 0
0:00:00.00 322873 N 0 0 0
0:00:00.00 323089 N 0 0 0
0:00:00.00 323307 N 0 0 0
0:00:00.00 323521 N 0 0 0
0:00:00.00 323732 N 0 0 0
0:00:00.00 323944 N 0 0 0
0:00:00.00 324184 N 0 0 0
0:00:00.00 324418 N 0 0 0
0:00:00.00 324637 N 0 0 0
0:00:00.00 324859 N 0 0 0
0:00:00.00 325055 N 0 0 0
0:00:00.00 325289 N 0 0 0
0:00:00.00 325507 N 0 0 0
0:00:00.00 325715 N 0 0 0
0:00:00.00 325919 N 0 0 0
0:00:00.00 326137 N 0 0 0
0:00:00.00 326356 N 0 0 0
0:00:00.00 326576 N 0 0 0
0:00:00.00 326797 N 0 0 0
0:00:00.00 327017 N 0 0 0
0:00:00.00 327227 N 0 0 0
0:00:00.00 327440 N 0 0 0
0:00:00.00 327641 N 0 0 0
0:00:00.00 327852 N 0 0 0
0:00:00.00 328057 N 0 0 0
0:00:00.00 328268 N 0 0 0
0:00:00.00 328496 N 0 0 0
0:00:00.00 328729 N 0 0 0
0:00:00.00 328957 N 0 0 0
0:00:00.00 329180 N 0 0 0
0:00:00.00 329402 N 0 0 0
0:00:00.00 329620 N 0 0 0
0:00:00.00 329848 N 0 0 0
0:00:00.00 330075 N 0 0 0
0:00:00.00 330289 N 0 0 0
0:00:00.00 330520 N 0 0 0
0:00:00.00 330709 N 0 0 0
0:00:00.00 330980 N 0 0 0
0:00:00.00 331220 N 0 0 0
0:00:00.00 331456 N 0 0 0
0:00:00.00 331684 N 0 0 0
0:00:00.00 331911 N 0 0 0
0:00:00.00 332131 N 0 0 0
0:00:00.00 332347 N 0 0 0
0:00:00.00 332568 N 0 0 0
0:00:00.00 332748 N 0 0 0
0:00:00.00 333034 N 0 0 0
0:00:00.00 333266 N 0 0 0
0:00:00.00 333495 N 0 0 0
0:00:00.00 333715 N 0 0 0
0:00:00.00 333936 N 0 0 0
0:00:00.00 334157 N 0 0 0
0:00:00.00 334373 N 0 0 0
0:00:00.00 334588 N 0 0 0
0:00:00.00 334802 N 0 0 0
0:00:00.00 335045 N 0 0 0
0:00:00.00 335275 N 0 0 0
0:00:00.00 335504 N 0 0 0
0:00:00.00 335727 N 0 0 0
0:00:00.00 335957 N 0 0 0
0:00:00.00 336179 N 0 0 0
0:00:00.00 336407 N 0 0 0
0:00:00.00 336625 N 0 0 0
0:00:00.00 336841 N 0 0 0
0:00:00.00 337081 N 0 0 0
0:00:00.00 337318 N 0 0 0
0:00:00.00 337556 N 0 0 0
0:00:00.00 337786 N 0 0 0
0:00:00.00 338015 N 0 0 0
0:00:00.00 338240 N 0 0 0
0:00:00.00 338454 N 0 0 0
0:00:00.00 338627 N 0 0 0
0:00:00.00 338872 N 0 0 0
0:00:00.00 339104 N 0 0 0
0:00:00.00 339341 N 0 0 0
0:00:00.00 339570 N 0 0 0
0:00:00.00 339802 N 0 0 0
0:00:00.00 340027 N 0 0 0
0:00:00.00 340250 N 0 0 0
0:00:00.00 340472 N 0 0 0
0:00:00.00 340695 N 0 0 0
0:00:00.00 340918 N 0 0 0
0:00:00.00 341127 N 0 0 0
0:00:00.00 341352 N 0 0 0
0:00:00.00 341586 N 0 0 0
0:00:00.00 341825 N 0 0 0
0:00:00.00 342065 N 0 0 0
0:00:00.00 342292 N 0 0 0
0:00:00.00 342502 N 0 0 0
0:00:00.00 342742 N 0 0 0
0:00:00.00 342965 N 0 0 0
0:00:00.00 343184 N 0 0 0
0:00:00.00 343415 N 0 0 0
0:00:00.00 343600 N 0 0 0
0:00:00.00 343895 N 0 0 0
0:00:00.00 344142 N 0 0 0
0:00:00.00 344380 N 0 0 0
0:00:00.00 344610 N 0 0 0
0:00:00.00 344846 N 0 0 0
0:00:00.00 345085 N 0 0 0
0:00:00.00 345310 N 0 0 0
0:00:00.00 345542 N 0 0 0
0:00:00.00 345780 N 0 0 0
0:00:00.00 346019 N 0 0 0
0:00:00.00 346257 N 0 0 0
0:00:00.00 346459 N 0 0 0
0:00:00.00 346707 N 0 0 0
0:00:00.00 346936 N 0 0 0
0:00:00.00 347157 N 0 0 0
0:00:00.00 347386 N 0 0 0
0:00:00.00 347531 N 0 0 0
0:00:00.00 347809 N 0 0 0
0:00:00.00 348066 N 0 0 0
0:00:00.00 348307 N 0 0 0
0:00:00.00 348493 N 0 0 0
0:00:00.00 348743 N 0 0 0
0:00:00.00 348979 N 0 0 0
0:00:00.00 349211 N 0 0 0
0:00:00.00 349432 N 0 0 0
0:00:00.00 349650 N 0 0 0
0:00:00.00 349888 N 0 0 0
0:00:00.00 350127 N 0 0 0
0:00:00.00 350374 N 0 0 0
0:00:00.00 350613 N 0 0 0
0:00:00.00 350849 N 0 0 0
0:00:00.00 351094 N 0 0 0
0:00:00.00 351292 N 0 0 0
0:00:00.00 351551 N 0 0 0
0:00:00.00 351772 N 0 0 0
0:00:00.00 352008 N 0 0 0
0:00:00.00 352247 N 0 0 0
0:00:00.00 352489 N 0 0 0
0:00:00.00 352733 N 0 0 0
0:00:00.00 352976 N 0 0 0
0:00:00.00 353209 N 0 0 0
0:00:00.00 353443 N 0 0 0
0:00:00.00 353668 N 0 0 0
0:00:00.00 353894 N 0 0 0
0:00:00.00 354119 N 0 0 0
0:00:00.00 354352 N 0 0 0
0:00:00.00 354591 N 0 0 0
0:00:00.00 354821 N 0 0 0
0:00:00.00 355050 N 0 0 0
0:00:00.00 355277 N 0 0 0
0:00:00.00 355493 N 0 0 0
0:00:00.00 355685 N 0 0 0
0:00:00.00 355936 N 0 0 0
0:00:00.00 356152 N 0 0 0
0:00:00.00 356384 N 0 0 0
0:00:00.00 356620 N 0 0 0
0:00:00.00 356866 N 0 0 0
0:00:00.00 357115 N 0 0 0
0:00:00.00 357347 N 0 0 0
0:00:00.00 357584 N 0 0 0
0:00:00.00 357813 N 0 0 0
0:00:00.00 358045 N 0 0 0
0:00:00.00 358272 N 0 0 0
0:00:00.00 358501 N 0 0 0
0:00:00.00 358758 N 0 0 0
0:00:00.00 359014 N 0 0 0
0:00:00.00 359257 N 0 0 0
0:00:00.00 359464 N 0 0 0
0:00:00.00 359726 N 0 0 0
0:00:00.00 359968 N 0 0 0
0:00:00.00 360211 N 0 0 0
0:00:00.00 360434 N 0 0 0
0:00:00.00 360610 N 0 0 0
0:00:00.00 360880 N 0 0 0
0:00:00.00 361132 N 0 0 0
0:00:00.00 361372 N 0 0 0
0:00:00.00 361602 N 0 0 0
0:00:00.00 361836 N 0 0 0
0:00:00.00 362066 N 0 0 0
0:00:00.00 362288 N 0 0 0
0:00:00.00 362504 N 0 0 0
0:00:00.00 362723 N 0 0 0
0:00:00.00 362959 N 0 0 0
0:00:00.00 363202 N 0 0 0
0:00:00.00 363436 N 0 0 0
0:00:00.00 363670 N 0 0 0
0:00:00.00 363895 N 0 0 0
0:00:00.00 364118 N 0 0 0
0:00:00.00 364349 N 0 0 0
0:00:00.00 364576 N 0 0 0
0:00:00.00 364795 N 0 0 0
0:00:00.00 365031 N 0 0 0
0:00:00.00 365272 N 0 0 0
0:00:00.00 365515 N 0 0 0
0:00:00.00 365756 N 0 0 0
0:00:00.00 365994 N 0 0 0
0:00:00.00 366237 N 0 0 0
0:00:00.00 366469 N 0 0 0
0:00:00.00 366689 N 0 0 0
0:00:00.00 366881 N 0 0 0
0:00:00.00 367132 N 0 0 0
0:00:00.00 367366 N 0 0 0
0:00:00.00 367609 N 0 0 0
0:00:00.00 367846 N 0 0 0
0:00:00.00 368046 N 0 0 0
0:00:00.00 368300 N 0 0 0
0:00:00.00 368528 N 0 0 0
0:00:00.00 368753 N 0 0 0
0:00:00.00 368980 N 0 0 0
0:00:00.00 369189 N 0 0 0
0:00:00.00 369430 N 0 0 0
0:00:00.00 369670 N 0 0 0
0:00:00.00 369904 N 0 0 0
0:00:00.00 370138 N 0 0 0
0:00:00.00 370363 N 0 0 0
0:00:00.00 370595 N 0 0 0
0:00:00.00 370814 N 0 0 0
0:00:00.00 371039 N 0 0 0
0:00:00.00 371246 N 0 0 0
0:00:00.00 371466 N 0 0 0
0:00:00.00 371695 N 0 0 0
0:00:00.00 371932 N 0 0 0
0:00:00.00 372173 N 0 0 0
0:00:00.00 372397 N 0 0 0
0:00:00.00 372622 N 0 0 0
0:00:00.00 372843 N 0 0 0
0:00:00.00 373063 N 0 0 0
0:00:00.00 373282 N 0 0 0
0:00:00.00 373496 N 0 0 0
0:00:00.00 373729 N 0 0 0
0:00:00.00 373968 N 0 0 0
0:00:00.00 374198 N 0 0 0
0:00:00.00 374423 N 0 0 0
0:00:00.00 374643 N 0 0 0
0:00:00.00 374870 N 0 0 0
0:00:00.00 375089 N 0 0 0
0:00:00.00 375302 N 0 0 0
0:00:00.00 375521 N 0 0 0
0:00:00.00 375727 N 0 0 0
0:00:00.00 375950 N 0 0 0
0:00:00.00 376180 N 0 0 0
0:00:00.00 376411 N 0 0 0
0:00:00.00 376641 N 0 0 0
0:00:00.00 376868 N 0 0 0
0:00:00.00 377089 N 0 0 0
0:00:00.00 377309 N 0 0 0
0:00:00.00 377523 N 0 0 0
0:00:00.00 377743 N 0 0 0
0:00:00.00 377975 N 0 0 0
0:00:00.00 378212 N 0 0 0
0:00:00.00 378452 N 0 0 0
0:00:00.00 378679 N 0 0 0
0:00:00.00 378905 N 0 0 0
0:00:00.00 379129 N 0 0 0
0:00:00.00 379354 N 0 0 0
0:00:00.00 379577 N 0 0 0
0:00:00.00 379778 N 0 0 0
0:00:00.00 380014 N 0 0 0
0:00:00.00 380243 N 0 0 0
0:00:00.00 380480 N 0 0 0
0:00:00.00 380711 N 0 0 0
0:00:00.00 380936 N 0 0 0
0:00:00.00 381173 N 0 0 0
0:00:00.00 381400 N 0 0 0
0:00:00.00 381625 N 0 0 0
0:00:00.00 381843 N 0 0 0
0:00:00.00 382059 N 0 0 0
0:00:00.00 382286 N 0 0 0
0:00:00.00 382518 N 0 0 0
0:00:00.00 382756 N 0 0 0
0:00:00.00 382991 N 0 0 0
0:00:00.00 383211 N 0 0 0
0:00:00.00 383431 N 0 0 0
0:00:00.00 383647 N 0 0 0
0:00:00.00 383868 N 0 0 0
0:00:00.00 384089 N 0 0 0
0:00:00.00 384296 N 0 0 0
0:00:00.00 384521 N 0 0 0
0:00:00.00 384750 N 0 0 0
0:00:00.00 384980 N 0 0 0
0:00:00.00 385209 N 0 0 0
0:00:00.00 385427 N 0 0 0
0:00:00.00 385655 N 0 0 0
0:00:00.00 385880 N 0 0 0
0:00:00.00 386046 N 0 0 0
0:00:00.00 386287 N 0 0 0
0:00:00.00 386505 N 0 0 0
0:00:00.00 386737 N 0 0 0
0:00:00.00 386975 N 0 0 0
0:00:00.00 387211 N 0 0 0
0:00:00.00 387443 N 0 0 0
0:00:00.00 387668 N 0 0 0
0:00:00.00 387891 N 0 0 0
0:00:00.00 388111 N 0 0 0
0:00:00.00 388332 N 0 0 0
0:00:00.00 388544 N 0 0 0
0:00:00.00 388775 N 0 0 0
0:00:00.00 389016 N 0 0 0
0:00:00.00 389252 N 0 0 0
0:00:00.00 389484 N 0 0 0
0:00:00.00 389709 N 0 0 0
0:00:00.00 389939 N 0 0 0
0:00:00.00 390166 N 0 0 0
0:00:00.00 390380 N 0 0 0
0:00:00.00 390600 N 0 0 0
0:00:00.00 390811 N 0 0 0
0:00:00.00 391036 N 0 0 0
0:00:00.00 391266 N 0 0 0
0:00:00.00 391495 N 0 0 0
0:00:00.00 391729 N 0 0 0
0:00:00.00 391957 N 0 0 0
0:00:00.00 392177 N 0 0 0
0:00:00.00 392387 N 0 0 0
0:00:00.00 392611 N 0 0 0
0:00:00.00 392823 N 0 0 0
0:00:00.00 393077 N 0 0 0
0:00:00.00 393323 N 0 0 0
0:00:00.00 393563 N 0 0 0
0:00:00.00 393788 N 0 0 0
0:00:00.00 394013 N 0 0 0
0:00:00.00 394245 N 0 0 0
0:00:00.00 394465 N 0 0 0
0:00:00.00 394690 N 0 0 0
0:00:00.00 394913 N 0 0 0
0:00:00.00 395125 N 0 0 0
0:00:00.00 395325 N 0 0 0
0:00:00.00 395573 N 0 0 0
0:00:00.00 395804 N 0 0 0
0:00:00.00 396036 N 0 0 0
0:00:00.00 396257 N 0 0 0
0:00:00.00 396418 N 0 0 0
0:00:00.00 396673 N 0 0 0
0:00:00.00 396895 N 0 0 0
0:00:00.00 397107 N 0 0 0
0:00:00.00 397319 N 0 0 0
0:00:00.00 397546 N 0 0 0
0:00:00.00 397782 N 0 0 0
0:00:00.00 398018 N 0 0 0
0:00:00.00 398241 N 0 0 0
0:00:00.00 398464 N 0 0 0
0:00:00.00 398682 N 0 0 0
0:00:00.00 398903 N 0 0 0
0:00:00.00 399127 N 0 0 0
0:00:00.00 399337 N 0 0 0
0:00:00.00 399560 N 0 0 0
0:00:00.00 399785 N 0 0 0
0:00:00.00 400021 N 0 0 0
0:00:00.00 400259 N 0 0 0
0:00:00.00 400482 N 0 0 0
0:00:00.00 400714 N 0 0 0
0:00:00.00 400943 N 0 0 0
0:00:00.00 401170 N 0 0 0
0:00:00.00 401393 N 0 0 0
0:00:00.00 401603 N 0 0 0
0:00:00.00 401837 N 0 0 0
0:00:00.00 402082 N 0 0 0
0:00:00.00 402322 N 0 0 0
0:00:00.00 402554 N 0 0 0
0:00:00.00 402777 N 0 0 0
0:00:00.00 402953 N 0 0 0
0:00:00.00 403213 N 0 0 0
0:00:00.00 403438 N 0 0 0
0:00:00.00 403657 N 0 0 0
0:00:00.00 403857 N 0 0 0
0:00:00.00 404114 N 0 0 0
0:00:00.00 404352 N 0 0 0
0:00:00.00 404584 N 0 0 0
0:00:00.00 404813 N 0 0 0
0:00:00.00 405016 N 0 0 0
0:00:00.00 405277 N 0 0 0
0:00:00.00 405502 N 0 0 0
0:00:00.00 405722 N 0 0 0
0:00:00.00 405938 N 0 0 0
0:00:00.00 406170 N 0 0 0
0:00:00.00 406404 N 0 0 0
0:00:00.00 406638 N 0 0 0
0:00:00.00 406867 N 0 0 0
0:00:00.00 407074 N 0 0 0
0:00:00.00 407313 N 0 0 0
0:00:00.00 407534 N 0 0 0
0:00:00.00 407750 N 0 0 0
0:00:00.00 407966 N 0 0 0
0:00:00.00 408197 N 0 0 0
0:00:00.00 408425 N 0 0 0
0:00:00.00 408665 N 0 0 0
0:00:00.00 408895 N 0 0 0
0:00:00.00 409120 N 0 0 0
0:00:00.00 409349 N 0 0 0
0:00:00.00 409577 N 0 0 0
0:00:00.00 409804 N 0 0 0
0:00:00.00 410031 N 0 0 0
0:00:00.00 410234 N 0 0 0
0:00:00.00 410483 N 0 0 0
0:00:00.00 410715 N 0 0 0
0:00:00.00 410956 N 0 0 0
0:00:00.00 411194 N 0 0 0
0:00:00.00 411422 N 0 0 0
0:00:00.00 411646 N 0 0 0
0:00:00.00 411871 N 0 0 0
0:00:00.00 412096 N 0 0 0
0:00:00.00 412312 N 0 0 0
0:00:00.00 412538 N 0 0 0
0:00:00.00 412778 N 0 0 0
0:00:00.00 413023 N 0 0 0
0:00:00.00 413255 N 0 0 0
0:00:00.00 413482 N 0 0 0
0:00:00.00 413708 N 0 0 0
0:00:00.00 413939 N 0 0 0
0:00:00.00 414112 N 0 0 0
0:00:00.00 414371 N 0 0 0
0:00:00.00 414594 N 0 0 0
0:00:00.00 414823 N 0 0 0
0:00:00.00 415053 N 0 0 0
0:00:00.00 415289 N 0 0 0
0:00:00.00 415521 N 0 0 0
0:00:00.00 415748 N 0 0 0
0:00:00.00 415976 N 0 0 0
0:00:00.00 416192 N 0 0 0
0:00:00.00 416358 N 0 0 0
0:00:00.00 416606 N 0 0 0
0:00:00.00 416839 N 0 0 0
0:00:00.00 417082 N 0 0 0
0:00:00.00 417317 N 0 0 0
0:00:00.00 417548 N 0 0 0
0:00:00.00 417767 N 0 0 0
0:00:00.00 417998 N 0 0 0
0:00:00.00 418221 N 0 0 0
0:00:00.00 418441 N 0 0 0
0:00:00.00 418664 N 0 0 0
0:00:00.00 418887 N 0 0 0
0:00:00.00 419121 N 0 0 0
0:00:00.00 419359 N 0 0 0
0:00:00.00 419594 N 0 0 0
0:00:00.00 419830 N 0 0 0
0:00:00.00 420068 N 0 0 0
0:00:00.00 420296 N 0 0 0
0:00:00.00 420527 N 0 0 0
0:00:00.00 420743 N 0 0 0
0:00:00.00 420961 N 0 0 0
0:00:00.00 421195 N 0 0 0
0:00:00.00 421427 N 0 0 0
0:00:00.00 421668 N 0 0 0
0:00:00.00 421907 N 0 0 0
0:00:00.00 422136 N 0 0 0
0:00:00.00 422365 N 0 0 0
0:00:00.00 422584 N 0 0 0
0:00:00.00 422806 N 0 0 0
0:00:00.00 422975 N 0 0 0
0:00:00.00 423229 N 0 0 0
0:00:00.00 423466 N 0 0 0
0:00:00.00 423698 N 0 0 0
0:00:00.00 423934 N 0 0 0
0:00:00.00 424170 N 0 0 0
0:00:00.00 424395 N 0 0 0
0:00:00.00 424625 N 0 0 0
0:00:00.00 424840 N 0 0 0
0:00:00.00 425079 N 0 0 0
0:00:00.00 425293 N 0 0 0
0:00:00.00 425522 N 0 0 0
0:00:00.00 425698 N 0 0 0
0:00:00.00 425972 N 0 0 0
0:00:00.00 426222 N 0 0 0
0:00:00.00 426452 N 0 0 0
0:00:00.00 426677 N 0 0 0
0:00:00.00 426899 N 0 0 0
0:00:00.00 427120 N 0 0 0
0:00:00.00 427345 N 0 0 0
0:00:00.00 427565 N 0 0 0
0:00:00.00 427784 N 0 0 0
0:00:00.00 428040 N 0 0 0
0:00:00.00 428278 N 0 0 0
0:00:00.00 428508 N 0 0 0
0:00:00.00 428701 N 0 0 0
0:00:00.00 428960 N 0 0 0
0:00:00.00 429194 N 0 0 0
0:00:00.00 429413 N 0 0 0
0:00:00.00 429628 N 0 0 0
0:00:00.00 429856 N 0 0 0
0:00:00.00 430087 N 0 0 0
0:00:00.00 430321 N 0 0 0
0:00:00.00 430555 N 0 0 0
0:00:00.00 430783 N 0 0 0
0:00:00.00 431012 N 0 0 0
0:00:00.00 431233 N 0 0 0
0:00:00.00 431456 N 0 0 0
0:00:00.00 431674 N 0 0 0
0:00:00.00 431890 N 0 0 0
0:00:00.00 432128 N 0 0 0
0:00:00.00 432364 N 0 0 0
0:00:00.00 432603 N 0 0 0
0:00:00.00 432776 N 0 0 0
0:00:00.00 433028 N 0 0 0
0:00:00.00 433264 N 0 0 0
0:00:00.00 433483 N 0 0 0
0:00:00.00 433710 N 0 0 0
0:00:00.00 433930 N 0 0 0
0:00:00.00 434162 N 0 0 0
0:00:00.00 434398 N 0 0 0
0:00:00.00 434626 N 0 0 0
0:00:00.00 434864 N 0 0 0
0:00:00.00 435098 N 0 0 0
0:00:00.00 435326 N 0 0 0
0:00:00.00 435550 N 0 0 0
0:00:00.00 435755 N 0 0 0
0:00:00.00 435989 N 0 0 0
0:00:00.00 436210 N 0 0 0
0:00:00.00 436441 N 0 0 0
0:00:00.00 436655 N 0 0 0
0:00:00.00 436919 N 0 0 0
0:00:00.00 437150 N 0 0 0
0:00:00.00 437384 N 0 0 0
0:00:00.00 437611 N 0 0 0
0:00:00.00 437837 N 0 0 0
0:00:00.00 438062 N 0 0 0
0:00:00.00 438282 N 0 0 0
0:00:00.00 438516 N 0 0 0
0:00:00.00 438748 N 0 0 0
0:00:00.00 438971 N 0 0 0
0:00:00.00 439225 N 0 0 0
0:00:00.00 439450 N 0 0 0
0:00:00.00 439682 N 0 0 0
0:00:00.00 439911 N 0 0 0
0:00:00.00 440141 N 0 0 0
0:00:00.00 440363 N 0 0 0
0:00:00.00 440584 N 0 0 0
0:00:00.00 440822 N 0 0 0
0:00:00.00 441005 N 0 0 0
0:00:00.00 441288 N 0 0 0
0:00:00.00 441520 N 0 0 0
0:00:00.00 441747 N 0 0 0
0:00:00.00 441968 N 0 0 0
0:00:00.00 442186 N 0 0 0
0:00:00.00 442404 N 0 0 0
0:00:00.00 442620 N 0 0 0
0:00:00.00 442852 N 0 0 0
0:00:00.00 443030 N 0 0 0
0:00:00.00 443302 N 0 0 0
0:00:00.00 443540 N 0 0 0
0:00:00.00 443765 N 0 0 0
0:00:00.00 443992 N 0 0 0
0:00:00.00 444222 N 0 0 0
0:00:00.00 444443 N 0 0 0
0:00:00.00 444659 N 0 0 0
0:00:00.00 444875 N 0 0 0
0:00:00.00 445102 N 0 0 0
0:00:00.00 445343 N 0 0 0
0:00:00.00 445572 N 0 0 0
0:00:00.00 445795 N 0 0 0
0:00:00.00 446031 N 0 0 0
0:00:00.00 446249 N 0 0 0
0:00:00.00 446468 N 0 0 0
0:00:00.00 446681 N 0 0 0
0:00:00.00 446893 N 0 0 0
0:00:00.00 447124 N 0 0 0
0:00:00.00 447356 N 0 0 0
0:00:00.00 447590 N 0 0 0
0:00:00.00 447817 N 0 0 0
0:00:00.00 448042 N 0 0 0
0:00:00.00 448270 N 0 0 0
0:00:00.00 448488 N 0 0 0
0:00:00.00 448681 N 0 0 0
0:00:00.00 448933 N 0 0 0
0:00:00.00 449145 N 0 0 0
0:00:00.00 449374 N 0 0 0
0:00:00.00 449606 N 0 0 0
0:00:00.00 449838 N 0 0 0
0:00:00.00 450072 N 0 0 0
0:00:00.00 450297 N 0 0 0
0:00:00.00 450520 N 0 0 0
0:00:00.00 450734 N 0 0 0
0:00:00.00 450956 N 0 0 0
0:00:00.00 451166 N 0 0 0
0:00:00.00 451382 N 0 0 0
0:00:00.00 451615 N 0 0 0
0:00:00.00 451850 N 0 0 0
0:00:00.00 452084 N 0 0 0
0:00:00.00 452308 N 0 0 0
0:00:00.00 452529 N 0 0 0
0:00:00.00 452750 N 0 0 0
0:00:00.00 452974 N 0 0 0
0:00:00.00 453199 N 0 0 0
0:00:00.00 453409 N 0 0 0
0:00:00.00 453600 N 0 0 0
0:00:00.00 453857 N 0 0 0
0:00:00.00 454088 N 0 0 0
0:00:00.00 454318 N 0 0 0
0:00:00.00 454543 N 0 0 0
0:00:00.00 454772 N 0 0 0
0:00:00.00 454995 N 0 0 0
0:00:00.00 455216 N 0 0 0
0:00:00.00 455436 N 0 0 0
0:00:00.00 455648 N 0 0 0
0:00:00.00 455879 N 0 0 0
0:00:00.00 456120 N 0 0 0
0:00:00.00 456354 N 0 0 0
0:00:00.00 456586 N 0 0 0
0:00:00.00 456806 N 0 0 0
0:00:00.00 457029 N 0 0 0
0:00:00.00 457252 N 0 0 0
0:00:00.00 457477 N 0 0 0
0:00:00.00 457691 N 0 0 0
0:00:00.00 457924 N 0 0 0
0:00:00.00 458158 N 0 0 0
0:00:00.00 458390 N 0 0 0
0:00:00.00 458620 N 0 0 0
0:00:00.00 458849 N 0 0 0
0:00:00.00 459083 N 0 0 0
0:00:00.00 459302 N 0 0 0
0:00:00.00 459522 N 0 0 0
0:00:00.00 459738 N 0 0 0
0:00:00.00 459947 N 0 0 0
0:00:00.00 460179 N 0 0 0
0:00:00.00 460408 N 0 0 0
0:00:00.00 460642 N 0 0 0
0:00:00.00 460872 N 0 0 0
0:00:00.00 461025 N 0 0 0
0:00:00.00 461263 N 0 0 0
0:00:00.00 461484 N 0 0 0
0:00:00.00 461698 N 0 0 0
0:00:00.00 461914 N 0 0 0
0:00:00.00 462130 N 0 0 0
0:00:00.00 462353 N 0 0 0
0:00:00.00 462584 N 0 0 0
0:00:00.00 462812 N 0 0 0
0:00:00.00 463041 N 0 0 0
0:00:00.00 463268 N 0 0 0
0:00:00.00 463493 N 0 0 0
0:00:00.00 463718 N 0 0 0
0:00:00.00 463945 N 0 0 0
0:00:00.00 464159 N 0 0 0
0:00:00.00 464387 N 0 0 0
0:00:00.00 464621 N 0 0 0
0:00:00.00 464864 N 0 0 0
0:00:00.00 465061 N 0 0 0
0:00:00.00 465331 N 0 0 0
0:00:00.00 465566 N 0 0 0
0:00:00.00 465791 N 0 0 0
0:00:00.00 466013 N 0 0 0
0:00:00.00 466236 N 0 0 0
0:00:00.00 466456 N 0 0 0
0:00:00.00 466691 N 0 0 0
0:00:00.00 466933 N 0 0 0
0:00:00.00 467147 N 0 0 0
0:00:00.00 467395 N 0 0 0
0:00:00.00 467617 N 0 0 0
0:00:00.00 467842 N 0 0 0
0:00:00.00 468068 N 0 0 0
0:00:00.00 468290 N 0 0 0
0:00:00.00 468506 N 0 0 0
0:00:00.00 468734 N 0 0 0
0:00:00.00 468974 N 0 0 0
0:00:00.00 469219 N 0 0 0
0:00:00.00 469453 N 0 0 0
0:00:00.00 469625 N 0 0 0
0:00:00.00 469906 N 0 0 0
0:00:00.00 470135 N 0 0 0
0:00:00.00 470360 N 0 0 0
0:00:00.00 470576 N 0 0 0
0:00:00.00 470801 N 0 0 0
0:00:00.00 471042 N 0 0 0
0:00:00.00 471280 N 0 0 0
0:00:00.00 471517 N 0 0 0
0:00:00.00 471740 N 0 0 0
0:00:00.00 471965 N 0 0 0
0:00:00.00 472196 N 0 0 0
0:00:00.00 472419 N 0 0 0
0:00:00.00 472646 N 0 0 0
0:00:00.00 472865 N 0 0 0
0:00:00.00 473101 N 0 0 0
0:00:00.00 473346 N 0 0 0
0:00:00.00 473580 N 0 0 0
0:00:00.00 473818 N 0 0 0
0:00:00.00 474059 N 0 0 0
0:00:00.00 474255 N 0 0 0
0:00:00.00 474511 N 0 0 0
0:00:00.00 474734 N 0 0 0
0:00:00.00 474952 N 0 0 0
0:00:00.00 475186 N 0 0 0
0:00:00.00 475418 N 0 0 0
0:00:00.00 475661 N 0 0 0
0:00:00.00 475906 N 0 0 0
0:00:00.00 476134 N 0 0 0
0:00:00.00 476366 N 0 0 0
0:00:00.00 476588 N 0 0 0
0:00:00.00 476815 N 0 0 0
0:00:00.00 477045 N 0 0 0
0:00:00.00 477265 N 0 0 0
0:00:00.00 477490 N 0 0 0
0:00:00.00 477727 N 0 0 0
0:00:00.00 477961 N 0 0 0
0:00:00.00 478195 N 0 0 0
0:00:00.00 478418 N 0 0 0
0:00:00.00 478613 N 0 0 0
0:00:00.00 478868 N 0 0 0
0:00:00.00 479095 N 0 0 0
0:00:00.00 479313 N 0 0 0
0:00:00.00 479484 N 0 0 0
0:00:00.00 479759 N 0 0 0
0:00:00.00 480006 N 0 0 0
0:00:00.00 480249 N 0 0 0
0:00:00.00 480472 N 0 0 0
0:00:00.00 480701 N 0 0 0
0:00:00.00 480926 N 0 0 0
0:00:00.00 481149 N 0 0 0
0:00:00.00 481369 N 0 0 0
0:00:00.00 481588 N 0 0 0
0:00:00.00 481822 N 0 0 0
0:00:00.00 482060 N 0 0 0
0:00:00.00 482290 N 0 0 0
0:00:00.00 482519 N 0 0 0
0:00:00.00 482742 N 0 0 0
0:00:00.00 482972 N 0 0 0
0:00:00.00 483199 N 0 0 0
0:00:00.00 483421 N 0 0 0
0:00:00.00 483638 N 0 0 0
0:00:00.00 483865 N 0 0 0
0:00:00.00 484103 N 0 0 0
0:00:00.00 484342 N 0 0 0
0:00:00.00 484583 N 0 0 0
0:00:00.00 484814 N 0 0 0
0:00:00.00 485053 N 0 0 0
0:00:00.00 485284 N 0 0 0
0:00:00.00 485512 N 0 0 0
0:00:00.00 485726 N 0 0 0
0:00:00.00 485962 N 0 0 0
0:00:00.00 486205 N 0 0 0
0:00:00.00 486443 N 0 0 0
0:00:00.00 486682 N 0 0 0
0:00:00.00 486909 N 0 0 0
0:00:00.00 487139 N 0 0 0
0:00:00.00 487364 N 0 0 0
0:00:00.00 487589 N 0 0 0
0:00:00.00 487822 N 0 0 0
0:00:00.00 488045 N 0 0 0
0:00:00.00 488281 N 0 0 0
0:00:00.00 488518 N 0 0 0
0:00:00.00 488761 N 0 0 0
0:00:00.00 489001 N 0 0 0
0:00:00.00 489236 N 0 0 0
0:00:00.00 489469 N 0 0 0
0:00:00.00 489692 N 0 0 0
0:00:00.00 489915 N 0 0 0
0:00:00.00 490136 N 0 0 0
0:00:00.00 490365 N 0 0 0
0:00:00.00 490606 N 0 0 0
0:00:00.00 490847 N 0 0 0
0:00:00.00 491090 N 0 0 0
0:00:00.00 491319 N 0 0 0
0:00:00.00 491546 N 0 0 0
0:00:00.00 491751 N 0 0 0
0:00:00.00 492010 N 0 0 0
0:00:00.00 492233 N 0 0 0
0:00:00.00 492467 N 0 0 0
0:00:00.00 492705 N 0 0 0
0:00:00.00 492946 N 0 0 0
0:00:00.00 493184 N 0 0 0
0:00:00.00 493411 N 0 0 0
0:00:00.00 493648 N 0 0 0
0:00:00.00 493880 N 0 0 0
0:00:00.00 494102 N 0 0 0
0:00:00.00 494327 N 0 0 0
0:00:00.00 494543 N 0 0 0
0:00:00.00 494777 N 0 0 0
0:00:00.00 495023 N 0 0 0
0:00:00.00 495263 N 0 0 0
0:00:00.00 495499 N 0 0 0
0:00:00.00 495724 N 0 0 0
0:00:00.00 495949 N 0 0 0
0:00:00.00 496181 N 0 0 0
0:00:00.00 496402 N 0 0 0
0:00:00.00 496618 N 0 0 0
0:00:00.00 496856 N 0 0 0
0:00:00.00 497093 N 0 0 0
0:00:00.00 497331 N 0 0 0
0:00:00.00 497561 N 0 0 0
0:00:00.00 497786 N 0 0 0
0:00:00.00 498019 N 0 0 0
0:00:00.00 498245 N 0 0 0
0:00:00.00 498465 N 0 0 0
0:00:00.00 498677 N 0 0 0
0:00:00.00 498899 N 0 0 0
0:00:00.00 499133 N 0 0 0
0:00:00.00 499367 N 0 0 0
0:00:00.00 499606 N 0 0 0
0:00:00.00 499838 N 0 0 0
0:00:00.00 500063 N 0 0 0
0:00:00.00 500288 N 0 0 0
0:00:00.00 500510 N 0 0 0
0:00:00.00 500733 N 0 0 0
0:00:00.00 500953 N 0 0 0
0:00:00.00 501185 N 0 0 0
0:00:00.00 501419 N 0 0 0
0:00:00.00 501649 N 0 0 0
0:00:00.00 501881 N 0 0 0
0:00:00.00 502110 N 0 0 0
0:00:00.00 502290 N 0 0 0
0:00:00.00 502549 N 0 0 0
0:00:00.00 502778 N 0 0 0
0:00:00.00 502992 N 0 0 0
0:00:00.00 503210 N 0 0 0
0:00:00.00 503386 N 0 0 0
0:00:00.00 503649 N 0 0 0
0:00:00.00 503894 N 0 0 0
0:00:00.00 504131 N 0 0 0
0:00:00.00 504360 N 0 0 0
0:00:00.00 504587 N 0 0 0
0:00:00.00 504812 N 0 0 0
0:00:00.00 505033 N 0 0 0
0:00:00.00 505249 N 0 0 0
0:00:00.00 505483 N 0 0 0
0:00:00.00 505723 N 0 0 0
0:00:00.00 505964 N 0 0 0
0:00:00.00 506200 N 0 0 0
0:00:00.00 506376 N 0 0 0
0:00:00.00 506635 N 0 0 0
0:00:00.00 506873 N 0 0 0
0:00:00.00 507107 N 0 0 0
0:00:00.00 507325 N 0 0 0
0:00:00.00 507497 N 0 0 0
0:00:00.00 507755 N 0 0 0
0:00:00.00 507998 N 0 0 0
0:00:00.00 508235 N 0 0 0
0:00:00.00 508408 N 0 0 0
0:00:00.00 508664 N 0 0 0
0:00:00.00 508905 N 0 0 0
0:00:00.00 509132 N 0 0 0
0:00:00.00 509355 N 0 0 0
0:00:00.00 509569 N 0 0 0
0:00:00.00 509805 N 0 0 0
0:00:00.00 510050 N 0 0 0
0:00:00.00 510287 N 0 0 0
0:00:00.00 510525 N 0 0 0
0:00:00.00 510750 N 0 0 0
0:00:00.00 510975 N 0 0 0
0:00:00.00 511200 N 0 0 0
0:00:00.00 511423 N 0 0 0
0:00:00.00 511645 N 0 0 0
0:00:00.00 511873 N 0 0 0
0:00:00.00 512105 N 0 0 0
0:00:00.00 512345 N 0 0 0
0:00:00.00 512579 N 0 0 0
0:00:00.00 512809 N 0 0 0
0:00:00.00 513041 N 0 0 0
0:00:00.00 513261 N 0 0 0
0:00:00.00 513488 N 0 0 0
0:00:00.00 513704 N 0 0 0
0:00:00.00 513920 N 0 0 0
0:00:00.00 514156 N 0 0 0
0:00:00.00 514390 N 0 0 0
0:00:00.00 514633 N 0 0 0
0:00:00.00 514877 N 0 0 0
0:00:00.00 515104 N 0 0 0
0:00:00.00 515331 N 0 0 0
0:00:00.00 515554 N 0 0 0
0:00:00.00 515783 N 0 0 0
0:00:00.00 516006 N 0 0 0
0:00:00.00 516235 N 0 0 0
0:00:00.00 516472 N 0 0 0
0:00:00.00 516708 N 0 0 0
0:00:00.00 516944 N 0 0 0
0:00:00.00 517174 N 0 0 0
0:00:00.00 517399 N 0 0 0
0:00:00.00 517628 N 0 0 0
0:00:00.00 517856 N 0 0 0
0:00:00.00 518078 N 0 0 0
0:00:00.00 518297 N 0 0 0
0:00:00.00 518526 N 0 0 0
0:00:00.00 518767 N 0 0 0
0:00:00.00 519014 N 0 0 0
0:00:00.00 519250 N 0 0 0
0:00:00.00 519484 N 0 0 0
0:00:00.00 519710 N 0 0 0
0:00:00.00 519941 N 0 0 0
0:00:00.00 520171 N 0 0 0
0:00:00.00 520385 N 0 0 0
0:00:00.00 520603 N 0 0 0
0:00:00.00 520866 N 0 0 0
0:00:00.00 521104 N 0 0 0
0:00:00.00 521341 N 0 0 0
0:00:00.00 521564 N 0 0 0
0:00:00.00 521791 N 0 0 0
0:00:00.00 522022 N 0 0 0
0:00:00.00 522245 N 0 0 0
0:00:00.00 522464 N 0 0 0
0:00:00.00 522684 N 0 0 0
0:00:00.00 522918 N 0 0 0
0:00:00.00 523159 N 0 0 0
0:00:00.00 523393 N 0 0 0
0:00:00.00 523625 N 0 0 0
0:00:00.00 523858 N 0 0 0
0:00:00.00 524081 N 0 0 0
0:00:00.00 524308 N 0 0 0
0:00:00.00 524525 N 0 0 0
0:00:00.00 524741 N 0 0 0
0:00:00.00 524977 N 0 0 0
0:00:00.00 525215 N 0 0 0
0:00:00.00 525454 N 0 0 0
0:00:00.00 525683 N 0 0 0
0:00:00.00 525908 N 0 0 0
0:00:00.00 526133 N 0 0 0
0:00:00.00 526351 N 0 0 0
0:00:00.00 526579 N 0 0 0
0:00:00.00 526795 N 0 0 0
0:00:00.00 526991 N 0 0 0
0:00:00.00 527247 N 0 0 0
0:00:00.00 527483 N 0 0 0
0:00:00.00 527720 N 0 0 0
0:00:00.00 527951 N 0 0 0
0:00:00.00 528183 N 0 0 0
0:00:00.00 528410 N 0 0 0
0:00:00.00 528629 N 0 0 0
0:00:00.00 528847 N 0 0 0
0:00:00.00 529065 N 0 0 0
0:00:00.00 529295 N 0 0 0
0:00:00.00 529535 N 0 0 0
0:00:00.00 529772 N 0 0 0
0:00:00.00 530008 N 0 0 0
0:00:00.00 530233 N 0 0 0
0:00:00.00 530456 N 0 0 0
0:00:00.00 530680 N 0 0 0
0:00:00.00 530885 N 0 0 0
0:00:00.00 531122 N 0 0 0
0:00:00.00 531349 N 0 0 0
0:00:00.00 531583 N 0 0 0
0:00:00.00 531823 N 0 0 0
0:00:00.00 532057 N 0 0 0
0:00:00.00 532282 N 0 0 0
0:00:00.00 532514 N 0 0 0
0:00:00.00 532742 N 0 0 0
0:00:00.00 532969 N 0 0 0
0:00:00.00 533189 N 0 0 0
0:00:00.00 533405 N 0 0 0
0:00:00.00 533639 N 0 0 0
0:00:00.00 533884 N 0 0 0
0:00:00.00 534127 N 0 0 0
0:00:00.00 534361 N 0 0 0
0:00:00.00 534587 N 0 0 0
0:00:00.00 534811 N 0 0 0
0:00:00.00 535023 N 0 0 0
0:00:00.00 535248 N 0 0 0
0:00:00.00 535464 N 0 0 0
0:00:00.00 535689 N 0 0 0
0:00:00.00 535930 N 0 0 0
0:00:00.00 536162 N 0 0 0
0:00:00.00 536393 N 0 0 0
0:00:00.00 536614 N 0 0 0
0:00:00.00 536843 N 0 0 0
0:00:00.00 537071 N 0 0 0
0:00:00.00 537293 N 0 0 0
0:00:00.00 537516 N 0 0 0
0:00:00.00 537732 N 0 0 0
0:00:00.00 537961 N 0 0 0
0:00:00.00 538196 N 0 0 0
0:00:00.00 538434 N 0 0 0
0:00:00.00 538666 N 0 0 0
0:00:00.00 538897 N 0 0 0
0:00:00.00 539120 N 0 0 0
0:00:00.00 539347 N 0 0 0
0:00:00.00 539570 N 0 0 0
0:00:00.00 539788 N 0 0 0
0:00:00.00 540027 N 0 0 0
0:00:00.00 540268 N 0 0 0
0:00:00.00 540508 N 0 0 0
0:00:00.00 540743 N 0 0 0
0:00:00.00 540938 N 0 0 0
0:00:00.00 541197 N 0 0 0
0:00:00.00 541427 N 0 0 0
0:00:00.00 541651 N 0 0 0
0:00:00.00 541874 N 0 0 0
0:00:00.00 542039 N 0 0 0
0:00:00.00 542315 N 0 0 0
0:00:00.00 542556 N 0 0 0
0:00:00.00 542799 N 0 0 0
0:00:00.00 543037 N 0 0 0
0:00:00.00 543265 N 0 0 0
0:00:00.00 543492 N 0 0 0
0:00:00.00 543713 N 0 0 0
0:00:00.00 543935 N 0 0 0
0:00:00.00 544149 N 0 0 0
0:00:00.00 544387 N 0 0 0
0:00:00.00 544626 N 0 0 0
0:00:00.00 544865 N 0 0 0
0:00:00.00 545094 N 0 0 0
0:00:00.00 545323 N 0 0 0
0:00:00.00 545553 N 0 0 0
0:00:00.00 545731 N 0 0 0
0:00:00.00 545987 N 0 0 0
0:00:00.00 546215 N 0 0 0
0:00:00.00 546444 N 0 0 0
0:00:00.00 546680 N 0 0 0
0:00:00.00 546923 N 0 0 0
0:00:00.00 547162 N 0 0 0
0:00:00.00 547396 N 0 0 0
0:00:00.00 547632 N 0 0 0
0:00:00.00 547868 N 0 0 0
0:00:00.00 548095 N 0 0 0
0:00:00.00 548316 N 0 0 0
0:00:00.00 548534 N 0 0 0
0:00:00.00 548777 N 0 0 0
0:00:00.00 549027 N 0 0 0
0:00:00.00 549266 N 0 0 0
0:00:00.00 549500 N 0 0 0
0:00:00.00 549689 N 0 0 0
0:00:00.00 549954 N 0 0 0
0:00:00.00 550184 N 0 0 0
0:00:00.00 550413 N 0 0 0
0:00:00.00 550562 N 0 0 0
0:00:00.00 550778 N 0 0 0
0:00:00.00 550949 N 0 0 0
0:00:00.00 551102 N 0 0 0
0:00:00.00 551252 N 0 0 0
0:00:00.00 551399 N 0 0 0
0:00:00.00 551547 N 0 0 0
0:00:00.00 551702 N 0 0 0
0:00:00.00 551920 N 0 0 0
0:00:00.00 552211 N 0 0 0
0:00:00.00 552442 N 0 0 0
0:00:00.00 552663 N 0 0 0
0:00:00.00 552879 N 0 0 0
0:00:00.00 553111 N 0 0 0
0:00:00.00 553345 N 0 0 0
0:00:00.00 553577 N 0 0 0
0:00:00.00 553808 N 0 0 0
0:00:00.00 554029 N 0 0 0
0:00:00.00 554254 N 0 0 0
0:00:00.00 554468 N 0 0 0
0:00:00.00 554693 N 0 0 0
0:00:00.00 554913 N 0 0 0
0:00:00.00 555145 N 0 0 0
0:00:00.00 555340 N 0 0 0
0:00:00.00 555610 N 0 0 0
0:00:00.00 555849 N 0 0 0
0:00:00.00 556085 N 0 0 0
0:00:00.00 556315 N 0 0 0
0:00:00.00 556544 N 0 0 0
0:00:00.00 556778 N 0 0 0
0:00:00.00 556996 N 0 0 0
0:00:00.00 557177 N 0 0 0
0:00:00.00 557446 N 0 0 0
0:00:00.00 557689 N 0 0 0
0:00:00.00 557933 N 0 0 0
0:00:00.00 558164 N 0 0 0
0:00:00.00 558392 N 0 0 0
0:00:00.00 558614 N 0 0 0
0:00:00.00 558839 N 0 0 0
0:00:00.00 559051 N 0 0 0
0:00:00.00 559278 N 0 0 0
0:00:00.00 559514 N 0 0 0
0:00:00.00 559759 N 0 0 0
0:00:00.00 559998 N 0 0 0
0:00:00.00 560180 N 0 0 0
0:00:00.00 560441 N 0 0 0
0:00:00.00 560671 N 0 0 0
0:00:00.00 560898 N 0 0 0
0:00:00.00 561096 N 0 0 0
0:00:00.00 561337 N 0 0 0
0:00:00.00 561560 N 0 0 0
0:00:00.00 561798 N 0 0 0
0:00:00.00 562043 N 0 0 0
0:00:00.00 562282 N 0 0 0
0:00:00.00 562520 N 0 0 0
0:00:00.00 562754 N 0 0 0
0:00:00.00 562984 N 0 0 0
0:00:00.00 563218 N 0 0 0
0:00:00.00 563441 N 0 0 0
0:00:00.00 563665 N 0 0 0
0:00:00.00 563911 N 0 0 0
0:00:00.00 564154 N 0 0 0
0:00:00.00 564395 N 0 0 0
0:00:00.00 564624 N 0 0 0
0:00:00.00 564853 N 0 0 0
0:00:00.00 565088 N 0 0 0
0:00:00.00 565268 N 0 0 0
0:00:00.00 565528 N 0 0 0
0:00:00.00 565753 N 0 0 0
0:00:00.00 565983 N 0 0 0
0:00:00.00 566152 N 0 0 0
0:00:00.00 566419 N 0 0 0
0:00:00.00 566662 N 0 0 0
0:00:00.00 566897 N 0 0 0
0:00:00.00 567126 N 0 0 0
0:00:00.00 567355 N 0 0 0
0:00:00.00 567578 N 0 0 0
0:00:00.00 567796 N 0 0 0
0:00:00.00 568021 N 0 0 0
0:00:00.00 568237 N 0 0 0
0:00:00.00 568494 N 0 0 0
0:00:00.00 568735 N 0 0 0
0:00:00.00 568967 N 0 0 0
0:00:00.00 569200 N 0 0 0
0:00:00.00 569423 N 0 0 0
0:00:00.00 569648 N 0 0 0
0:00:00.00 569878 N 0 0 0
0:00:00.00 570100 N 0 0 0
0:00:00.00 570334 N 0 0 0
0:00:00.00 570568 N 0 0 0
0:00:00.00 570805 N 0 0 0
0:00:00.00 571045 N 0 0 0
0:00:00.00 571268 N 0 0 0
0:00:00.00 571502 N 0 0 0
0:00:00.00 571736 N 0 0 0
0:00:00.00 571963 N 0 0 0
0:00:00.00 572175 N 0 0 0
0:00:00.00 572400 N 0 0 0
0:00:00.00 572636 N 0 0 0
0:00:00.00 572863 N 0 0 0
0:00:00.00 573115 N 0 0 0
0:00:00.00 573343 N 0 0 0
0:00:00.00 573566 N 0 0 0
0:00:00.00 573790 N 0 0 0
0:00:00.00 574015 N 0 0 0
0:00:00.00 574236 N 0 0 0
0:00:00.00 574459 N 0 0 0
0:00:00.00 574693 N 0 0 0
0:00:00.00 574873 N 0 0 0
0:00:00.00 575156 N 0 0 0
0:00:00.00 575395 N 0 0 0
0:00:00.00 575624 N 0 0 0
0:00:00.00 575856 N 0 0 0
0:00:00.00 576086 N 0 0 0
0:00:00.00 576310 N 0 0 0
0:00:00.00 576520 N 0 0 0
0:00:00.00 576754 N 0 0 0
0:00:00.00 576954 N 0 0 0
0:00:00.00 577213 N 0 0 0
0:00:00.00 577451 N 0 0 0
0:00:00.00 577676 N 0 0 0
0:00:00.00 577843 N 0 0 0
0:00:00.00 578068 N 0 0 0
0:00:00.00 578286 N 0 0 0
0:00:00.00 578502 N 0 0 0
0:00:00.00 578711 N 0 0 0
0:00:00.00 578936 N 0 0 0
0:00:00.00 579166 N 0 0 0
0:00:00.00 579397 N 0 0 0
0:00:00.00 579623 N 0 0 0
0:00:00.00 579836 N 0 0 0
0:00:00.00 580061 N 0 0 0
0:00:00.00 580277 N 0 0 0
0:00:00.00 580489 N 0 0 0
0:00:00.00 580709 N 0 0 0
0:00:00.00 580912 N 0 0 0
0:00:00.00 581139 N 0 0 0
0:00:00.00 581362 N 0 0 0
0:00:00.00 581567 N 0 0 0
0:00:00.00 581818 N 0 0 0
0:00:00.00 582043 N 0 0 0
0:00:00.00 582264 N 0 0 0
0:00:00.00 582476 N 0 0 0
0:00:00.00 582653 N 0 0 0
0:00:00.00 582894 N 0 0 0
0:00:00.00 583106 N 0 0 0
0:00:00.00 583337 N 0 0 0
0:00:00.00 583567 N 0 0 0
0:00:00.00 583799 N 0 0 0
0:00:00.00 584023 N 0 0 0
0:00:00.00 584239 N 0 0 0
0:00:00.00 584455 N 0 0 0
0:00:00.00 584674 N 0 0 0
0:00:00.00 584890 N 0 0 0
0:00:00.00 585095 N 0 0 0
0:00:00.00 585317 N 0 0 0
0:00:00.00 585538 N 0 0 0
0:00:00.00 585767 N 0 0 0
0:00:00.00 585999 N 0 0 0
0:00:00.00 586220 N 0 0 0
0:00:00.00 586447 N 0 0 0
0:00:00.00 586670 N 0 0 0
0:00:00.00 586868 N 0 0 0
0:00:00.00 587104 N 0 0 0
0:00:00.00 587309 N 0 0 0
0:00:00.00 587536 N 0 0 0
0:00:00.00 587774 N 0 0 0
0:00:00.00 587981 N 0 0 0
0:00:00.00 588238 N 0 0 0
0:00:00.00 588461 N 0 0 0
0:00:00.00 588685 N 0 0 0
0:00:00.00 588906 N 0 0 0
0:00:00.00 589122 N 0 0 0
0:00:00.00 589342 N 0 0 0
0:00:00.00 589554 N 0 0 0
0:00:00.00 589784 N 0 0 0
0:00:00.00 590011 N 0 0 0
0:00:00.00 590238 N 0 0 0
0:00:00.00 590461 N 0 0 0
0:00:00.00 590684 N 0 0 0
0:00:00.00 590886 N 0 0 0
0:00:00.00 591122 N 0 0 0
0:00:00.00 591343 N 0 0 0
0:00:00.00 591552 N 0 0 0
0:00:00.00 591763 N 0 0 0
0:00:00.00 591971 N 0 0 0
0:00:00.00 592218 N 0 0 0
0:00:00.00 592448 N 0 0 0
0:00:00.00 592673 N 0 0 0
0:00:00.00 592889 N 0 0 0
0:00:00.00 593109 N 0 0 0
0:00:00.00 593320 N 0 0 0
0:00:00.00 593532 N 0 0 0
0:00:00.00 593748 N 0 0 0
0:00:00.00 593966 N 0 0 0
0:00:00.00 594196 N 0 0 0
0:00:00.00 594419 N 0 0 0
0:00:00.00 594653 N 0 0 0
0:00:00.00 594880 N 0 0 0
0:00:00.00 595100 N 0 0 0
0:00:00.00 595321 N 0 0 0
0:00:00.00 595537 N 0 0 0
0:00:00.00 595753 N 0 0 0
0:00:00.00 595951 N 0 0 0
0:00:00.00 596165 N 0 0 0
0:00:00.00 596380 N 0 0 0
0:00:00.00 596605 N 0 0 0
0:00:00.00 596826 N 0 0 0
0:00:00.00 597038 N 0 0 0
0:00:00.00 597253 N 0 0 0
0:00:00.00 597458 N 0 0 0
0:00:00.00 597661 N 0 0 0
0:00:00.00 597868 N 0 0 0
0:00:00.00 598064 N 0 0 0
0:00:00.00 598275 N 0 0 0
0:00:00.00 598487 N 0 0 0
0:00:00.00 598678 N 0 0 0
0:00:00.00 598918 N 0 0 0
0:00:00.00 599135 N 0 0 0
0:00:00.00 599341 N 0 0 0
0:00:00.00 599551 N 0 0 0
0:00:00.00 599760 N 0 0 0
0:00:00.00 599969 N 0 0 0
0:00:00.00 600178 N 0 0 0
0:00:00.00 600379 N 0 0 0
0:00:00.00 600602 N 0 0 0
0:00:00.00 600824 N 0 0 0
0:00:00.00 601052 N 0 0 0
0:00:00.00 601277 N 0 0 0
0:00:00.00 601434 N 0 0 0
0:00:00.00 601682 N 0 0 0
0:00:00.00 601904 N 0 0 0
0:00:00.00 602122 N 0 0 0
0:00:00.00 602330 N 0 0 0
0:00:00.00 602539 N 0 0 0
0:00:00.00 602762 N 0 0 0
0:00:00.00 602993 N 0 0 0
0:00:00.00 603220 N 0 0 0
0:00:00.00 603410 N 0 0 0
0:00:00.00 603644 N 0 0 0
0:00:00.00 603859 N 0 0 0
0:00:00.00 604075 N 0 0 0
0:00:00.00 604229 N 0 0 0
0:00:00.00 604478 N 0 0 0
0:00:00.00 604690 N 0 0 0
0:00:00.00 604910 N 0 0 0
0:00:00.00 605138 N 0 0 0
0:00:00.00 605358 N 0 0 0
0:00:00.00 605585 N 0 0 0
0:00:00.00 605810 N 0 0 0
0:00:00.00 605995 N 0 0 0
0:00:00.00 606244 N 0 0 0
0:00:00.00 606456 N 0 0 0
0:00:00.00 606674 N 0 0 0
0:00:00.00 606890 N 0 0 0
0:00:00.00 607111 N 0 0 0
0:00:00.00 607349 N 0 0 0
0:00:00.00 607577 N 0 0 0
0:00:00.00 607802 N 0 0 0
0:00:00.00 608020 N 0 0 0
0:00:00.00 608236 N 0 0 0
0:00:00.00 608450 N 0 0 0
0:00:00.00 608665 N 0 0 0
0:00:00.00 608864 N 0 0 0
0:00:00.00 609089 N 0 0 0
0:00:00.00 609311 N 0 0 0
0:00:00.00 609530 N 0 0 0
0:00:00.00 609709 N 0 0 0
0:00:00.00 609957 N 0 0 0
0:00:00.00 610178 N 0 0 0
0:00:00.00 610400 N 0 0 0
0:00:00.00 610621 N 0 0 0
0:00:00.00 610844 N 0 0 0
0:00:00.00 611057 N 0 0 0
0:00:00.00 611273 N 0 0 0
0:00:00.00 611501 N 0 0 0
0:00:00.00 611690 N 0 0 0
0:00:00.00 611959 N 0 0 0
0:00:00.00 612182 N 0 0 0
0:00:00.00 612400 N 0 0 0
0:00:00.00 612616 N 0 0 0
0:00:00.00 612824 N 0 0 0
0:00:00.00 613037 N 0 0 0
0:00:00.00 613240 N 0 0 0
0:00:00.00 613453 N 0 0 0
0:00:00.00 613685 N 0 0 0
0:00:00.00 613906 N 0 0 0
0:00:00.00 614129 N 0 0 0
0:00:00.00 614342 N 0 0 0
0:00:00.00 614513 N 0 0 0
0:00:00.00 614756 N 0 0 0
0:00:00.00 614975 N 0 0 0
0:00:00.00 615193 N 0 0 0
0:00:00.00 615398 N 0 0 0
0:00:00.00 615618 N 0 0 0
0:00:00.00 615845 N 0 0 0
0:00:00.00 616072 N 0 0 0
0:00:00.00 616306 N 0 0 0
0:00:00.00 616531 N 0 0 0
0:00:00.00 616759 N 0 0 0
0:00:00.00 616981 N 0 0 0
0:00:00.00 617132 N 0 0 0
0:00:00.00 617342 N 0 0 0
0:00:00.00 617506 N 0 0 0
0:00:00.00 617647 N 0 0 0
0:00:00.00 617798 N 0 0 0
0:00:00.00 617953 N 0 0 0
0:00:00.00 618165 N 0 0 0
0:00:00.00 618350 N 0 0 0
0:00:00.00 618502 N 0 0 0
0:00:00.00 618649 N 0 0 0
0:00:00.00 618863 N 0 0 0
0:00:00.00 619038 N 0 0 0
0:00:00.00 619178 N 0 0 0
0:00:00.00 619321 N 0 0 0
0:00:00.00 619468 N 0 0 0
0:00:00.00 619607 N 0 0 0
0:00:00.00 619742 N 0 0 0
0:00:00.00 619884 N 0 0 0
0:00:00.00 620037 N 0 0 0
0:00:00.00 620188 N 0 0 0
0:00:00.00 620399 N 0 0 0
0:00:00.00 620694 N 0 0 0
0:00:00.00 620928 N 0 0 0
0:00:00.00 621151 N 0 0 0
0:00:00.00 621347 N 0 0 0
0:00:00.00 621567 N 0 0 0
0:00:00.00 621779 N 0 0 0
0:00:00.00 621990 N 0 0 0
0:00:00.00 622157 N 0 0 0
0:00:00.00 622417 N 0 0 0
0:00:00.00 622665 N 0 0 0
0:00:00.00 622895 N 0 0 0
0:00:00.00 623119 N 0 0 0
0:00:00.00 623342 N 0 0 0
0:00:00.00 623572 N 0 0 0
0:00:00.00 623803 N 0 0 0
0:00:00.00 624002 N 0 0 0
0:00:00.00 624244 N 0 0 0
0:00:00.00 624483 N 0 0 0
0:00:00.00 624724 N 0 0 0
0:00:00.00 624962 N 0 0 0
0:00:00.00 625199 N 0 0 0
0:00:00.00 625435 N 0 0 0
0:00:00.00 625669 N 0 0 0
0:00:00.00 625896 N 0 0 0
0:00:00.00 626119 N 0 0 0
0:00:00.00 626346 N 0 0 0
0:00:00.00 626591 N 0 0 0
0:00:00.00 626845 N 0 0 0
0:00:00.00 627035 N 0 0 0
0:00:00.00 627316 N 0 0 0
0:00:00.00 627559 N 0 0 0
0:00:00.00 627800 N 0 0 0
0:00:00.00 628033 N 0 0 0
0:00:00.00 628268 N 0 0 0
0:00:00.00 628501 N 0 0 0
0:00:00.00 628740 N 0 0 0
0:00:00.00 628934 N 0 0 0
0:00:00.00 629217 N 0 0 0
0:00:00.00 629462 N 0 0 0
0:00:00.00 629705 N 0 0 0
0:00:00.00 629941 N 0 0 0
0:00:00.00 630178 N 0 0 0
0:00:00.00 630407 N 0 0 0
0:00:00.00 630632 N 0 0 0
0:00:00.00 630873 N 0 0 0
0:00:00.00 631125 N 0 0 0
0:00:00.00 631373 N 0 0 0
0:00:00.00 631615 N 0 0 0
0:00:00.00 631778 N 0 0 0
0:00:00.00 631984 N 0 0 0
0:00:00.00 632151 N 0 0 0
0:00:00.00 632291 N 0 0 0
0:00:00.00 632434 N 0 0 0
0:00:00.00 632578 N 0 0 0
0:00:00.00 632720 N 0 0 0
0:00:00.00 632938 N 0 0 0
0:00:00.00 633249 N 0 0 0
0:00:00.00 633492 N 0 0 0
0:00:00.00 633726 N 0 0 0
0:00:00.00 633960 N 0 0 0
0:00:00.00 634192 N 0 0 0
0:00:00.00 634424 N 0 0 0
0:00:00.00 634621 N 0 0 0
0:00:00.00 634867 N 0 0 0
0:00:00.00 635101 N 0 0 0
0:00:00.00 635346 N 0 0 0
0:00:00.00 635594 N 0 0 0
0:00:00.00 635836 N 0 0 0
0:00:00.00 636068 N 0 0 0
0:00:00.00 636302 N 0 0 0
0:00:00.00 636518 N 0 0 0
0:00:00.00 636752 N 0 0 0
0:00:00.00 636970 N 0 0 0
0:00:00.00 637205 N 0 0 0
0:00:00.00 637448 N 0 0 0
0:00:00.00 637686 N 0 0 0
0:00:00.00 637925 N 0 0 0
0:00:00.00 638158 N 0 0 0
0:00:00.00 638392 N 0 0 0
0:00:00.00 638626 N 0 0 0
0:00:00.00 638856 N 0 0 0
0:00:00.00 639085 N 0 0 0
0:00:00.00 639308 N 0 0 0
0:00:00.00 639493 N 0 0 0
0:00:00.00 639778 N 0 0 0
0:00:00.00 640024 N 0 0 0
0:00:00.00 640262 N 0 0 0
0:00:00.00 640499 N 0 0 0
0:00:00.00 640733 N 0 0 0
0:00:00.00 640966 N 0 0 0
0:00:00.00 641194 N 0 0 0
0:00:00.00 641421 N 0 0 0
0:00:00.00 641669 N 0 0 0
0:00:00.00 641920 N 0 0 0
0:00:00.00 642172 N 0 0 0
0:00:00.00 642411 N 0 0 0
0:00:00.00 642620 N 0 0 0
0:00:00.00 642879 N 0 0 0
0:00:00.00 643108 N 0 0 0
0:00:00.00 643340 N 0 0 0
0:00:00.00 643568 N 0 0 0
0:00:00.00 643804 N 0 0 0
0:00:00.00 644047 N 0 0 0
0:00:00.00 644278 N 0 0 0
0:00:00.00 644474 N 0 0 0
0:00:00.00 644740 N 0 0 0
0:00:00.00 644971 N 0 0 0
0:00:00.00 645196 N 0 0 0
0:00:00.00 645354 N 0 0 0
0:00:00.00 645604 N 0 0 0
0:00:00.00 645842 N 0 0 0
0:00:00.00 646076 N 0 0 0
0:00:00.00 646322 N 0 0 0
0:00:00.00 646565 N 0 0 0
0:00:00.00 646796 N 0 0 0
0:00:00.00 647035 N 0 0 0
0:00:00.00 647267 N 0 0 0
0:00:00.00 647444 N 0 0 0
0:00:00.00 647717 N 0 0 0
0:00:00.00 647948 N 0 0 0
0:00:00.00 648196 N 0 0 0
0:00:00.00 648437 N 0 0 0
0:00:00.00 648675 N 0 0 0
0:00:00.00 648913 N 0 0 0
0:00:00.00 649150 N 0 0 0
0:00:00.00 649390 N 0 0 0
0:00:00.00 649627 N 0 0 0
0:00:00.00 649858 N 0 0 0
