0:00:00.00 20 N 0 0 0
0:00:00.00 94 N 0 0 0
0:00:00.00 254 N 0 0 0
0:00:00.00 475 N 0 0 0
0:00:00.00 617 N 0 0 0
0:00:00.00 869 N 0 0 0
0:00:00.00 1084 N 0 0 0
0:00:00.00 1301 N 0 0 0
0:00:00.00 1589 N 0 0 0
0:00:00.00 1820 N 0 0 0
0:00:00.00 2030 N 0 0 0
0:00:00.00 2252 N 0 0 0
0:00:00.00 2511 N 0 0 0
0:00:00.00 2752 N 0 0 0
0:00:00.00 2990 N 0 0 0
0:00:00.00 3251 N 0 0 0
0:00:00.00 3467 N 0 0 0
0:00:00.00 3676 N 0 0 0
0:00:00.00 4153 N 0 0 0
0:00:00.00 4383 N 0 0 0
0:00:00.00 4599 N 0 0 0
0:00:00.00 4829 N 0 0 0
0:00:00.00 5128 N 0 0 0
0:00:00.00 5366 N 0 0 0
0:00:00.00 5634 N 0 0 0
0:00:00.00 5830 N 0 0 0
0:00:00.00 6093 N 0 0 0
0:00:00.00 6368 N 0 0 0
0:00:00.00 6743 N 0 0 0
0:00:00.00 6952 N 0 0 0
0:00:00.00 7191 N 0 0 0
0:00:00.00 7418 N 0 0 0
0:00:00.00 7621 N 0 0 0
0:00:00.00 7846 N 0 0 0
0:00:00.00 8129 N 0 0 0
0:00:00.00 8402 N 0 0 0
0:00:00.00 8672 N 0 0 0
0:00:00.00 8879 N 0 0 0
0:00:00.00 9104 N 0 0 0
0:00:00.00 9419 N 0 0 0
0:00:00.00 9682 N 0 0 0
0:00:00.00 9902 N 0 0 0
0:00:00.00 10249 N 0 0 0
0:00:00.00 10501 N 0 0 0
0:00:00.00 10753 N 0 0 0
0:00:00.00 10953 N 0 0 0
0:00:00.00 11093 N 0 0 0
0:00:00.00 11430 N 0 0 0
0:00:00.00 11673 N 0 0 0
0:00:00.00 11927 N 0 0 0
0:00:00.00 12170 N 0 0 0
0:00:00.00 12380 N 0 0 0
0:00:00.00 12791 N 0 0 0
0:00:00.00 13019 N 0 0 0
0:00:00.00 13203 N 0 0 0
0:00:00.00 13455 N 0 0 0
0:00:00.00 13725 N 0 0 0
0:00:00.00 13979 N 0 0 0
0:00:00.00 14200 N 0 0 0
0:00:00.00 14452 N 0 0 0
0:00:00.00 14670 N 0 0 0
0:00:00.00 14956 N 0 0 0
0:00:00.00 15187 N 0 0 0
0:00:00.00 15415 N 0 0 0
0:00:00.00 15644 N 0 0 0
0:00:00.00 15876 N 0 0 0
0:00:00.00 16128 N 0 0 0
0:00:00.00 16355 N 0 0 0
0:00:00.00 16609 N 0 0 0
0:00:00.00 16846 N 0 0 0
0:00:00.00 17003 N 0 0 0
0:00:00.00 17262 N 0 0 0
0:00:00.00 17525 N 0 0 0
0:00:00.00 17789 N 0 0 0
0:00:00.00 18058 N 0 0 0
0:00:00.00 18261 N 0 0 0
0:00:00.00 18515 N 0 0 0
0:00:00.00 18751 N 0 0 0
0:00:00.00 18979 N 0 0 0
0:00:00.00 19359 N 0 0 0
0:00:00.00 19557 N 0 0 0
0:00:00.00 19771 N 0 0 0
0:00:00.00 20038 N 0 0 0
0:00:00.00 20277 N 0 0 0
0:00:00.00 20515 N 0 0 0
0:00:00.00 20695 N 0 0 0
0:00:00.00 21051 N 0 0 0
0:00:00.00 21249 N 0 0 0
0:00:00.00 21447 N 0 0 0
0:00:00.00 21640 N 0 0 0
0:00:00.00 21843 N 0 0 0
0:00:00.00 22084 N 0 0 0
0:00:00.00 22358 N 0 0 0
0:00:00.00 22622 N 0 0 0
0:00:00.00 22878 N 0 0 0
0:00:00.00 23189 N 0 0 0
0:00:00.00 23440 N 0 0 0
0:00:00.00 23693 N 0 0 0
0:00:00.00 23940 N 0 0 0
0:00:00.00 24196 N 0 0 0
0:00:00.00 24435 N 0 0 0
0:00:00.00 24701 N 0 0 0
0:00:00.00 24971 N 0 0 0
0:00:00.00 25196 N 0 0 0
0:00:00.00 25393 N 0 0 0
0:00:00.00 25520 N 0 0 0
0:00:00.00 25850 N 0 0 0
0:00:00.00 26105 N 0 0 0
0:00:00.00 26311 N 0 0 0
0:00:00.00 26518 N 0 0 0
0:00:00.00 26782 N 0 0 0
0:00:00.00 27113 N 0 0 0
0:00:00.00 27369 N 0 0 0
0:00:00.00 27583 N 0 0 0
0:00:00.00 27828 N 0 0 0
0:00:00.00 28102 N 0 0 0
0:00:00.00 28334 N 0 0 0
0:00:00.00 28624 N 0 0 0
0:00:00.00 28890 N 0 0 0
0:00:00.00 29138 N 0 0 0
0:00:00.00 29417 N 0 0 0
0:00:00.00 29664 N 0 0 0
0:00:00.00 29912 N 0 0 0
0:00:00.00 30208 N 0 0 0
0:00:00.00 30451 N 0 0 0
0:00:00.00 30686 N 0 0 0
0:00:00.00 30960 N 0 0 0
0:00:00.00 31154 N 0 0 0
0:00:00.00 31426 N 0 0 0
0:00:00.00 31639 N 0 0 0
0:00:00.00 31919 N 0 0 0
0:00:00.00 32153 N 0 0 0
0:00:00.00 32342 N 0 0 0
0:00:00.00 32555 N 0 0 0
0:00:00.00 32809 N 0 0 0
0:00:00.00 33088 N 0 0 0
0:00:00.00 33341 N 0 0 0
0:00:00.00 33608 N 0 0 0
0:00:00.00 33872 N 0 0 0
0:00:00.00 34132 N 0 0 0
0:00:00.00 34382 N 0 0 0
0:00:00.00 34609 N 0 0 0
0:00:00.00 34803 N 0 0 0
0:00:00.00 35073 N 0 0 0
0:00:00.00 35386 N 0 0 0
0:00:00.00 35698 N 0 0 0
0:00:00.00 35915 N 0 0 0
0:00:00.00 36167 N 0 0 0
0:00:00.00 36423 N 0 0 0
0:00:00.00 36646 N 0 0 0
0:00:00.00 36893 N 0 0 0
0:00:00.00 37123 N 0 0 0
0:00:00.00 37332 N 0 0 0
0:00:00.00 37615 N 0 0 0
0:00:00.00 37877 N 0 0 0
0:00:00.00 38137 N 0 0 0
0:00:00.00 38371 N 0 0 0
0:00:00.00 38605 N 0 0 0
0:00:00.00 38855 N 0 0 0
0:00:00.00 39069 N 0 0 0
0:00:00.00 39343 N 0 0 0
0:00:00.00 39559 N 0 0 0
0:00:00.00 39839 N 0 0 0
0:00:00.00 40115 N 0 0 0
0:00:00.00 40333 N 0 0 0
0:00:00.00 40540 N 0 0 0
0:00:00.00 40781 N 0 0 0
0:00:00.00 41049 N 0 0 0
0:00:00.00 41303 N 0 0 0
0:00:00.00 41569 N 0 0 0
0:00:00.00 41819 N 0 0 0
0:00:00.00 42052 N 0 0 0
0:00:00.00 42291 N 0 0 0
0:00:00.00 42491 N 0 0 0
0:00:00.00 42682 N 0 0 0
0:00:00.00 42921 N 0 0 0
0:00:00.00 43117 N 0 0 0
0:00:00.00 43348 N 0 0 0
0:00:00.00 43553 N 0 0 0
0:00:00.00 43803 N 0 0 0
0:00:00.00 44136 N 0 0 0
0:00:00.00 44374 N 0 0 0
0:00:00.00 44597 N 0 0 0
0:00:00.00 45054 N 0 0 0
0:00:00.00 45198 N 0 0 0
0:00:00.00 45517 N 0 0 0
0:00:00.00 45661 N 0 0 0
0:00:00.00 45985 N 0 0 0
0:00:00.00 46238 N 0 0 0
0:00:00.00 46431 N 0 0 0
0:00:00.00 46670 N 0 0 0
0:00:00.00 46852 N 0 0 0
0:00:00.00 47115 N 0 0 0
0:00:00.00 47360 N 0 0 0
0:00:00.00 47574 N 0 0 0
0:00:00.00 47830 N 0 0 0
0:00:00.00 48103 N 0 0 0
0:00:00.00 48292 N 0 0 0
0:00:00.00 48510 N 0 0 0
0:00:00.00 48839 N 0 0 0
0:00:00.00 49090 N 0 0 0
0:00:00.00 49318 N 0 0 0
0:00:00.00 49520 N 0 0 0
0:00:00.00 49691 N 0 0 0
0:00:00.00 50000 N 0 0 0
0:00:00.00 50292 N 0 0 0
0:00:00.00 50560 N 0 0 0
0:00:00.00 50816 N 0 0 0
0:00:00.00 51061 N 0 0 0
0:00:00.00 51325 N 0 0 0
0:00:00.00 51523 N 0 0 0
0:00:00.00 51817 N 0 0 0
0:00:00.00 52088 N 0 0 0
0:00:00.00 52373 N 0 0 0
0:00:00.00 52616 N 0 0 0
0:00:00.00 52924 N 0 0 0
0:00:00.00 53170 N 0 0 0
0:00:00.00 53424 N 0 0 0
0:00:00.00 53669 N 0 0 0
0:00:00.00 53968 N 0 0 0
0:00:00.00 54247 N 0 0 0
0:00:00.00 54556 N 0 0 0
0:00:00.00 54785 N 0 0 0
0:00:00.00 55001 N 0 0 0
0:00:00.00 55235 N 0 0 0
0:00:00.00 55546 N 0 0 0
0:00:00.00 55798 N 0 0 0
0:00:00.00 56061 N 0 0 0
0:00:00.00 56313 N 0 0 0
0:00:00.00 56601 N 0 0 0
0:00:00.00 56875 N 0 0 0
0:00:00.00 57130 N 0 0 0
0:00:00.00 57373 N 0 0 0
0:00:00.00 57602 N 0 0 0
0:00:00.00 57856 N 0 0 0
0:00:00.00 58095 N 0 0 0
0:00:00.00 58365 N 0 0 0
0:00:00.00 58576 N 0 0 0
0:00:00.00 58840 N 0 0 0
0:00:00.00 59069 N 0 0 0
0:00:00.00 59404 N 0 0 0
0:00:00.00 59612 N 0 0 0
0:00:00.00 59881 N 0 0 0
0:00:00.00 60122 N 0 0 0
0:00:00.00 60363 N 0 0 0
0:00:00.00 60568 N 0 0 0
0:00:00.00 60764 N 0 0 0
0:00:00.00 61020 N 0 0 0
0:00:00.00 61276 N 0 0 0
0:00:00.00 61528 N 0 0 0
0:00:00.00 61794 N 0 0 0
0:00:00.00 62023 N 0 0 0
0:00:00.00 62253 N 0 0 0
0:00:00.00 62476 N 0 0 0
0:00:00.00 62714 N 0 0 0
0:00:00.00 62982 N 0 0 0
0:00:00.00 63214 N 0 0 0
0:00:00.00 63481 N 0 0 0
0:00:00.00 63718 N 0 0 0
0:00:00.00 63949 N 0 0 0
0:00:00.00 64220 N 0 0 0
0:00:00.00 64471 N 0 0 0
0:00:00.00 64769 N 0 0 0
0:00:00.00 64993 N 0 0 0
0:00:00.00 65243 N 0 0 0
0:00:00.00 65525 N 0 0 0
0:00:00.00 65810 N 0 0 0
0:00:00.00 66044 N 0 0 0
0:00:00.00 66307 N 0 0 0
0:00:00.00 66625 N 0 0 0
0:00:00.00 66823 N 0 0 0
0:00:00.00 67081 N 0 0 0
0:00:00.00 67333 N 0 0 0
0:00:00.00 67574 N 0 0 0
0:00:00.00 67838 N 0 0 0
0:00:00.00 68119 N 0 0 0
0:00:00.00 68366 N 0 0 0
0:00:00.00 68566 N 0 0 0
0:00:00.00 68823 N 0 0 0
0:00:00.00 69080 N 0 0 0
0:00:00.00 69304 N 0 0 0
0:00:00.00 69529 N 0 0 0
0:00:00.00 69754 N 0 0 0
0:00:00.00 70016 N 0 0 0
0:00:00.00 70294 N 0 0 0
0:00:00.00 70535 N 0 0 0
0:00:00.00 70794 N 0 0 0
0:00:00.00 71028 N 0 0 0
0:00:00.00 71285 N 0 0 0
0:00:00.00 71509 N 0 0 0
0:00:00.00 71730 N 0 0 0
0:00:00.00 71939 N 0 0 0
0:00:00.00 72086 N 0 0 0
0:00:00.00 72243 N 0 0 0
0:00:00.00 72571 N 0 0 0
0:00:00.00 72796 N 0 0 0
0:00:00.00 73019 N 0 0 0
0:00:00.00 73226 N 0 0 0
0:00:00.00 73467 N 0 0 0
0:00:00.00 73715 N 0 0 0
0:00:00.00 73996 N 0 0 0
0:00:00.00 74254 N 0 0 0
0:00:00.00 74471 N 0 0 0
0:00:00.00 74831 N 0 0 0
0:00:00.00 75073 N 0 0 0
0:00:00.00 75278 N 0 0 0
0:00:00.00 75481 N 0 0 0
0:00:00.00 75663 N 0 0 0
0:00:00.00 75958 N 0 0 0
0:00:00.00 76226 N 0 0 0
0:00:00.00 76451 N 0 0 0
0:00:00.00 76687 N 0 0 0
0:00:00.00 76900 N 0 0 0
0:00:00.00 77153 N 0 0 0
0:00:00.00 77351 N 0 0 0
0:00:00.00 77544 N 0 0 0
0:00:00.00 77800 N 0 0 0
0:00:00.00 78039 N 0 0 0
0:00:00.00 78278 N 0 0 0
0:00:00.00 78525 N 0 0 0
0:00:00.00 78768 N 0 0 0
0:00:00.00 78991 N 0 0 0
0:00:00.00 79169 N 0 0 0
0:00:00.00 79479 N 0 0 0
0:00:00.00 79720 N 0 0 0
0:00:00.00 79961 N 0 0 0
0:00:00.00 80213 N 0 0 0
0:00:00.00 80465 N 0 0 0
0:00:00.00 80906 N 0 0 0
0:00:00.00 81187 N 0 0 0
0:00:00.00 81335 N 0 0 0
0:00:00.00 81414 N 0 0 0
0:00:00.00 81486 N 0 0 0
0:00:00.00 81644 N 0 0 0
0:00:00.00 81878 N 0 0 0
0:00:00.00 82102 N 0 0 0
0:00:00.00 82395 N 0 0 0
0:00:00.00 82667 N 0 0 0
0:00:00.00 82921 N 0 0 0
0:00:00.00 83135 N 0 0 0
0:00:00.00 83399 N 0 0 0
0:00:00.00 83666 N 0 0 0
0:00:00.00 83903 N 0 0 0
0:00:00.00 84033 N 0 0 0
0:00:00.00 84319 N 0 0 0
0:00:00.00 84524 N 0 0 0
0:00:00.00 84787 N 0 0 0
0:00:00.00 85063 N 0 0 0
0:00:00.00 85189 N 0 0 0
0:00:00.00 85327 N 0 0 0
0:00:00.00 85577 N 0 0 0
0:00:00.00 85819 N 0 0 0
0:00:00.00 86076 N 0 0 0
0:00:00.00 86314 N 0 0 0
0:00:00.00 86537 N 0 0 0
0:00:00.00 86731 N 0 0 0
0:00:00.00 87129 N 0 0 0
0:00:00.00 87404 N 0 0 0
0:00:00.00 87655 N 0 0 0
0:00:00.00 87889 N 0 0 0
0:00:00.00 88150 N 0 0 0
0:00:00.00 88396 N 0 0 0
0:00:00.00 88636 N 0 0 0
0:00:00.00 88857 N 0 0 0
0:00:00.00 89077 N 0 0 0
0:00:00.00 89318 N 0 0 0
0:00:00.00 89602 N 0 0 0
0:00:00.00 89901 N 0 0 0
0:00:00.00 90164 N 0 0 0
0:00:00.00 90369 N 0 0 0
0:00:00.00 90592 N 0 0 0
0:00:00.00 90859 N 0 0 0
0:00:00.00 91123 N 0 0 0
0:00:00.00 91364 N 0 0 0
0:00:00.00 91589 N 0 0 0
0:00:00.00 91840 N 0 0 0
0:00:00.00 92142 N 0 0 0
0:00:00.00 92405 N 0 0 0
0:00:00.00 92815 N 0 0 0
0:00:00.00 93013 N 0 0 0
0:00:00.00 93262 N 0 0 0
0:00:00.00 93397 N 0 0 0
0:00:00.00 93670 N 0 0 0
0:00:00.00 93924 N 0 0 0
0:00:00.00 94187 N 0 0 0
0:00:00.00 94480 N 0 0 0
0:00:00.00 94711 N 0 0 0
0:00:00.00 95051 N 0 0 0
0:00:00.00 95283 N 0 0 0
0:00:00.00 95576 N 0 0 0
0:00:00.00 95843 N 0 0 0
0:00:00.00 96100 N 0 0 0
0:00:00.00 96397 N 0 0 0
0:00:00.00 96622 N 0 0 0
0:00:00.00 96782 N 0 0 0
0:00:00.00 97094 N 0 0 0
0:00:00.00 97339 N 0 0 0
0:00:00.00 97580 N 0 0 0
0:00:00.00 97834 N 0 0 0
0:00:00.00 98082 N 0 0 0
0:00:00.00 98388 N 0 0 0
0:00:00.00 98564 N 0 0 0
0:00:00.00 98791 N 0 0 0
0:00:00.00 99072 N 0 0 0
0:00:00.00 99320 N 0 0 0
0:00:00.00 99572 N 0 0 0
0:00:00.00 99833 N 0 0 0
0:00:00.00 100039 N 0 0 0
0:00:00.00 100273 N 0 0 0
0:00:00.00 100557 N 0 0 0
0:00:00.00 100732 N 0 0 0
0:00:00.00 100978 N 0 0 0
0:00:00.00 101241 N 0 0 0
0:00:00.00 101461 N 0 0 0
0:00:00.00 101660 N 0 0 0
0:00:00.00 101912 N 0 0 0
0:00:00.00 102145 N 0 0 0
0:00:00.00 102386 N 0 0 0
0:00:00.00 102649 N 0 0 0
0:00:00.00 102922 N 0 0 0
0:00:00.00 103171 N 0 0 0
0:00:00.00 103444 N 0 0 0
0:00:00.00 103655 N 0 0 0
0:00:00.00 103889 N 0 0 0
0:00:00.00 104141 N 0 0 0
0:00:00.00 104429 N 0 0 0
0:00:00.00 104728 N 0 0 0
0:00:00.00 104958 N 0 0 0
0:00:00.00 105190 N 0 0 0
0:00:00.00 105428 N 0 0 0
0:00:00.00 105705 N 0 0 0
0:00:00.00 105952 N 0 0 0
0:00:00.00 106160 N 0 0 0
0:00:00.00 106385 N 0 0 0
0:00:00.00 106826 N 0 0 0
0:00:00.00 107091 N 0 0 0
0:00:00.00 107316 N 0 0 0
0:00:00.00 107525 N 0 0 0
0:00:00.00 107737 N 0 0 0
0:00:00.00 107982 N 0 0 0
0:00:00.00 108194 N 0 0 0
0:00:00.00 108657 N 0 0 0
0:00:00.00 108839 N 0 0 0
0:00:00.00 109062 N 0 0 0
0:00:00.00 109305 N 0 0 0
0:00:00.00 109546 N 0 0 0
0:00:00.00 109768 N 0 0 0
0:00:00.00 110007 N 0 0 0
0:00:00.00 110255 N 0 0 0
0:00:00.00 110511 N 0 0 0
0:00:00.00 110770 N 0 0 0
0:00:00.00 110997 N 0 0 0
0:00:00.00 111263 N 0 0 0
0:00:00.00 111537 N 0 0 0
0:00:00.00 111767 N 0 0 0
0:00:00.00 112001 N 0 0 0
0:00:00.00 112270 N 0 0 0
0:00:00.00 112498 N 0 0 0
0:00:00.00 112707 N 0 0 0
0:00:00.00 112955 N 0 0 0
0:00:00.00 113166 N 0 0 0
0:00:00.00 113375 N 0 0 0
0:00:00.00 113614 N 0 0 0
0:00:00.00 113926 N 0 0 0
0:00:00.00 114185 N 0 0 0
0:00:00.00 114394 N 0 0 0
0:00:00.00 114592 N 0 0 0
0:00:00.00 114772 N 0 0 0
0:00:00.00 115065 N 0 0 0
0:00:00.00 115331 N 0 0 0
0:00:00.00 115564 N 0 0 0
0:00:00.00 115799 N 0 0 0
0:00:00.00 115916 N 0 0 0
0:00:00.00 116228 N 0 0 0
0:00:00.00 116469 N 0 0 0
0:00:00.00 116701 N 0 0 0
0:00:00.00 116912 N 0 0 0
0:00:00.00 117164 N 0 0 0
0:00:00.00 117513 N 0 0 0
0:00:00.00 117763 N 0 0 0
0:00:00.00 117994 N 0 0 0
0:00:00.00 118310 N 0 0 0
0:00:00.00 118546 N 0 0 0
0:00:00.00 118789 N 0 0 0
0:00:00.00 119018 N 0 0 0
0:00:00.00 119268 N 0 0 0
0:00:00.00 119502 N 0 0 0
0:00:00.00 119981 N 0 0 0
0:00:00.00 120186 N 0 0 0
0:00:00.00 120415 N 0 0 0
0:00:00.00 120755 N 0 0 0
0:00:00.00 121057 N 0 0 0
0:00:00.00 121311 N 0 0 0
0:00:00.00 121561 N 0 0 0
0:00:00.00 121837 N 0 0 0
0:00:00.00 122085 N 0 0 0
0:00:00.00 122366 N 0 0 0
0:00:00.00 122596 N 0 0 0
0:00:00.00 122839 N 0 0 0
0:00:00.00 123073 N 0 0 0
0:00:00.00 123293 N 0 0 0
0:00:00.00 123514 N 0 0 0
0:00:00.00 123822 N 0 0 0
0:00:00.00 124056 N 0 0 0
0:00:00.00 124295 N 0 0 0
0:00:00.00 124529 N 0 0 0
0:00:00.00 124826 N 0 0 0
0:00:00.00 125098 N 0 0 0
0:00:00.00 125311 N 0 0 0
0:00:00.00 125575 N 0 0 0
0:00:00.00 125829 N 0 0 0
0:00:00.00 126126 N 0 0 0
0:00:00.00 126401 N 0 0 0
0:00:00.00 126643 N 0 0 0
0:00:00.00 126889 N 0 0 0
0:00:00.00 127165 N 0 0 0
0:00:00.00 127413 N 0 0 0
0:00:00.00 127647 N 0 0 0
0:00:00.00 127877 N 0 0 0
0:00:00.00 128137 N 0 0 0
0:00:00.00 128425 N 0 0 0
0:00:00.00 128623 N 0 0 0
0:00:00.00 128873 N 0 0 0
0:00:00.00 129002 N 0 0 0
0:00:00.00 129310 N 0 0 0
0:00:00.00 129524 N 0 0 0
0:00:00.00 129758 N 0 0 0
0:00:00.00 130018 N 0 0 0
0:00:00.00 130279 N 0 0 0
0:00:00.00 130554 N 0 0 0
0:00:00.00 130824 N 0 0 0
0:00:00.00 131150 N 0 0 0
0:00:00.00 131504 N 0 0 0
0:00:00.00 131756 N 0 0 0
0:00:00.00 132016 N 0 0 0
0:00:00.00 132275 N 0 0 0
0:00:00.00 132539 N 0 0 0
0:00:00.00 132811 N 0 0 0
0:00:00.00 133049 N 0 0 0
0:00:00.00 133340 N 0 0 0
0:00:00.00 133636 N 0 0 0
0:00:00.00 133891 N 0 0 0
0:00:00.00 134093 N 0 0 0
0:00:00.00 134384 N 0 0 0
0:00:00.00 134645 N 0 0 0
0:00:00.00 134897 N 0 0 0
0:00:00.00 135173 N 0 0 0
0:00:00.00 135403 N 0 0 0
0:00:00.00 135648 N 0 0 0
0:00:00.00 135855 N 0 0 0
0:00:00.00 136094 N 0 0 0
0:00:00.00 136337 N 0 0 0
0:00:00.00 136665 N 0 0 0
0:00:00.00 136910 N 0 0 0
0:00:00.00 137192 N 0 0 0
0:00:00.00 137439 N 0 0 0
0:00:00.00 137684 N 0 0 0
0:00:00.00 137929 N 0 0 0
0:00:00.00 138155 N 0 0 0
0:00:00.00 138415 N 0 0 0
0:00:00.00 138668 N 0 0 0
0:00:00.00 138933 N 0 0 0
0:00:00.00 139289 N 0 0 0
0:00:00.00 139529 N 0 0 0
0:00:00.00 139779 N 0 0 0
0:00:00.00 140033 N 0 0 0
0:00:00.00 140252 N 0 0 0
0:00:00.00 140548 N 0 0 0
0:00:00.00 140834 N 0 0 0
0:00:00.00 141109 N 0 0 0
0:00:00.00 141361 N 0 0 0
0:00:00.00 141651 N 0 0 0
0:00:00.00 141923 N 0 0 0
0:00:00.00 142196 N 0 0 0
0:00:00.00 142387 N 0 0 0
0:00:00.00 142616 N 0 0 0
0:00:00.00 142870 N 0 0 0
0:00:00.00 143107 N 0 0 0
0:00:00.00 143392 N 0 0 0
0:00:00.00 143671 N 0 0 0
0:00:00.00 143939 N 0 0 0
0:00:00.00 144203 N 0 0 0
0:00:00.00 144450 N 0 0 0
0:00:00.00 144673 N 0 0 0
0:00:00.00 144922 N 0 0 0
0:00:00.00 145132 N 0 0 0
0:00:00.00 145418 N 0 0 0
0:00:00.00 145710 N 0 0 0
0:00:00.00 145942 N 0 0 0
0:00:00.00 146198 N 0 0 0
0:00:00.00 146407 N 0 0 0
0:00:00.00 146626 N 0 0 0
0:00:00.00 146839 N 0 0 0
0:00:00.00 147040 N 0 0 0
0:00:00.00 147249 N 0 0 0
0:00:00.00 147577 N 0 0 0
0:00:00.00 147836 N 0 0 0
0:00:00.00 148104 N 0 0 0
0:00:00.00 148336 N 0 0 0
0:00:00.00 148550 N 0 0 0
0:00:00.00 148784 N 0 0 0
0:00:00.00 149017 N 0 0 0
0:00:00.00 149236 N 0 0 0
0:00:00.00 149560 N 0 0 0
0:00:00.00 149830 N 0 0 0
0:00:00.00 150052 N 0 0 0
0:00:00.00 150316 N 0 0 0
0:00:00.00 150575 N 0 0 0
0:00:00.00 150822 N 0 0 0
0:00:00.00 151034 N 0 0 0
0:00:00.00 151247 N 0 0 0
0:00:00.00 151459 N 0 0 0
0:00:00.00 151774 N 0 0 0
0:00:00.00 152078 N 0 0 0
0:00:00.00 152212 N 0 0 0
0:00:00.00 152606 N 0 0 0
0:00:00.00 152732 N 0 0 0
0:00:00.00 153065 N 0 0 0
0:00:00.00 153295 N 0 0 0
0:00:00.00 153499 N 0 0 0
0:00:00.00 153760 N 0 0 0
0:00:00.00 154048 N 0 0 0
0:00:00.00 154316 N 0 0 0
0:00:00.00 154555 N 0 0 0
0:00:00.00 154778 N 0 0 0
0:00:00.00 155027 N 0 0 0
0:00:00.00 155399 N 0 0 0
0:00:00.00 155639 N 0 0 0
0:00:00.00 155909 N 0 0 0
0:00:00.00 156163 N 0 0 0
0:00:00.00 156449 N 0 0 0
0:00:00.00 156703 N 0 0 0
0:00:00.00 156937 N 0 0 0
0:00:00.00 157180 N 0 0 0
0:00:00.00 157399 N 0 0 0
0:00:00.00 157610 N 0 0 0
0:00:00.00 157824 N 0 0 0
0:00:00.00 158040 N 0 0 0
0:00:00.00 158310 N 0 0 0
0:00:00.00 158553 N 0 0 0
0:00:00.00 158953 N 0 0 0
0:00:00.00 159212 N 0 0 0
0:00:00.00 159480 N 0 0 0
0:00:00.00 159737 N 0 0 0
0:00:00.00 159937 N 0 0 0
0:00:00.00 160182 N 0 0 0
0:00:00.00 160443 N 0 0 0
0:00:00.00 160726 N 0 0 0
0:00:00.00 160983 N 0 0 0
0:00:00.00 161213 N 0 0 0
0:00:00.00 161478 N 0 0 0
0:00:00.00 161703 N 0 0 0
0:00:00.00 161935 N 0 0 0
0:00:00.00 162169 N 0 0 0
0:00:00.00 162443 N 0 0 0
0:00:00.00 162704 N 0 0 0
0:00:00.00 163130 N 0 0 0
0:00:00.00 163363 N 0 0 0
0:00:00.00 163597 N 0 0 0
0:00:00.00 163852 N 0 0 0
0:00:00.00 164223 N 0 0 0
0:00:00.00 164450 N 0 0 0
0:00:00.00 164745 N 0 0 0
0:00:00.00 165019 N 0 0 0
0:00:00.00 165285 N 0 0 0
0:00:00.00 165497 N 0 0 0
0:00:00.00 165697 N 0 0 0
0:00:00.00 165931 N 0 0 0
0:00:00.00 166194 N 0 0 0
0:00:00.00 166469 N 0 0 0
0:00:00.00 166689 N 0 0 0
0:00:00.00 166887 N 0 0 0
0:00:00.00 167130 N 0 0 0
0:00:00.00 167382 N 0 0 0
0:00:00.00 167627 N 0 0 0
0:00:00.00 167897 N 0 0 0
0:00:00.00 168199 N 0 0 0
0:00:00.00 168448 N 0 0 0
0:00:00.00 168687 N 0 0 0
0:00:00.00 168957 N 0 0 0
0:00:00.00 169222 N 0 0 0
0:00:00.00 169454 N 0 0 0
0:00:00.00 169717 N 0 0 0
0:00:00.00 170057 N 0 0 0
0:00:00.00 170226 N 0 0 0
0:00:00.00 170474 N 0 0 0
0:00:00.00 170595 N 0 0 0
0:00:00.00 170860 N 0 0 0
0:00:00.00 171121 N 0 0 0
0:00:00.00 171385 N 0 0 0
0:00:00.00 171596 N 0 0 0
0:00:00.00 171832 N 0 0 0
0:00:00.00 172102 N 0 0 0
0:00:00.00 172361 N 0 0 0
0:00:00.00 172575 N 0 0 0
0:00:00.00 172820 N 0 0 0
0:00:00.00 173043 N 0 0 0
0:00:00.00 173293 N 0 0 0
0:00:00.00 173597 N 0 0 0
0:00:00.00 173846 N 0 0 0
0:00:00.00 174191 N 0 0 0
0:00:00.00 174591 N 0 0 0
0:00:00.00 174845 N 0 0 0
0:00:00.00 175109 N 0 0 0
0:00:00.00 175374 N 0 0 0
0:00:00.00 175608 N 0 0 0
0:00:00.00 175909 N 0 0 0
0:00:00.00 176170 N 0 0 0
0:00:00.00 176407 N 0 0 0
0:00:00.00 176607 N 0 0 0
0:00:00.00 176967 N 0 0 0
0:00:00.00 177149 N 0 0 0
0:00:00.00 177404 N 0 0 0
0:00:00.00 177707 N 0 0 0
0:00:00.00 177986 N 0 0 0
0:00:00.00 178234 N 0 0 0
0:00:00.00 178495 N 0 0 0
0:00:00.00 178751 N 0 0 0
0:00:00.00 178938 N 0 0 0
0:00:00.00 179276 N 0 0 0
0:00:00.00 179501 N 0 0 0
0:00:00.00 179941 N 0 0 0
0:00:00.00 180191 N 0 0 0
0:00:00.00 180454 N 0 0 0
0:00:00.00 180682 N 0 0 0
0:00:00.00 180968 N 0 0 0
0:00:00.00 181217 N 0 0 0
0:00:00.00 181444 N 0 0 0
0:00:00.00 181645 N 0 0 0
0:00:00.00 181868 N 0 0 0
0:00:00.00 182164 N 0 0 0
0:00:00.00 182457 N 0 0 0
0:00:00.00 182752 N 0 0 0
0:00:00.00 182986 N 0 0 0
0:00:00.00 183199 N 0 0 0
0:00:00.00 183434 N 0 0 0
0:00:00.00 183685 N 0 0 0
0:00:00.00 183949 N 0 0 0
0:00:00.00 184226 N 0 0 0
0:00:00.00 184455 N 0 0 0
0:00:00.00 184721 N 0 0 0
0:00:00.00 184970 N 0 0 0
0:00:00.00 185110 N 0 0 0
0:00:00.00 185461 N 0 0 0
0:00:00.00 185612 N 0 0 0
0:00:00.00 185890 N 0 0 0
0:00:00.00 186188 N 0 0 0
0:00:00.00 186473 N 0 0 0
0:00:00.00 186730 N 0 0 0
0:00:00.00 186977 N 0 0 0
0:00:00.00 187202 N 0 0 0
0:00:00.00 187409 N 0 0 0
0:00:00.00 187646 N 0 0 0
0:00:00.00 187891 N 0 0 0
0:00:00.00 188132 N 0 0 0
0:00:00.00 188388 N 0 0 0
0:00:00.00 188676 N 0 0 0
0:00:00.00 188915 N 0 0 0
0:00:00.00 189198 N 0 0 0
0:00:00.00 189457 N 0 0 0
0:00:00.00 189680 N 0 0 0
0:00:00.00 189972 N 0 0 0
0:00:00.00 190211 N 0 0 0
0:00:00.00 190435 N 0 0 0
0:00:00.00 190681 N 0 0 0
0:00:00.00 190942 N 0 0 0
0:00:00.00 191210 N 0 0 0
0:00:00.00 191495 N 0 0 0
0:00:00.00 191767 N 0 0 0
0:00:00.00 192038 N 0 0 0
0:00:00.00 192280 N 0 0 0
0:00:00.00 192506 N 0 0 0
0:00:00.00 192784 N 0 0 0
0:00:00.00 193068 N 0 0 0
0:00:00.00 193304 N 0 0 0
0:00:00.00 193549 N 0 0 0
0:00:00.00 193766 N 0 0 0
0:00:00.00 193981 N 0 0 0
0:00:00.00 194431 N 0 0 0
0:00:00.00 194933 N 0 0 0
0:00:00.00 195174 N 0 0 0
0:00:00.00 195403 N 0 0 0
0:00:00.00 195662 N 0 0 0
0:00:00.00 195921 N 0 0 0
0:00:00.00 196139 N 0 0 0
0:00:00.00 196335 N 0 0 0
0:00:00.00 196592 N 0 0 0
0:00:00.00 196850 N 0 0 0
0:00:00.00 197107 N 0 0 0
0:00:00.00 197379 N 0 0 0
0:00:00.00 197606 N 0 0 0
0:00:00.00 197847 N 0 0 0
0:00:00.00 198081 N 0 0 0
0:00:00.00 198293 N 0 0 0
0:00:00.00 198457 N 0 0 0
0:00:00.00 198738 N 0 0 0
0:00:00.00 198958 N 0 0 0
0:00:00.00 199210 N 0 0 0
0:00:00.00 199449 N 0 0 0
0:00:00.00 199712 N 0 0 0
0:00:00.00 199942 N 0 0 0
0:00:00.00 200205 N 0 0 0
0:00:00.00 200450 N 0 0 0
0:00:00.00 200695 N 0 0 0
0:00:00.00 200923 N 0 0 0
0:00:00.00 201028 N 0 0 0
0:00:00.00 201292 N 0 0 0
0:00:00.00 201530 N 0 0 0
0:00:00.00 201800 N 0 0 0
0:00:00.00 202041 N 0 0 0
0:00:00.00 202484 N 0 0 0
0:00:00.00 202702 N 0 0 0
0:00:00.00 202928 N 0 0 0
0:00:00.00 203175 N 0 0 0
0:00:00.00 203400 N 0 0 0
0:00:00.00 203670 N 0 0 0
0:00:00.00 203951 N 0 0 0
0:00:00.00 204190 N 0 0 0
0:00:00.00 204401 N 0 0 0
0:00:00.00 204626 N 0 0 0
0:00:00.00 204874 N 0 0 0
0:00:00.00 205141 N 0 0 0
0:00:00.00 205358 N 0 0 0
0:00:00.00 205582 N 0 0 0
0:00:00.00 205805 N 0 0 0
0:00:00.00 206069 N 0 0 0
0:00:00.00 206321 N 0 0 0
0:00:00.00 206575 N 0 0 0
0:00:00.00 206791 N 0 0 0
0:00:00.00 207034 N 0 0 0
0:00:00.00 207238 N 0 0 0
0:00:00.00 207475 N 0 0 0
0:00:00.00 207792 N 0 0 0
0:00:00.00 208066 N 0 0 0
0:00:00.00 208330 N 0 0 0
0:00:00.00 208600 N 0 0 0
0:00:00.00 208879 N 0 0 0
0:00:00.00 209120 N 0 0 0
0:00:00.00 209340 N 0 0 0
0:00:00.00 209588 N 0 0 0
0:00:00.00 209848 N 0 0 0
0:00:00.00 210175 N 0 0 0
0:00:00.00 210422 N 0 0 0
0:00:00.00 210679 N 0 0 0
0:00:00.00 210951 N 0 0 0
0:00:00.00 211207 N 0 0 0
0:00:00.00 211442 N 0 0 0
0:00:00.00 211784 N 0 0 0
0:00:00.00 212031 N 0 0 0
0:00:00.00 212256 N 0 0 0
0:00:00.00 212506 N 0 0 0
0:00:00.00 212798 N 0 0 0
0:00:00.00 213156 N 0 0 0
0:00:00.00 213469 N 0 0 0
0:00:00.00 213743 N 0 0 0
0:00:00.00 214002 N 0 0 0
0:00:00.00 214225 N 0 0 0
0:00:00.00 214484 N 0 0 0
0:00:00.00 214796 N 0 0 0
0:00:00.00 215062 N 0 0 0
0:00:00.00 215291 N 0 0 0
0:00:00.00 215489 N 0 0 0
0:00:00.00 215719 N 0 0 0
0:00:00.00 216025 N 0 0 0
0:00:00.00 216164 N 0 0 0
0:00:00.00 216421 N 0 0 0
0:00:00.00 216661 N 0 0 0
0:00:00.00 217082 N 0 0 0
0:00:00.00 217298 N 0 0 0
0:00:00.00 217552 N 0 0 0
0:00:00.00 217847 N 0 0 0
0:00:00.00 218048 N 0 0 0
0:00:00.00 218277 N 0 0 0
0:00:00.00 218401 N 0 0 0
0:00:00.00 218671 N 0 0 0
0:00:00.00 218925 N 0 0 0
0:00:00.00 219164 N 0 0 0
0:00:00.00 219418 N 0 0 0
0:00:00.00 219875 N 0 0 0
0:00:00.00 220090 N 0 0 0
0:00:00.00 220280 N 0 0 0
0:00:00.00 220448 N 0 0 0
0:00:00.00 220680 N 0 0 0
0:00:00.00 220963 N 0 0 0
0:00:00.00 221242 N 0 0 0
0:00:00.00 221519 N 0 0 0
0:00:00.00 221789 N 0 0 0
0:00:00.00 221998 N 0 0 0
0:00:00.00 222255 N 0 0 0
0:00:00.00 222455 N 0 0 0
0:00:00.00 222669 N 0 0 0
0:00:00.00 222827 N 0 0 0
0:00:00.00 222939 N 0 0 0
0:00:00.00 223263 N 0 0 0
0:00:00.00 223517 N 0 0 0
0:00:00.00 223763 N 0 0 0
0:00:00.00 224026 N 0 0 0
0:00:00.00 224264 N 0 0 0
0:00:00.00 224483 N 0 0 0
0:00:00.00 224737 N 0 0 0
0:00:00.00 225002 N 0 0 0
0:00:00.00 225220 N 0 0 0
0:00:00.00 225481 N 0 0 0
0:00:00.00 225736 N 0 0 0
0:00:00.00 226046 N 0 0 0
0:00:00.00 226323 N 0 0 0
0:00:00.00 226566 N 0 0 0
0:00:00.00 226816 N 0 0 0
0:00:00.00 227081 N 0 0 0
0:00:00.00 227374 N 0 0 0
0:00:00.00 227610 N 0 0 0
0:00:00.00 227945 N 0 0 0
0:00:00.00 228157 N 0 0 0
0:00:00.00 228411 N 0 0 0
0:00:00.00 228672 N 0 0 0
0:00:00.00 228901 N 0 0 0
0:00:00.00 229099 N 0 0 0
0:00:00.00 229336 N 0 0 0
0:00:00.00 229592 N 0 0 0
0:00:00.00 229862 N 0 0 0
0:00:00.00 230105 N 0 0 0
0:00:00.00 230314 N 0 0 0
0:00:00.00 230531 N 0 0 0
0:00:00.00 230726 N 0 0 0
0:00:00.00 230980 N 0 0 0
0:00:00.00 231197 N 0 0 0
0:00:00.00 231386 N 0 0 0
0:00:00.00 231521 N 0 0 0
0:00:00.00 231788 N 0 0 0
0:00:00.00 232020 N 0 0 0
0:00:00.00 232245 N 0 0 0
0:00:00.00 232495 N 0 0 0
0:00:00.00 232688 N 0 0 0
0:00:00.00 232882 N 0 0 0
0:00:00.00 233105 N 0 0 0
0:00:00.00 233352 N 0 0 0
0:00:00.00 233615 N 0 0 0
0:00:00.00 233879 N 0 0 0
0:00:00.00 234117 N 0 0 0
0:00:00.00 234382 N 0 0 0
0:00:00.00 234623 N 0 0 0
0:00:00.00 234869 N 0 0 0
0:00:00.00 235062 N 0 0 0
0:00:00.00 235269 N 0 0 0
0:00:00.00 235503 N 0 0 0
0:00:00.00 235861 N 0 0 0
0:00:00.00 236119 N 0 0 0
0:00:00.00 236414 N 0 0 0
0:00:00.00 236705 N 0 0 0
0:00:00.00 237004 N 0 0 0
0:00:00.00 237231 N 0 0 0
0:00:00.00 237467 N 0 0 0
0:00:00.00 237713 N 0 0 0
0:00:00.00 237969 N 0 0 0
0:00:00.00 238282 N 0 0 0
0:00:00.00 238559 N 0 0 0
0:00:00.00 238811 N 0 0 0
0:00:00.00 239049 N 0 0 0
0:00:00.00 239283 N 0 0 0
0:00:00.00 239517 N 0 0 0
0:00:00.00 239746 N 0 0 0
0:00:00.00 239936 N 0 0 0
0:00:00.00 240174 N 0 0 0
0:00:00.00 240413 N 0 0 0
0:00:00.00 240647 N 0 0 0
0:00:00.00 240937 N 0 0 0
0:00:00.00 241204 N 0 0 0
0:00:00.00 241438 N 0 0 0
0:00:00.00 241670 N 0 0 0
0:00:00.00 241920 N 0 0 0
0:00:00.00 242122 N 0 0 0
0:00:00.00 242233 N 0 0 0
0:00:00.00 242573 N 0 0 0
0:00:00.00 242849 N 0 0 0
0:00:00.00 243153 N 0 0 0
0:00:00.00 243414 N 0 0 0
0:00:00.00 243637 N 0 0 0
0:00:00.00 243839 N 0 0 0
0:00:00.00 244127 N 0 0 0
0:00:00.00 244382 N 0 0 0
0:00:00.00 244602 N 0 0 0
0:00:00.00 244901 N 0 0 0
0:00:00.00 245137 N 0 0 0
0:00:00.00 245340 N 0 0 0
0:00:00.00 245596 N 0 0 0
0:00:00.00 245821 N 0 0 0
0:00:00.00 246008 N 0 0 0
0:00:00.00 246287 N 0 0 0
0:00:00.00 246515 N 0 0 0
0:00:00.00 246785 N 0 0 0
0:00:00.00 247115 N 0 0 0
0:00:00.00 247349 N 0 0 0
0:00:00.00 247669 N 0 0 0
0:00:00.00 247928 N 0 0 0
0:00:00.00 248211 N 0 0 0
0:00:00.00 248641 N 0 0 0
0:00:00.00 248888 N 0 0 0
0:00:00.00 249217 N 0 0 0
0:00:00.00 249480 N 0 0 0
0:00:00.00 249700 N 0 0 0
0:00:00.00 249988 N 0 0 0
0:00:00.00 250223 N 0 0 0
0:00:00.00 250461 N 0 0 0
0:00:00.00 250711 N 0 0 0
0:00:00.00 250958 N 0 0 0
0:00:00.00 251208 N 0 0 0
0:00:00.00 251501 N 0 0 0
0:00:00.00 251750 N 0 0 0
0:00:00.00 252004 N 0 0 0
0:00:00.00 252238 N 0 0 0
0:00:00.00 252482 N 0 0 0
0:00:00.00 252722 N 0 0 0
0:00:00.00 252970 N 0 0 0
0:00:00.00 253213 N 0 0 0
0:00:00.00 253458 N 0 0 0
0:00:00.00 253705 N 0 0 0
0:00:00.00 253928 N 0 0 0
0:00:00.00 254189 N 0 0 0
0:00:00.00 254432 N 0 0 0
0:00:00.00 254650 N 0 0 0
0:00:00.00 254914 N 0 0 0
0:00:00.00 255145 N 0 0 0
0:00:00.00 255461 N 0 0 0
0:00:00.00 255739 N 0 0 0
0:00:00.00 255974 N 0 0 0
0:00:00.00 256181 N 0 0 0
0:00:00.00 256457 N 0 0 0
0:00:00.00 256725 N 0 0 0
0:00:00.00 256945 N 0 0 0
0:00:00.00 257175 N 0 0 0
0:00:00.00 257429 N 0 0 0
0:00:00.00 257665 N 0 0 0
0:00:00.00 257909 N 0 0 0
0:00:00.00 258179 N 0 0 0
0:00:00.00 258410 N 0 0 0
0:00:00.00 258651 N 0 0 0
0:00:00.00 258880 N 0 0 0
0:00:00.00 259123 N 0 0 0
0:00:00.00 259378 N 0 0 0
0:00:00.00 259610 N 0 0 0
0:00:00.00 259821 N 0 0 0
0:00:00.00 260069 N 0 0 0
0:00:00.00 260332 N 0 0 0
0:00:00.00 260579 N 0 0 0
0:00:00.00 260802 N 0 0 0
0:00:00.00 261029 N 0 0 0
0:00:00.00 261281 N 0 0 0
0:00:00.00 261533 N 0 0 0
0:00:00.00 261725 N 0 0 0
0:00:00.00 261947 N 0 0 0
0:00:00.00 262161 N 0 0 0
0:00:00.00 262296 N 0 0 0
0:00:00.00 262541 N 0 0 0
0:00:00.00 262683 N 0 0 0
0:00:00.00 262937 N 0 0 0
0:00:00.00 263201 N 0 0 0
0:00:00.00 263417 N 0 0 0
0:00:00.00 263671 N 0 0 0
0:00:00.00 263947 N 0 0 0
0:00:00.00 264229 N 0 0 0
0:00:00.00 264506 N 0 0 0
0:00:00.00 264755 N 0 0 0
0:00:00.00 265018 N 0 0 0
0:00:00.00 265219 N 0 0 0
0:00:00.00 265450 N 0 0 0
0:00:00.00 265669 N 0 0 0
0:00:00.00 265914 N 0 0 0
0:00:00.00 266256 N 0 0 0
0:00:00.00 266512 N 0 0 0
0:00:00.00 266731 N 0 0 0
0:00:00.00 266983 N 0 0 0
0:00:00.00 267228 N 0 0 0
0:00:00.00 267541 N 0 0 0
0:00:00.00 267799 N 0 0 0
0:00:00.00 268121 N 0 0 0
0:00:00.00 268396 N 0 0 0
0:00:00.00 268612 N 0 0 0
0:00:00.00 268897 N 0 0 0
0:00:00.00 269132 N 0 0 0
0:00:00.00 269410 N 0 0 0
0:00:00.00 269631 N 0 0 0
0:00:00.00 269879 N 0 0 0
0:00:00.00 270124 N 0 0 0
0:00:00.00 270365 N 0 0 0
0:00:00.00 270574 N 0 0 0
0:00:00.00 270824 N 0 0 0
0:00:00.00 271141 N 0 0 0
0:00:00.00 271390 N 0 0 0
0:00:00.00 271624 N 0 0 0
0:00:00.00 271849 N 0 0 0
0:00:00.00 272088 N 0 0 0
0:00:00.00 272324 N 0 0 0
0:00:00.00 272560 N 0 0 0
0:00:00.00 272804 N 0 0 0
0:00:00.00 273035 N 0 0 0
0:00:00.00 273330 N 0 0 0
0:00:00.00 273566 N 0 0 0
0:00:00.00 273940 N 0 0 0
0:00:00.00 274203 N 0 0 0
0:00:00.00 274464 N 0 0 0
0:00:00.00 274757 N 0 0 0
0:00:00.00 275029 N 0 0 0
0:00:00.00 275267 N 0 0 0
0:00:00.00 275566 N 0 0 0
0:00:00.00 275821 N 0 0 0
0:00:00.00 276044 N 0 0 0
0:00:00.00 276259 N 0 0 0
0:00:00.00 276545 N 0 0 0
0:00:00.00 276800 N 0 0 0
0:00:00.00 277061 N 0 0 0
0:00:00.00 277313 N 0 0 0
0:00:00.00 277522 N 0 0 0
0:00:00.00 277853 N 0 0 0
0:00:00.00 277985 N 0 0 0
0:00:00.00 278203 N 0 0 0
0:00:00.00 278424 N 0 0 0
0:00:00.00 278680 N 0 0 0
0:00:00.00 278928 N 0 0 0
0:00:00.00 279169 N 0 0 0
0:00:00.00 279396 N 0 0 0
0:00:00.00 279590 N 0 0 0
0:00:00.00 279826 N 0 0 0
0:00:00.00 280008 N 0 0 0
0:00:00.00 280337 N 0 0 0
0:00:00.00 280494 N 0 0 0
0:00:00.00 280750 N 0 0 0
0:00:00.00 281000 N 0 0 0
0:00:00.00 281257 N 0 0 0
0:00:00.00 281504 N 0 0 0
0:00:00.00 281763 N 0 0 0
0:00:00.00 281992 N 0 0 0
0:00:00.00 282226 N 0 0 0
0:00:00.00 282497 N 0 0 0
0:00:00.00 282706 N 0 0 0
0:00:00.00 282967 N 0 0 0
0:00:00.00 283181 N 0 0 0
0:00:00.00 283401 N 0 0 0
0:00:00.00 283684 N 0 0 0
0:00:00.00 283948 N 0 0 0
0:00:00.00 284240 N 0 0 0
0:00:00.00 284535 N 0 0 0
0:00:00.00 284816 N 0 0 0
0:00:00.00 285071 N 0 0 0
0:00:00.00 285289 N 0 0 0
0:00:00.00 285523 N 0 0 0
0:00:00.00 285799 N 0 0 0
0:00:00.00 286043 N 0 0 0
0:00:00.00 286292 N 0 0 0
0:00:00.00 286564 N 0 0 0
0:00:00.00 286826 N 0 0 0
0:00:00.00 287060 N 0 0 0
0:00:00.00 287230 N 0 0 0
0:00:00.00 287626 N 0 0 0
0:00:00.00 287858 N 0 0 0
0:00:00.00 288095 N 0 0 0
0:00:00.00 288308 N 0 0 0
0:00:00.00 288754 N 0 0 0
0:00:00.00 289071 N 0 0 0
0:00:00.00 289382 N 0 0 0
0:00:00.00 289609 N 0 0 0
0:00:00.00 289845 N 0 0 0
0:00:00.00 290129 N 0 0 0
0:00:00.00 290392 N 0 0 0
0:00:00.00 290642 N 0 0 0
0:00:00.00 290844 N 0 0 0
0:00:00.00 291143 N 0 0 0
0:00:00.00 291447 N 0 0 0
0:00:00.00 291679 N 0 0 0
0:00:00.00 291919 N 0 0 0
0:00:00.00 292198 N 0 0 0
0:00:00.00 292448 N 0 0 0
0:00:00.00 292784 N 0 0 0
0:00:00.00 293042 N 0 0 0
0:00:00.00 293287 N 0 0 0
0:00:00.00 293522 N 0 0 0
0:00:00.00 293782 N 0 0 0
0:00:00.00 293998 N 0 0 0
0:00:00.00 294264 N 0 0 0
0:00:00.00 294502 N 0 0 0
0:00:00.00 294755 N 0 0 0
0:00:00.00 295049 N 0 0 0
0:00:00.00 295313 N 0 0 0
0:00:00.00 295573 N 0 0 0
0:00:00.00 295801 N 0 0 0
0:00:00.00 296035 N 0 0 0
0:00:00.00 296285 N 0 0 0
0:00:00.00 296566 N 0 0 0
0:00:00.00 296831 N 0 0 0
0:00:00.00 297110 N 0 0 0
0:00:00.00 297338 N 0 0 0
0:00:00.00 297567 N 0 0 0
0:00:00.00 297765 N 0 0 0
0:00:00.00 297891 N 0 0 0
0:00:00.00 298136 N 0 0 0
0:00:00.00 298330 N 0 0 0
0:00:00.00 298598 N 0 0 0
0:00:00.00 298814 N 0 0 0
0:00:00.00 298969 N 0 0 0
0:00:00.00 299137 N 0 0 0
0:00:00.00 299426 N 0 0 0
0:00:00.00 299693 N 0 0 0
0:00:00.00 299961 N 0 0 0
0:00:00.00 300224 N 0 0 0
0:00:00.00 300465 N 0 0 0
0:00:00.00 300721 N 0 0 0
0:00:00.00 300976 N 0 0 0
0:00:00.00 301180 N 0 0 0
0:00:00.00 301432 N 0 0 0
0:00:00.00 301689 N 0 0 0
0:00:00.00 301950 N 0 0 0
0:00:00.00 302202 N 0 0 0
0:00:00.00 302468 N 0 0 0
0:00:00.00 302697 N 0 0 0
0:00:00.00 302911 N 0 0 0
0:00:00.00 303050 N 0 0 0
0:00:00.00 303156 N 0 0 0
0:00:00.00 303403 N 0 0 0
0:00:00.00 303631 N 0 0 0
0:00:00.00 303962 N 0 0 0
0:00:00.00 304184 N 0 0 0
0:00:00.00 304418 N 0 0 0
0:00:00.00 304661 N 0 0 0
0:00:00.00 304936 N 0 0 0
0:00:00.00 305190 N 0 0 0
0:00:00.00 305415 N 0 0 0
0:00:00.00 305687 N 0 0 0
0:00:00.00 305915 N 0 0 0
0:00:00.00 306133 N 0 0 0
0:00:00.00 306392 N 0 0 0
0:00:00.00 306545 N 0 0 0
0:00:00.00 306778 N 0 0 0
0:00:00.00 307024 N 0 0 0
0:00:00.00 307280 N 0 0 0
0:00:00.00 307543 N 0 0 0
0:00:00.00 307816 N 0 0 0
0:00:00.00 308072 N 0 0 0
0:00:00.00 308322 N 0 0 0
0:00:00.00 308536 N 0 0 0
0:00:00.00 308867 N 0 0 0
0:00:00.00 309089 N 0 0 0
0:00:00.00 309337 N 0 0 0
0:00:00.00 309593 N 0 0 0
0:00:00.00 309832 N 0 0 0
0:00:00.00 310086 N 0 0 0
0:00:00.00 310356 N 0 0 0
0:00:00.00 310608 N 0 0 0
0:00:00.00 310874 N 0 0 0
0:00:00.00 311042 N 0 0 0
0:00:00.00 311303 N 0 0 0
0:00:00.00 311632 N 0 0 0
0:00:00.00 311888 N 0 0 0
0:00:00.00 312116 N 0 0 0
0:00:00.00 312368 N 0 0 0
0:00:00.00 312606 N 0 0 0
0:00:00.00 312835 N 0 0 0
0:00:00.00 313081 N 0 0 0
0:00:00.00 313335 N 0 0 0
0:00:00.00 313560 N 0 0 0
0:00:00.00 313832 N 0 0 0
0:00:00.00 314098 N 0 0 0
0:00:00.00 314388 N 0 0 0
0:00:00.00 314624 N 0 0 0
0:00:00.00 314845 N 0 0 0
0:00:00.00 315104 N 0 0 0
0:00:00.00 315329 N 0 0 0
0:00:00.00 315562 N 0 0 0
0:00:00.00 315846 N 0 0 0
0:00:00.00 316008 N 0 0 0
0:00:00.00 316271 N 0 0 0
0:00:00.00 316669 N 0 0 0
0:00:00.00 316915 N 0 0 0
0:00:00.00 317174 N 0 0 0
0:00:00.00 317477 N 0 0 0
0:00:00.00 317709 N 0 0 0
0:00:00.00 317957 N 0 0 0
0:00:00.00 318166 N 0 0 0
0:00:00.00 318407 N 0 0 0
0:00:00.00 318623 N 0 0 0
0:00:00.00 318888 N 0 0 0
0:00:00.00 319144 N 0 0 0
0:00:00.00 319392 N 0 0 0
0:00:00.00 319640 N 0 0 0
0:00:00.00 319882 N 0 0 0
0:00:00.00 320143 N 0 0 0
0:00:00.00 320387 N 0 0 0
0:00:00.00 320663 N 0 0 0
0:00:00.00 320949 N 0 0 0
0:00:00.00 321131 N 0 0 0
0:00:00.00 321370 N 0 0 0
0:00:00.00 321656 N 0 0 0
0:00:00.00 321880 N 0 0 0
0:00:00.00 322112 N 0 0 0
0:00:00.00 322425 N 0 0 0
0:00:00.00 322699 N 0 0 0
0:00:00.00 322904 N 0 0 0
0:00:00.00 323165 N 0 0 0
0:00:00.00 323483 N 0 0 0
0:00:00.00 323719 N 0 0 0
0:00:00.00 323966 N 0 0 0
0:00:00.00 324196 N 0 0 0
0:00:00.00 324445 N 0 0 0
0:00:00.00 324661 N 0 0 0
0:00:00.00 324902 N 0 0 0
0:00:00.00 325105 N 0 0 0
0:00:00.00 325417 N 0 0 0
0:00:00.00 325654 N 0 0 0
0:00:00.00 325850 N 0 0 0
0:00:00.00 326104 N 0 0 0
0:00:00.00 326304 N 0 0 0
0:00:00.00 326533 N 0 0 0
0:00:00.00 326754 N 0 0 0
0:00:00.00 327017 N 0 0 0
0:00:00.00 327280 N 0 0 0
0:00:00.00 327508 N 0 0 0
0:00:00.00 327762 N 0 0 0
0:00:00.00 327996 N 0 0 0
0:00:00.00 328232 N 0 0 0
0:00:00.00 328495 N 0 0 0
0:00:00.00 328820 N 0 0 0
0:00:00.00 329089 N 0 0 0
0:00:00.00 329326 N 0 0 0
0:00:00.00 329567 N 0 0 0
0:00:00.00 329783 N 0 0 0
0:00:00.00 330001 N 0 0 0
0:00:00.00 330223 N 0 0 0
0:00:00.00 330421 N 0 0 0
0:00:00.00 330664 N 0 0 0
0:00:00.00 330880 N 0 0 0
0:00:00.00 331106 N 0 0 0
0:00:00.00 331387 N 0 0 0
0:00:00.00 331675 N 0 0 0
0:00:00.00 331906 N 0 0 0
0:00:00.00 332159 N 0 0 0
0:00:00.00 332401 N 0 0 0
0:00:00.00 332613 N 0 0 0
0:00:00.00 332890 N 0 0 0
0:00:00.00 333113 N 0 0 0
0:00:00.00 333410 N 0 0 0
0:00:00.00 333572 N 0 0 0
0:00:00.00 333857 N 0 0 0
0:00:00.00 334076 N 0 0 0
0:00:00.00 334309 N 0 0 0
0:00:00.00 334571 N 0 0 0
0:00:00.00 334820 N 0 0 0
0:00:00.00 335191 N 0 0 0
0:00:00.00 335426 N 0 0 0
0:00:00.00 335675 N 0 0 0
0:00:00.00 335970 N 0 0 0
0:00:00.00 336220 N 0 0 0
0:00:00.00 336461 N 0 0 0
0:00:00.00 336748 N 0 0 0
0:00:00.00 336951 N 0 0 0
0:00:00.00 337352 N 0 0 0
0:00:00.00 337610 N 0 0 0
0:00:00.00 337903 N 0 0 0
0:00:00.00 338159 N 0 0 0
0:00:00.00 338441 N 0 0 0
0:00:00.00 338657 N 0 0 0
0:00:00.00 338881 N 0 0 0
0:00:00.00 339124 N 0 0 0
0:00:00.00 339359 N 0 0 0
0:00:00.00 339502 N 0 0 0
0:00:00.00 339862 N 0 0 0
0:00:00.00 340141 N 0 0 0
0:00:00.00 340358 N 0 0 0
0:00:00.00 340499 N 0 0 0
0:00:00.00 340781 N 0 0 0
0:00:00.00 341006 N 0 0 0
0:00:00.00 341226 N 0 0 0
0:00:00.00 341453 N 0 0 0
0:00:00.00 341640 N 0 0 0
0:00:00.00 341901 N 0 0 0
0:00:00.00 342169 N 0 0 0
0:00:00.00 342414 N 0 0 0
0:00:00.00 342610 N 0 0 0
0:00:00.00 342851 N 0 0 0
0:00:00.00 343098 N 0 0 0
0:00:00.00 343427 N 0 0 0
0:00:00.00 343645 N 0 0 0
0:00:00.00 343885 N 0 0 0
0:00:00.00 344106 N 0 0 0
0:00:00.00 344347 N 0 0 0
0:00:00.00 344574 N 0 0 0
0:00:00.00 344828 N 0 0 0
0:00:00.00 345091 N 0 0 0
0:00:00.00 345352 N 0 0 0
0:00:00.00 345587 N 0 0 0
0:00:00.00 345775 N 0 0 0
0:00:00.00 345847 N 0 0 0
0:00:00.00 345985 N 0 0 0
0:00:00.00 346124 N 0 0 0
0:00:00.00 346198 N 0 0 0
0:00:00.00 346518 N 0 0 0
0:00:00.00 346662 N 0 0 0
0:00:00.00 346910 N 0 0 0
0:00:00.00 347166 N 0 0 0
0:00:00.00 347396 N 0 0 0
0:00:00.00 347618 N 0 0 0
0:00:00.00 347809 N 0 0 0
0:00:00.00 348039 N 0 0 0
0:00:00.00 348340 N 0 0 0
0:00:00.00 348547 N 0 0 0
0:00:00.00 348781 N 0 0 0
0:00:00.00 349058 N 0 0 0
0:00:00.00 349270 N 0 0 0
0:00:00.00 349416 N 0 0 0
0:00:00.00 349747 N 0 0 0
0:00:00.00 349888 N 0 0 0
0:00:00.00 350210 N 0 0 0
0:00:00.00 350368 N 0 0 0
0:00:00.00 350649 N 0 0 0
0:00:00.00 350919 N 0 0 0
0:00:00.00 351162 N 0 0 0
0:00:00.00 351374 N 0 0 0
0:00:00.00 351639 N 0 0 0
0:00:00.00 351911 N 0 0 0
0:00:00.00 352116 N 0 0 0
0:00:00.00 352370 N 0 0 0
0:00:00.00 352600 N 0 0 0
0:00:00.00 352908 N 0 0 0
0:00:00.00 353144 N 0 0 0
0:00:00.00 353401 N 0 0 0
0:00:00.00 353653 N 0 0 0
0:00:00.00 353889 N 0 0 0
0:00:00.00 354155 N 0 0 0
0:00:00.00 354598 N 0 0 0
0:00:00.00 354856 N 0 0 0
0:00:00.00 355095 N 0 0 0
0:00:00.00 355408 N 0 0 0
0:00:00.00 355675 N 0 0 0
0:00:00.00 355892 N 0 0 0
0:00:00.00 356139 N 0 0 0
0:00:00.00 356366 N 0 0 0
0:00:00.00 356607 N 0 0 0
0:00:00.00 356846 N 0 0 0
0:00:00.00 357082 N 0 0 0
0:00:00.00 357302 N 0 0 0
0:00:00.00 357595 N 0 0 0
0:00:00.00 357881 N 0 0 0
0:00:00.00 358137 N 0 0 0
0:00:00.00 358389 N 0 0 0
0:00:00.00 358610 N 0 0 0
0:00:00.00 358819 N 0 0 0
0:00:00.00 359055 N 0 0 0
0:00:00.00 359289 N 0 0 0
0:00:00.00 359554 N 0 0 0
0:00:00.00 359807 N 0 0 0
0:00:00.00 360059 N 0 0 0
0:00:00.00 360313 N 0 0 0
0:00:00.00 360445 N 0 0 0
0:00:00.00 360725 N 0 0 0
0:00:00.00 360931 N 0 0 0
0:00:00.00 361190 N 0 0 0
0:00:00.00 361539 N 0 0 0
0:00:00.00 361818 N 0 0 0
0:00:00.00 362074 N 0 0 0
0:00:00.00 362416 N 0 0 0
0:00:00.00 362608 N 0 0 0
0:00:00.00 362857 N 0 0 0
0:00:00.00 363114 N 0 0 0
0:00:00.00 363384 N 0 0 0
0:00:00.00 363632 N 0 0 0
0:00:00.00 363917 N 0 0 0
0:00:00.00 364163 N 0 0 0
0:00:00.00 364419 N 0 0 0
0:00:00.00 364640 N 0 0 0
0:00:00.00 364894 N 0 0 0
0:00:00.00 365135 N 0 0 0
0:00:00.00 365380 N 0 0 0
0:00:00.00 365643 N 0 0 0
0:00:00.00 365881 N 0 0 0
0:00:00.00 366091 N 0 0 0
0:00:00.00 366210 N 0 0 0
0:00:00.00 366554 N 0 0 0
0:00:00.00 366701 N 0 0 0
0:00:00.00 367042 N 0 0 0
0:00:00.00 367193 N 0 0 0
0:00:00.00 367441 N 0 0 0
0:00:00.00 367670 N 0 0 0
0:00:00.00 367805 N 0 0 0
0:00:00.00 368077 N 0 0 0
0:00:00.00 368240 N 0 0 0
0:00:00.00 368492 N 0 0 0
0:00:00.00 368789 N 0 0 0
0:00:00.00 368941 N 0 0 0
0:00:00.00 369283 N 0 0 0
0:00:00.00 369414 N 0 0 0
0:00:00.00 369734 N 0 0 0
0:00:00.00 369882 N 0 0 0
0:00:00.00 370132 N 0 0 0
0:00:00.00 370400 N 0 0 0
0:00:00.00 370618 N 0 0 0
0:00:00.00 370895 N 0 0 0
0:00:00.00 371174 N 0 0 0
0:00:00.00 371434 N 0 0 0
0:00:00.00 371644 N 0 0 0
0:00:00.00 371903 N 0 0 0
0:00:00.00 372184 N 0 0 0
0:00:00.00 372461 N 0 0 0
0:00:00.00 372721 N 0 0 0
0:00:00.00 372964 N 0 0 0
0:00:00.00 373223 N 0 0 0
0:00:00.00 373471 N 0 0 0
0:00:00.00 373734 N 0 0 0
0:00:00.00 373909 N 0 0 0
0:00:00.00 374148 N 0 0 0
0:00:00.00 374445 N 0 0 0
0:00:00.00 374711 N 0 0 0
0:00:00.00 374969 N 0 0 0
0:00:00.00 375248 N 0 0 0
0:00:00.00 375550 N 0 0 0
0:00:00.00 375824 N 0 0 0
0:00:00.00 376063 N 0 0 0
0:00:00.00 376333 N 0 0 0
0:00:00.00 376621 N 0 0 0
0:00:00.00 376853 N 0 0 0
0:00:00.00 377113 N 0 0 0
0:00:00.00 377237 N 0 0 0
0:00:00.00 377478 N 0 0 0
0:00:00.00 377717 N 0 0 0
0:00:00.00 377946 N 0 0 0
0:00:00.00 378164 N 0 0 0
0:00:00.00 378270 N 0 0 0
0:00:00.00 378531 N 0 0 0
0:00:00.00 378815 N 0 0 0
0:00:00.00 379107 N 0 0 0
0:00:00.00 379375 N 0 0 0
0:00:00.00 379562 N 0 0 0
0:00:00.00 379814 N 0 0 0
0:00:00.00 380036 N 0 0 0
0:00:00.00 380263 N 0 0 0
0:00:00.00 380511 N 0 0 0
0:00:00.00 380808 N 0 0 0
0:00:00.00 380956 N 0 0 0
0:00:00.00 381195 N 0 0 0
0:00:00.00 381440 N 0 0 0
0:00:00.00 381699 N 0 0 0
0:00:00.00 381928 N 0 0 0
0:00:00.00 382117 N 0 0 0
0:00:00.00 382354 N 0 0 0
0:00:00.00 382617 N 0 0 0
0:00:00.00 382883 N 0 0 0
0:00:00.00 383200 N 0 0 0
0:00:00.00 383485 N 0 0 0
0:00:00.00 383742 N 0 0 0
0:00:00.00 384014 N 0 0 0
0:00:00.00 384280 N 0 0 0
0:00:00.00 384530 N 0 0 0
0:00:00.00 384755 N 0 0 0
0:00:00.00 384953 N 0 0 0
0:00:00.00 385195 N 0 0 0
0:00:00.00 385459 N 0 0 0
0:00:00.00 385717 N 0 0 0
0:00:00.00 386041 N 0 0 0
0:00:00.00 386383 N 0 0 0
0:00:00.00 386626 N 0 0 0
0:00:00.00 386865 N 0 0 0
0:00:00.00 387122 N 0 0 0
0:00:00.00 387409 N 0 0 0
0:00:00.00 387679 N 0 0 0
0:00:00.00 387943 N 0 0 0
0:00:00.00 388204 N 0 0 0
0:00:00.00 388399 N 0 0 0
0:00:00.00 388688 N 0 0 0
0:00:00.00 388962 N 0 0 0
0:00:00.00 389198 N 0 0 0
0:00:00.00 389342 N 0 0 0
0:00:00.00 389689 N 0 0 0
0:00:00.00 389855 N 0 0 0
0:00:00.00 390002 N 0 0 0
0:00:00.00 390229 N 0 0 0
0:00:00.00 390496 N 0 0 0
0:00:00.00 390604 N 0 0 0
0:00:00.00 390782 N 0 0 0
0:00:00.00 391090 N 0 0 0
0:00:00.00 391244 N 0 0 0
0:00:00.00 391628 N 0 0 0
0:00:00.00 391763 N 0 0 0
0:00:00.00 392047 N 0 0 0
0:00:00.00 392299 N 0 0 0
0:00:00.00 392582 N 0 0 0
0:00:00.00 392809 N 0 0 0
0:00:00.00 393097 N 0 0 0
0:00:00.00 393311 N 0 0 0
0:00:00.00 393638 N 0 0 0
0:00:00.00 393881 N 0 0 0
0:00:00.00 394186 N 0 0 0
0:00:00.00 394447 N 0 0 0
0:00:00.00 394672 N 0 0 0
0:00:00.00 394931 N 0 0 0
0:00:00.00 395179 N 0 0 0
0:00:00.00 395424 N 0 0 0
0:00:00.00 395676 N 0 0 0
0:00:00.00 395908 N 0 0 0
0:00:00.00 396200 N 0 0 0
0:00:00.00 396457 N 0 0 0
0:00:00.00 396709 N 0 0 0
0:00:00.00 396938 N 0 0 0
0:00:00.00 397096 N 0 0 0
0:00:00.00 397334 N 0 0 0
0:00:00.00 397519 N 0 0 0
0:00:00.00 397811 N 0 0 0
0:00:00.00 397994 N 0 0 0
0:00:00.00 398309 N 0 0 0
0:00:00.00 398471 N 0 0 0
0:00:00.00 398668 N 0 0 0
0:00:00.00 399004 N 0 0 0
0:00:00.00 399157 N 0 0 0
0:00:00.00 399296 N 0 0 0
0:00:00.00 399614 N 0 0 0
0:00:00.00 399843 N 0 0 0
0:00:00.00 400226 N 0 0 0
0:00:00.00 400387 N 0 0 0
0:00:00.00 400694 N 0 0 0
0:00:00.00 401040 N 0 0 0
0:00:00.00 401314 N 0 0 0
0:00:00.00 401573 N 0 0 0
0:00:00.00 401710 N 0 0 0
0:00:00.00 401942 N 0 0 0
0:00:00.00 402178 N 0 0 0
0:00:00.00 402471 N 0 0 0
0:00:00.00 402763 N 0 0 0
0:00:00.00 403020 N 0 0 0
0:00:00.00 403279 N 0 0 0
0:00:00.00 403549 N 0 0 0
0:00:00.00 403780 N 0 0 0
0:00:00.00 404017 N 0 0 0
0:00:00.00 404219 N 0 0 0
0:00:00.00 404446 N 0 0 0
0:00:00.00 404737 N 0 0 0
0:00:00.00 405009 N 0 0 0
0:00:00.00 405275 N 0 0 0
0:00:00.00 405549 N 0 0 0
0:00:00.00 405830 N 0 0 0
0:00:00.00 406031 N 0 0 0
0:00:00.00 406273 N 0 0 0
0:00:00.00 406557 N 0 0 0
0:00:00.00 406825 N 0 0 0
0:00:00.00 407162 N 0 0 0
0:00:00.00 407383 N 0 0 0
0:00:00.00 407603 N 0 0 0
0:00:00.00 407803 N 0 0 0
0:00:00.00 408011 N 0 0 0
0:00:00.00 408301 N 0 0 0
0:00:00.00 408591 N 0 0 0
0:00:00.00 408825 N 0 0 0
0:00:00.00 409050 N 0 0 0
0:00:00.00 409574 N 0 0 0
0:00:00.00 409802 N 0 0 0
0:00:00.00 410072 N 0 0 0
0:00:00.00 410328 N 0 0 0
0:00:00.00 410605 N 0 0 0
0:00:00.00 410886 N 0 0 0
0:00:00.00 411115 N 0 0 0
0:00:00.00 411345 N 0 0 0
0:00:00.00 411464 N 0 0 0
0:00:00.00 411752 N 0 0 0
0:00:00.00 412024 N 0 0 0
0:00:00.00 412306 N 0 0 0
0:00:00.00 412513 N 0 0 0
0:00:00.00 412817 N 0 0 0
0:00:00.00 413095 N 0 0 0
0:00:00.00 413312 N 0 0 0
0:00:00.00 413527 N 0 0 0
0:00:00.00 413800 N 0 0 0
0:00:00.00 414058 N 0 0 0
0:00:00.00 414324 N 0 0 0
0:00:00.00 414565 N 0 0 0
0:00:00.00 414787 N 0 0 0
0:00:00.00 415030 N 0 0 0
0:00:00.00 415240 N 0 0 0
0:00:00.00 415521 N 0 0 0
0:00:00.00 415773 N 0 0 0
0:00:00.00 415975 N 0 0 0
0:00:00.00 416205 N 0 0 0
0:00:00.00 416473 N 0 0 0
0:00:00.00 416707 N 0 0 0
0:00:00.00 416945 N 0 0 0
0:00:00.00 417080 N 0 0 0
0:00:00.00 417393 N 0 0 0
0:00:00.00 417643 N 0 0 0
0:00:00.00 417946 N 0 0 0
0:00:00.00 418181 N 0 0 0
0:00:00.00 418432 N 0 0 0
0:00:00.00 418547 N 0 0 0
0:00:00.00 418885 N 0 0 0
0:00:00.00 419144 N 0 0 0
0:00:00.00 419373 N 0 0 0
0:00:00.00 419602 N 0 0 0
0:00:00.00 419864 N 0 0 0
0:00:00.00 420124 N 0 0 0
0:00:00.00 420408 N 0 0 0
0:00:00.00 420656 N 0 0 0
0:00:00.00 420925 N 0 0 0
0:00:00.00 421166 N 0 0 0
0:00:00.00 421430 N 0 0 0
0:00:00.00 421740 N 0 0 0
0:00:00.00 421960 N 0 0 0
0:00:00.00 422237 N 0 0 0
0:00:00.00 422512 N 0 0 0
0:00:00.00 422766 N 0 0 0
0:00:00.00 423058 N 0 0 0
0:00:00.00 423331 N 0 0 0
0:00:00.00 423580 N 0 0 0
0:00:00.00 423862 N 0 0 0
0:00:00.00 424132 N 0 0 0
0:00:00.00 424417 N 0 0 0
0:00:00.00 424615 N 0 0 0
0:00:00.00 424886 N 0 0 0
0:00:00.00 425144 N 0 0 0
0:00:00.00 425369 N 0 0 0
0:00:00.00 425587 N 0 0 0
0:00:00.00 425720 N 0 0 0
0:00:00.00 426028 N 0 0 0
0:00:00.00 426186 N 0 0 0
0:00:00.00 426535 N 0 0 0
0:00:00.00 426857 N 0 0 0
0:00:00.00 427104 N 0 0 0
0:00:00.00 427358 N 0 0 0
0:00:00.00 427606 N 0 0 0
0:00:00.00 427855 N 0 0 0
0:00:00.00 428094 N 0 0 0
0:00:00.00 428247 N 0 0 0
0:00:00.00 428580 N 0 0 0
0:00:00.00 428846 N 0 0 0
0:00:00.00 429093 N 0 0 0
0:00:00.00 429309 N 0 0 0
0:00:00.00 429518 N 0 0 0
0:00:00.00 429736 N 0 0 0
0:00:00.00 429930 N 0 0 0
0:00:00.00 430153 N 0 0 0
0:00:00.00 430450 N 0 0 0
0:00:00.00 430718 N 0 0 0
0:00:00.00 431003 N 0 0 0
0:00:00.00 431323 N 0 0 0
0:00:00.00 431552 N 0 0 0
0:00:00.00 431764 N 0 0 0
0:00:00.00 432004 N 0 0 0
0:00:00.00 432223 N 0 0 0
0:00:00.00 432542 N 0 0 0
0:00:00.00 432788 N 0 0 0
0:00:00.00 433060 N 0 0 0
0:00:00.00 433334 N 0 0 0
0:00:00.00 433607 N 0 0 0
0:00:00.00 433856 N 0 0 0
0:00:00.00 434088 N 0 0 0
0:00:00.00 434336 N 0 0 0
0:00:00.00 434619 N 0 0 0
0:00:00.00 434893 N 0 0 0
0:00:00.00 435370 N 0 0 0
0:00:00.00 435577 N 0 0 0
0:00:00.00 435807 N 0 0 0
0:00:00.00 436041 N 0 0 0
0:00:00.00 436289 N 0 0 0
0:00:00.00 436405 N 0 0 0
0:00:00.00 436644 N 0 0 0
0:00:00.00 436882 N 0 0 0
0:00:00.00 437143 N 0 0 0
0:00:00.00 437407 N 0 0 0
0:00:00.00 437648 N 0 0 0
0:00:00.00 437899 N 0 0 0
0:00:00.00 438152 N 0 0 0
0:00:00.00 438406 N 0 0 0
0:00:00.00 438660 N 0 0 0
0:00:00.00 438881 N 0 0 0
0:00:00.00 439106 N 0 0 0
0:00:00.00 439394 N 0 0 0
0:00:00.00 439722 N 0 0 0
0:00:00.00 439942 N 0 0 0
0:00:00.00 440159 N 0 0 0
0:00:00.00 440370 N 0 0 0
0:00:00.00 440480 N 0 0 0
0:00:00.00 440800 N 0 0 0
0:00:00.00 441014 N 0 0 0
0:00:00.00 441265 N 0 0 0
0:00:00.00 441529 N 0 0 0
0:00:00.00 441763 N 0 0 0
0:00:00.00 442060 N 0 0 0
0:00:00.00 442305 N 0 0 0
0:00:00.00 442521 N 0 0 0
0:00:00.00 442751 N 0 0 0
0:00:00.00 443002 N 0 0 0
0:00:00.00 443257 N 0 0 0
0:00:00.00 443484 N 0 0 0
0:00:00.00 443740 N 0 0 0
0:00:00.00 443990 N 0 0 0
0:00:00.00 444262 N 0 0 0
0:00:00.00 444514 N 0 0 0
0:00:00.00 444748 N 0 0 0
0:00:00.00 444960 N 0 0 0
0:00:00.00 445162 N 0 0 0
0:00:00.00 445352 N 0 0 0
0:00:00.00 445718 N 0 0 0
0:00:00.00 445882 N 0 0 0
0:00:00.00 446170 N 0 0 0
0:00:00.00 446290 N 0 0 0
0:00:00.00 446557 N 0 0 0
0:00:00.00 446785 N 0 0 0
0:00:00.00 447005 N 0 0 0
0:00:00.00 447235 N 0 0 0
0:00:00.00 447489 N 0 0 0
0:00:00.00 447732 N 0 0 0
0:00:00.00 447980 N 0 0 0
0:00:00.00 448234 N 0 0 0
0:00:00.00 448517 N 0 0 0
0:00:00.00 448810 N 0 0 0
0:00:00.00 449078 N 0 0 0
0:00:00.00 449300 N 0 0 0
0:00:00.00 449530 N 0 0 0
0:00:00.00 449800 N 0 0 0
0:00:00.00 450086 N 0 0 0
0:00:00.00 450358 N 0 0 0
0:00:00.00 450581 N 0 0 0
0:00:00.00 450832 N 0 0 0
0:00:00.00 451244 N 0 0 0
0:00:00.00 451499 N 0 0 0
0:00:00.00 451719 N 0 0 0
0:00:00.00 451962 N 0 0 0
0:00:00.00 452205 N 0 0 0
0:00:00.00 452461 N 0 0 0
0:00:00.00 452732 N 0 0 0
0:00:00.00 452959 N 0 0 0
0:00:00.00 453218 N 0 0 0
0:00:00.00 453429 N 0 0 0
0:00:00.00 453685 N 0 0 0
0:00:00.00 453951 N 0 0 0
0:00:00.00 454244 N 0 0 0
0:00:00.00 454493 N 0 0 0
0:00:00.00 454957 N 0 0 0
0:00:00.00 455195 N 0 0 0
0:00:00.00 455492 N 0 0 0
0:00:00.00 455650 N 0 0 0
0:00:00.00 455746 N 0 0 0
0:00:00.00 456109 N 0 0 0
0:00:00.00 456363 N 0 0 0
0:00:00.00 456741 N 0 0 0
0:00:00.00 456979 N 0 0 0
0:00:00.00 457204 N 0 0 0
0:00:00.00 457414 N 0 0 0
0:00:00.00 457619 N 0 0 0
0:00:00.00 457873 N 0 0 0
0:00:00.00 458109 N 0 0 0
0:00:00.00 458339 N 0 0 0
0:00:00.00 458559 N 0 0 0
0:00:00.00 458797 N 0 0 0
0:00:00.00 459032 N 0 0 0
0:00:00.00 459268 N 0 0 0
0:00:00.00 459499 N 0 0 0
0:00:00.00 459718 N 0 0 0
0:00:00.00 459914 N 0 0 0
0:00:00.00 460118 N 0 0 0
0:00:00.00 460226 N 0 0 0
0:00:00.00 460561 N 0 0 0
0:00:00.00 460753 N 0 0 0
0:00:00.00 461034 N 0 0 0
0:00:00.00 461299 N 0 0 0
0:00:00.00 461531 N 0 0 0
0:00:00.00 461786 N 0 0 0
0:00:00.00 461902 N 0 0 0
0:00:00.00 462278 N 0 0 0
0:00:00.00 462546 N 0 0 0
0:00:00.00 462947 N 0 0 0
0:00:00.00 463214 N 0 0 0
0:00:00.00 463450 N 0 0 0
0:00:00.00 463723 N 0 0 0
0:00:00.00 463986 N 0 0 0
0:00:00.00 464251 N 0 0 0
0:00:00.00 464468 N 0 0 0
0:00:00.00 464780 N 0 0 0
0:00:00.00 465091 N 0 0 0
0:00:00.00 465305 N 0 0 0
0:00:00.00 465552 N 0 0 0
0:00:00.00 465818 N 0 0 0
0:00:00.00 466074 N 0 0 0
0:00:00.00 466346 N 0 0 0
0:00:00.00 466549 N 0 0 0
0:00:00.00 466780 N 0 0 0
0:00:00.00 467006 N 0 0 0
0:00:00.00 467251 N 0 0 0
0:00:00.00 467473 N 0 0 0
0:00:00.00 467719 N 0 0 0
0:00:00.00 467833 N 0 0 0
0:00:00.00 468110 N 0 0 0
0:00:00.00 468378 N 0 0 0
0:00:00.00 468616 N 0 0 0
0:00:00.00 468859 N 0 0 0
0:00:00.00 469145 N 0 0 0
0:00:00.00 469440 N 0 0 0
0:00:00.00 469715 N 0 0 0
0:00:00.00 469982 N 0 0 0
0:00:00.00 470239 N 0 0 0
0:00:00.00 470477 N 0 0 0
0:00:00.00 470669 N 0 0 0
0:00:00.00 470887 N 0 0 0
0:00:00.00 471109 N 0 0 0
0:00:00.00 471343 N 0 0 0
0:00:00.00 471589 N 0 0 0
0:00:00.00 471883 N 0 0 0
0:00:00.00 472199 N 0 0 0
0:00:00.00 472426 N 0 0 0
0:00:00.00 472615 N 0 0 0
0:00:00.00 472826 N 0 0 0
0:00:00.00 473069 N 0 0 0
0:00:00.00 473292 N 0 0 0
0:00:00.00 473494 N 0 0 0
0:00:00.00 473756 N 0 0 0
0:00:00.00 474034 N 0 0 0
0:00:00.00 474271 N 0 0 0
0:00:00.00 474518 N 0 0 0
0:00:00.00 474750 N 0 0 0
0:00:00.00 474970 N 0 0 0
0:00:00.00 475213 N 0 0 0
0:00:00.00 475452 N 0 0 0
0:00:00.00 475670 N 0 0 0
0:00:00.00 475918 N 0 0 0
0:00:00.00 476174 N 0 0 0
0:00:00.00 476410 N 0 0 0
0:00:00.00 476617 N 0 0 0
0:00:00.00 476870 N 0 0 0
0:00:00.00 477103 N 0 0 0
0:00:00.00 477328 N 0 0 0
0:00:00.00 477684 N 0 0 0
0:00:00.00 477932 N 0 0 0
0:00:00.00 478249 N 0 0 0
0:00:00.00 478478 N 0 0 0
0:00:00.00 478728 N 0 0 0
0:00:00.00 478953 N 0 0 0
0:00:00.00 479201 N 0 0 0
0:00:00.00 479407 N 0 0 0
0:00:00.00 479637 N 0 0 0
0:00:00.00 479882 N 0 0 0
0:00:00.00 480218 N 0 0 0
0:00:00.00 480406 N 0 0 0
0:00:00.00 480676 N 0 0 0
0:00:00.00 481007 N 0 0 0
0:00:00.00 481268 N 0 0 0
0:00:00.00 481489 N 0 0 0
0:00:00.00 481707 N 0 0 0
0:00:00.00 481921 N 0 0 0
0:00:00.00 482123 N 0 0 0
0:00:00.00 482366 N 0 0 0
0:00:00.00 482668 N 0 0 0
0:00:00.00 482962 N 0 0 0
0:00:00.00 483417 N 0 0 0
0:00:00.00 483570 N 0 0 0
0:00:00.00 483862 N 0 0 0
0:00:00.00 484076 N 0 0 0
0:00:00.00 484297 N 0 0 0
0:00:00.00 484519 N 0 0 0
0:00:00.00 484774 N 0 0 0
0:00:00.00 484997 N 0 0 0
0:00:00.00 485311 N 0 0 0
0:00:00.00 485581 N 0 0 0
0:00:00.00 485836 N 0 0 0
0:00:00.00 486068 N 0 0 0
0:00:00.00 486297 N 0 0 0
0:00:00.00 486574 N 0 0 0
0:00:00.00 486792 N 0 0 0
0:00:00.00 487049 N 0 0 0
0:00:00.00 487276 N 0 0 0
0:00:00.00 487543 N 0 0 0
0:00:00.00 487775 N 0 0 0
0:00:00.00 487998 N 0 0 0
0:00:00.00 488324 N 0 0 0
0:00:00.00 488540 N 0 0 0
0:00:00.00 488776 N 0 0 0
0:00:00.00 488995 N 0 0 0
0:00:00.00 489260 N 0 0 0
0:00:00.00 489490 N 0 0 0
0:00:00.00 489782 N 0 0 0
0:00:00.00 490039 N 0 0 0
0:00:00.00 490277 N 0 0 0
0:00:00.00 490505 N 0 0 0
0:00:00.00 490732 N 0 0 0
0:00:00.00 491015 N 0 0 0
0:00:00.00 491328 N 0 0 0
0:00:00.00 491665 N 0 0 0
0:00:00.00 491909 N 0 0 0
0:00:00.00 492179 N 0 0 0
0:00:00.00 492412 N 0 0 0
0:00:00.00 492802 N 0 0 0
0:00:00.00 493061 N 0 0 0
0:00:00.00 493202 N 0 0 0
0:00:00.00 493538 N 0 0 0
0:00:00.00 493803 N 0 0 0
0:00:00.00 494059 N 0 0 0
0:00:00.00 494282 N 0 0 0
0:00:00.00 494521 N 0 0 0
0:00:00.00 494766 N 0 0 0
0:00:00.00 494991 N 0 0 0
0:00:00.00 495202 N 0 0 0
0:00:00.00 495499 N 0 0 0
0:00:00.00 495855 N 0 0 0
0:00:00.00 496184 N 0 0 0
0:00:00.00 496451 N 0 0 0
0:00:00.00 496658 N 0 0 0
0:00:00.00 496784 N 0 0 0
0:00:00.00 497110 N 0 0 0
0:00:00.00 497351 N 0 0 0
0:00:00.00 497599 N 0 0 0
0:00:00.00 497855 N 0 0 0
0:00:00.00 497965 N 0 0 0
0:00:00.00 498229 N 0 0 0
0:00:00.00 498442 N 0 0 0
0:00:00.00 498717 N 0 0 0
0:00:00.00 498960 N 0 0 0
0:00:00.00 499212 N 0 0 0
0:00:00.00 499430 N 0 0 0
0:00:00.00 499639 N 0 0 0
0:00:00.00 499873 N 0 0 0
0:00:00.00 500101 N 0 0 0
0:00:00.00 500344 N 0 0 0
0:00:00.00 500611 N 0 0 0
0:00:00.00 500870 N 0 0 0
0:00:00.00 501118 N 0 0 0
0:00:00.00 501377 N 0 0 0
0:00:00.00 501574 N 0 0 0
0:00:00.00 501824 N 0 0 0
0:00:00.00 502090 N 0 0 0
0:00:00.00 502340 N 0 0 0
0:00:00.00 502565 N 0 0 0
0:00:00.00 502783 N 0 0 0
0:00:00.00 503032 N 0 0 0
0:00:00.00 503217 N 0 0 0
0:00:00.00 503424 N 0 0 0
0:00:00.00 503644 N 0 0 0
0:00:00.00 503883 N 0 0 0
0:00:00.00 504110 N 0 0 0
0:00:00.00 504369 N 0 0 0
0:00:00.00 504630 N 0 0 0
0:00:00.00 504860 N 0 0 0
0:00:00.00 505116 N 0 0 0
0:00:00.00 505406 N 0 0 0
0:00:00.00 505701 N 0 0 0
0:00:00.00 505901 N 0 0 0
0:00:00.00 506124 N 0 0 0
0:00:00.00 506383 N 0 0 0
0:00:00.00 506608 N 0 0 0
0:00:00.00 506831 N 0 0 0
0:00:00.00 506956 N 0 0 0
0:00:00.00 507343 N 0 0 0
0:00:00.00 507593 N 0 0 0
0:00:00.00 507820 N 0 0 0
0:00:00.00 508070 N 0 0 0
0:00:00.00 508279 N 0 0 0
0:00:00.00 508527 N 0 0 0
0:00:00.00 508792 N 0 0 0
0:00:00.00 509121 N 0 0 0
0:00:00.00 509360 N 0 0 0
0:00:00.00 509580 N 0 0 0
0:00:00.00 509796 N 0 0 0
0:00:00.00 510028 N 0 0 0
0:00:00.00 510278 N 0 0 0
0:00:00.00 510527 N 0 0 0
0:00:00.00 510795 N 0 0 0
0:00:00.00 511061 N 0 0 0
0:00:00.00 511308 N 0 0 0
0:00:00.00 511538 N 0 0 0
0:00:00.00 511767 N 0 0 0
0:00:00.00 511999 N 0 0 0
0:00:00.00 512190 N 0 0 0
0:00:00.00 512302 N 0 0 0
0:00:00.00 512561 N 0 0 0
0:00:00.00 512815 N 0 0 0
0:00:00.00 513065 N 0 0 0
0:00:00.00 513315 N 0 0 0
0:00:00.00 513608 N 0 0 0
0:00:00.00 513875 N 0 0 0
0:00:00.00 514213 N 0 0 0
0:00:00.00 514445 N 0 0 0
0:00:00.00 514715 N 0 0 0
0:00:00.00 514960 N 0 0 0
0:00:00.00 515221 N 0 0 0
0:00:00.00 515446 N 0 0 0
0:00:00.00 515572 N 0 0 0
0:00:00.00 515826 N 0 0 0
0:00:00.00 516037 N 0 0 0
0:00:00.00 516254 N 0 0 0
0:00:00.00 516461 N 0 0 0
0:00:00.00 516712 N 0 0 0
0:00:00.00 516940 N 0 0 0
0:00:00.00 517189 N 0 0 0
0:00:00.00 517433 N 0 0 0
0:00:00.00 517700 N 0 0 0
0:00:00.00 517950 N 0 0 0
0:00:00.00 518202 N 0 0 0
0:00:00.00 518422 N 0 0 0
0:00:00.00 518679 N 0 0 0
0:00:00.00 518951 N 0 0 0
0:00:00.00 519214 N 0 0 0
0:00:00.00 519426 N 0 0 0
0:00:00.00 519682 N 0 0 0
0:00:00.00 519943 N 0 0 0
0:00:00.00 520187 N 0 0 0
0:00:00.00 520436 N 0 0 0
0:00:00.00 520686 N 0 0 0
0:00:00.00 520942 N 0 0 0
0:00:00.00 521194 N 0 0 0
0:00:00.00 521476 N 0 0 0
0:00:00.00 521730 N 0 0 0
0:00:00.00 521966 N 0 0 0
0:00:00.00 522182 N 0 0 0
0:00:00.00 522389 N 0 0 0
0:00:00.00 522634 N 0 0 0
0:00:00.00 522884 N 0 0 0
0:00:00.00 523123 N 0 0 0
0:00:00.00 523390 N 0 0 0
0:00:00.00 523654 N 0 0 0
0:00:00.00 523886 N 0 0 0
0:00:00.00 524124 N 0 0 0
0:00:00.00 524455 N 0 0 0
0:00:00.00 524655 N 0 0 0
0:00:00.00 524844 N 0 0 0
0:00:00.00 525166 N 0 0 0
0:00:00.00 525397 N 0 0 0
0:00:00.00 525659 N 0 0 0
0:00:00.00 525917 N 0 0 0
0:00:00.00 526176 N 0 0 0
0:00:00.00 526424 N 0 0 0
0:00:00.00 526660 N 0 0 0
0:00:00.00 526878 N 0 0 0
0:00:00.00 527128 N 0 0 0
0:00:00.00 527366 N 0 0 0
0:00:00.00 527569 N 0 0 0
0:00:00.00 527864 N 0 0 0
0:00:00.00 528118 N 0 0 0
0:00:00.00 528383 N 0 0 0
0:00:00.00 528584 N 0 0 0
0:00:00.00 528827 N 0 0 0
0:00:00.00 529096 N 0 0 0
0:00:00.00 529319 N 0 0 0
0:00:00.00 529553 N 0 0 0
0:00:00.00 529753 N 0 0 0
0:00:00.00 530028 N 0 0 0
0:00:00.00 530257 N 0 0 0
0:00:00.00 530510 N 0 0 0
0:00:00.00 530719 N 0 0 0
0:00:00.00 530968 N 0 0 0
0:00:00.00 531225 N 0 0 0
0:00:00.00 531441 N 0 0 0
0:00:00.00 531648 N 0 0 0
0:00:00.00 531900 N 0 0 0
0:00:00.00 532175 N 0 0 0
0:00:00.00 532427 N 0 0 0
0:00:00.00 532717 N 0 0 0
0:00:00.00 532998 N 0 0 0
0:00:00.00 533225 N 0 0 0
0:00:00.00 533448 N 0 0 0
0:00:00.00 533689 N 0 0 0
0:00:00.00 533932 N 0 0 0
0:00:00.00 534186 N 0 0 0
0:00:00.00 534515 N 0 0 0
0:00:00.00 534753 N 0 0 0
0:00:00.00 534994 N 0 0 0
0:00:00.00 535282 N 0 0 0
0:00:00.00 535581 N 0 0 0
0:00:00.00 535820 N 0 0 0
0:00:00.00 536038 N 0 0 0
0:00:00.00 536254 N 0 0 0
0:00:00.00 536539 N 0 0 0
0:00:00.00 536796 N 0 0 0
0:00:00.00 537052 N 0 0 0
0:00:00.00 537314 N 0 0 0
0:00:00.00 537581 N 0 0 0
0:00:00.00 537817 N 0 0 0
0:00:00.00 538085 N 0 0 0
0:00:00.00 538308 N 0 0 0
0:00:00.00 538594 N 0 0 0
0:00:00.00 538853 N 0 0 0
0:00:00.00 539086 N 0 0 0
0:00:00.00 539359 N 0 0 0
0:00:00.00 539575 N 0 0 0
0:00:00.00 539818 N 0 0 0
0:00:00.00 540099 N 0 0 0
0:00:00.00 540324 N 0 0 0
0:00:00.00 540556 N 0 0 0
0:00:00.00 540787 N 0 0 0
0:00:00.00 541044 N 0 0 0
0:00:00.00 541305 N 0 0 0
0:00:00.00 541604 N 0 0 0
0:00:00.00 541818 N 0 0 0
0:00:00.00 542057 N 0 0 0
0:00:00.00 542257 N 0 0 0
0:00:00.00 542497 N 0 0 0
0:00:00.00 542893 N 0 0 0
0:00:00.00 543146 N 0 0 0
0:00:00.00 543386 N 0 0 0
0:00:00.00 543609 N 0 0 0
0:00:00.00 543854 N 0 0 0
0:00:00.00 544109 N 0 0 0
0:00:00.00 544459 N 0 0 0
0:00:00.00 544684 N 0 0 0
0:00:00.00 544900 N 0 0 0
0:00:00.00 545011 N 0 0 0
0:00:00.00 545387 N 0 0 0
0:00:00.00 545650 N 0 0 0
0:00:00.00 545873 N 0 0 0
0:00:00.00 546124 N 0 0 0
0:00:00.00 546422 N 0 0 0
0:00:00.00 546743 N 0 0 0
0:00:00.00 546962 N 0 0 0
0:00:00.00 547225 N 0 0 0
0:00:00.00 547526 N 0 0 0
0:00:00.00 547774 N 0 0 0
0:00:00.00 547999 N 0 0 0
0:00:00.00 548266 N 0 0 0
0:00:00.00 548527 N 0 0 0
0:00:00.00 548768 N 0 0 0
0:00:00.00 549027 N 0 0 0
0:00:00.00 549236 N 0 0 0
0:00:00.00 549488 N 0 0 0
0:00:00.00 549616 N 0 0 0
0:00:00.00 549902 N 0 0 0
0:00:00.00 550154 N 0 0 0
0:00:00.00 550399 N 0 0 0
0:00:00.00 550638 N 0 0 0
0:00:00.00 550744 N 0 0 0
0:00:00.00 551011 N 0 0 0
0:00:00.00 551250 N 0 0 0
0:00:00.00 551524 N 0 0 0
0:00:00.00 551828 N 0 0 0
0:00:00.00 552080 N 0 0 0
0:00:00.00 552195 N 0 0 0
0:00:00.00 552544 N 0 0 0
0:00:00.00 552856 N 0 0 0
0:00:00.00 553113 N 0 0 0
0:00:00.00 553378 N 0 0 0
0:00:00.00 553640 N 0 0 0
0:00:00.00 553842 N 0 0 0
0:00:00.00 554099 N 0 0 0
0:00:00.00 554407 N 0 0 0
0:00:00.00 554686 N 0 0 0
0:00:00.00 554920 N 0 0 0
0:00:00.00 555151 N 0 0 0
0:00:00.00 555415 N 0 0 0
0:00:00.00 555730 N 0 0 0
0:00:00.00 555998 N 0 0 0
0:00:00.00 556265 N 0 0 0
0:00:00.00 556519 N 0 0 0
0:00:00.00 556787 N 0 0 0
0:00:00.00 557064 N 0 0 0
0:00:00.00 557289 N 0 0 0
0:00:00.00 557572 N 0 0 0
0:00:00.00 557816 N 0 0 0
0:00:00.00 558074 N 0 0 0
0:00:00.00 558297 N 0 0 0
0:00:00.00 558517 N 0 0 0
0:00:00.00 558752 N 0 0 0
0:00:00.00 559033 N 0 0 0
0:00:00.00 559280 N 0 0 0
0:00:00.00 559544 N 0 0 0
0:00:00.00 559777 N 0 0 0
0:00:00.00 559998 N 0 0 0
0:00:00.00 560218 N 0 0 0
0:00:00.00 560482 N 0 0 0
0:00:00.00 560734 N 0 0 0
0:00:00.00 560995 N 0 0 0
0:00:00.00 561233 N 0 0 0
0:00:00.00 561436 N 0 0 0
0:00:00.00 561742 N 0 0 0
0:00:00.00 561991 N 0 0 0
0:00:00.00 562210 N 0 0 0
0:00:00.00 562487 N 0 0 0
0:00:00.00 562655 N 0 0 0
0:00:00.00 562963 N 0 0 0
0:00:00.00 563249 N 0 0 0
0:00:00.00 563494 N 0 0 0
0:00:00.00 563722 N 0 0 0
0:00:00.00 563958 N 0 0 0
0:00:00.00 564178 N 0 0 0
0:00:00.00 564464 N 0 0 0
0:00:00.00 564694 N 0 0 0
0:00:00.00 564907 N 0 0 0
0:00:00.00 565150 N 0 0 0
0:00:00.00 565353 N 0 0 0
0:00:00.00 565569 N 0 0 0
0:00:00.00 565880 N 0 0 0
0:00:00.00 566021 N 0 0 0
0:00:00.00 566438 N 0 0 0
0:00:00.00 566726 N 0 0 0
0:00:00.00 566993 N 0 0 0
0:00:00.00 567225 N 0 0 0
0:00:00.00 567441 N 0 0 0
0:00:00.00 567641 N 0 0 0
0:00:00.00 567866 N 0 0 0
0:00:00.00 567988 N 0 0 0
0:00:00.00 568235 N 0 0 0
0:00:00.00 568528 N 0 0 0
0:00:00.00 568876 N 0 0 0
0:00:00.00 569135 N 0 0 0
0:00:00.00 569399 N 0 0 0
0:00:00.00 569646 N 0 0 0
0:00:00.00 569867 N 0 0 0
0:00:00.00 570130 N 0 0 0
0:00:00.00 570388 N 0 0 0
0:00:00.00 570620 N 0 0 0
0:00:00.00 570850 N 0 0 0
0:00:00.00 571154 N 0 0 0
0:00:00.00 571397 N 0 0 0
0:00:00.00 571619 N 0 0 0
0:00:00.00 571889 N 0 0 0
0:00:00.00 572294 N 0 0 0
0:00:00.00 572483 N 0 0 0
0:00:00.00 572715 N 0 0 0
0:00:00.00 572918 N 0 0 0
0:00:00.00 573176 N 0 0 0
0:00:00.00 573442 N 0 0 0
0:00:00.00 573703 N 0 0 0
0:00:00.00 574079 N 0 0 0
0:00:00.00 574335 N 0 0 0
0:00:00.00 574625 N 0 0 0
0:00:00.00 574891 N 0 0 0
0:00:00.00 575095 N 0 0 0
0:00:00.00 575339 N 0 0 0
0:00:00.00 575791 N 0 0 0
0:00:00.00 576117 N 0 0 0
0:00:00.00 576322 N 0 0 0
0:00:00.00 576529 N 0 0 0
0:00:00.00 576772 N 0 0 0
0:00:00.00 577046 N 0 0 0
0:00:00.00 577247 N 0 0 0
0:00:00.00 577546 N 0 0 0
0:00:00.00 577850 N 0 0 0
0:00:00.00 578104 N 0 0 0
0:00:00.00 578335 N 0 0 0
0:00:00.00 578594 N 0 0 0
0:00:00.00 578851 N 0 0 0
0:00:00.00 579073 N 0 0 0
0:00:00.00 579263 N 0 0 0
0:00:00.00 579524 N 0 0 0
0:00:00.00 579672 N 0 0 0
0:00:00.00 580001 N 0 0 0
0:00:00.00 580235 N 0 0 0
0:00:00.00 580480 N 0 0 0
0:00:00.00 580727 N 0 0 0
0:00:00.00 580928 N 0 0 0
0:00:00.00 581162 N 0 0 0
0:00:00.00 581450 N 0 0 0
0:00:00.00 581677 N 0 0 0
0:00:00.00 581924 N 0 0 0
0:00:00.00 582179 N 0 0 0
0:00:00.00 582458 N 0 0 0
0:00:00.00 582685 N 0 0 0
0:00:00.00 582883 N 0 0 0
0:00:00.00 583146 N 0 0 0
0:00:00.00 583272 N 0 0 0
0:00:00.00 583531 N 0 0 0
0:00:00.00 583762 N 0 0 0
0:00:00.00 584015 N 0 0 0
0:00:00.00 584276 N 0 0 0
0:00:00.00 584527 N 0 0 0
0:00:00.00 584717 N 0 0 0
0:00:00.00 585025 N 0 0 0
0:00:00.00 585265 N 0 0 0
0:00:00.00 585509 N 0 0 0
0:00:00.00 585742 N 0 0 0
0:00:00.00 585985 N 0 0 0
0:00:00.00 586240 N 0 0 0
0:00:00.00 586494 N 0 0 0
0:00:00.00 586737 N 0 0 0
0:00:00.00 586991 N 0 0 0
0:00:00.00 587248 N 0 0 0
0:00:00.00 587471 N 0 0 0
0:00:00.00 587680 N 0 0 0
0:00:00.00 587912 N 0 0 0
0:00:00.00 588114 N 0 0 0
0:00:00.00 588406 N 0 0 0
0:00:00.00 588550 N 0 0 0
0:00:00.00 588874 N 0 0 0
0:00:00.00 589025 N 0 0 0
0:00:00.00 589297 N 0 0 0
0:00:00.00 589585 N 0 0 0
0:00:00.00 589840 N 0 0 0
0:00:00.00 589961 N 0 0 0
0:00:00.00 590423 N 0 0 0
0:00:00.00 590668 N 0 0 0
0:00:00.00 590908 N 0 0 0
0:00:00.00 591140 N 0 0 0
0:00:00.00 591356 N 0 0 0
0:00:00.00 591610 N 0 0 0
0:00:00.00 591887 N 0 0 0
0:00:00.00 592092 N 0 0 0
0:00:00.00 592340 N 0 0 0
0:00:00.00 592511 N 0 0 0
0:00:00.00 592783 N 0 0 0
0:00:00.00 593005 N 0 0 0
0:00:00.00 593289 N 0 0 0
0:00:00.00 593557 N 0 0 0
0:00:00.00 593836 N 0 0 0
0:00:00.00 594097 N 0 0 0
0:00:00.00 594364 N 0 0 0
0:00:00.00 594626 N 0 0 0
0:00:00.00 594880 N 0 0 0
0:00:00.00 595107 N 0 0 0
0:00:00.00 595386 N 0 0 0
0:00:00.00 595631 N 0 0 0
0:00:00.00 595868 N 0 0 0
0:00:00.00 596288 N 0 0 0
0:00:00.00 596590 N 0 0 0
0:00:00.00 596830 N 0 0 0
0:00:00.00 597245 N 0 0 0
0:00:00.00 597400 N 0 0 0
0:00:00.00 597744 N 0 0 0
0:00:00.00 597870 N 0 0 0
0:00:00.00 598203 N 0 0 0
0:00:00.00 598424 N 0 0 0
0:00:00.00 598633 N 0 0 0
0:00:00.00 598734 N 0 0 0
0:00:00.00 599020 N 0 0 0
0:00:00.00 599168 N 0 0 0
0:00:00.00 599443 N 0 0 0
0:00:00.00 599677 N 0 0 0
0:00:00.00 599863 N 0 0 0
0:00:00.00 600221 N 0 0 0
0:00:00.00 600475 N 0 0 0
0:00:00.00 600696 N 0 0 0
0:00:00.00 600912 N 0 0 0
0:00:00.00 601166 N 0 0 0
0:00:00.00 601432 N 0 0 0
0:00:00.00 601684 N 0 0 0
0:00:00.00 601900 N 0 0 0
0:00:00.00 602134 N 0 0 0
0:00:00.00 602249 N 0 0 0
0:00:00.00 602527 N 0 0 0
0:00:00.00 602762 N 0 0 0
0:00:00.00 602986 N 0 0 0
0:00:00.00 603211 N 0 0 0
0:00:00.00 603328 N 0 0 0
0:00:00.00 603655 N 0 0 0
0:00:00.00 603947 N 0 0 0
0:00:00.00 604174 N 0 0 0
0:00:00.00 604436 N 0 0 0
0:00:00.00 604699 N 0 0 0
0:00:00.00 605014 N 0 0 0
0:00:00.00 605230 N 0 0 0
0:00:00.00 605450 N 0 0 0
0:00:00.00 605695 N 0 0 0
0:00:00.00 605943 N 0 0 0
0:00:00.00 606202 N 0 0 0
0:00:00.00 606445 N 0 0 0
0:00:00.00 606728 N 0 0 0
0:00:00.00 606985 N 0 0 0
0:00:00.00 607217 N 0 0 0
0:00:00.00 607432 N 0 0 0
0:00:00.00 607664 N 0 0 0
0:00:00.00 607918 N 0 0 0
0:00:00.00 608179 N 0 0 0
0:00:00.00 608413 N 0 0 0
0:00:00.00 608540 N 0 0 0
0:00:00.00 608879 N 0 0 0
0:00:00.00 609025 N 0 0 0
0:00:00.00 609370 N 0 0 0
0:00:00.00 609601 N 0 0 0
0:00:00.00 609935 N 0 0 0
0:00:00.00 610204 N 0 0 0
0:00:00.00 610452 N 0 0 0
0:00:00.00 610690 N 0 0 0
0:00:00.00 610893 N 0 0 0
0:00:00.00 611156 N 0 0 0
0:00:00.00 611374 N 0 0 0
0:00:00.00 611604 N 0 0 0
0:00:00.00 611849 N 0 0 0
0:00:00.00 612166 N 0 0 0
0:00:00.00 612443 N 0 0 0
0:00:00.00 612682 N 0 0 0
0:00:00.00 612909 N 0 0 0
0:00:00.00 613143 N 0 0 0
0:00:00.00 613355 N 0 0 0
0:00:00.00 613571 N 0 0 0
0:00:00.00 613818 N 0 0 0
0:00:00.00 614074 N 0 0 0
0:00:00.00 614281 N 0 0 0
0:00:00.00 614556 N 0 0 0
0:00:00.00 614826 N 0 0 0
0:00:00.00 615112 N 0 0 0
0:00:00.00 615292 N 0 0 0
0:00:00.00 615595 N 0 0 0
0:00:00.00 615812 N 0 0 0
0:00:00.00 616052 N 0 0 0
0:00:00.00 616307 N 0 0 0
0:00:00.00 616572 N 0 0 0
0:00:00.00 616829 N 0 0 0
0:00:00.00 617105 N 0 0 0
0:00:00.00 617319 N 0 0 0
0:00:00.00 617551 N 0 0 0
0:00:00.00 617789 N 0 0 0
0:00:00.00 618084 N 0 0 0
0:00:00.00 618336 N 0 0 0
0:00:00.00 618601 N 0 0 0
0:00:00.00 618869 N 0 0 0
0:00:00.00 619119 N 0 0 0
0:00:00.00 619385 N 0 0 0
0:00:00.00 619623 N 0 0 0
0:00:00.00 619825 N 0 0 0
0:00:00.00 620086 N 0 0 0
0:00:00.00 620350 N 0 0 0
0:00:00.00 620620 N 0 0 0
0:00:00.00 620915 N 0 0 0
0:00:00.00 621130 N 0 0 0
0:00:00.00 621353 N 0 0 0
0:00:00.00 621617 N 0 0 0
0:00:00.00 621850 N 0 0 0
0:00:00.00 622087 N 0 0 0
0:00:00.00 622312 N 0 0 0
0:00:00.00 622523 N 0 0 0
0:00:00.00 622787 N 0 0 0
0:00:00.00 623070 N 0 0 0
0:00:00.00 623351 N 0 0 0
0:00:00.00 623581 N 0 0 0
0:00:00.00 623790 N 0 0 0
0:00:00.00 623903 N 0 0 0
0:00:00.00 624168 N 0 0 0
0:00:00.00 624418 N 0 0 0
0:00:00.00 624636 N 0 0 0
0:00:00.00 625016 N 0 0 0
0:00:00.00 625302 N 0 0 0
0:00:00.00 625572 N 0 0 0
0:00:00.00 625779 N 0 0 0
0:00:00.00 626029 N 0 0 0
0:00:00.00 626263 N 0 0 0
0:00:00.00 626575 N 0 0 0
0:00:00.00 626810 N 0 0 0
0:00:00.00 627035 N 0 0 0
0:00:00.00 627314 N 0 0 0
0:00:00.00 627559 N 0 0 0
0:00:00.00 627820 N 0 0 0
0:00:00.00 628079 N 0 0 0
0:00:00.00 628331 N 0 0 0
0:00:00.00 628448 N 0 0 0
0:00:00.00 628796 N 0 0 0
0:00:00.00 629127 N 0 0 0
0:00:00.00 629404 N 0 0 0
0:00:00.00 629633 N 0 0 0
0:00:00.00 629879 N 0 0 0
0:00:00.00 630198 N 0 0 0
0:00:00.00 630493 N 0 0 0
0:00:00.00 630725 N 0 0 0
0:00:00.00 630952 N 0 0 0
0:00:00.00 631463 N 0 0 0
0:00:00.00 631717 N 0 0 0
0:00:00.00 631946 N 0 0 0
0:00:00.00 632209 N 0 0 0
0:00:00.00 632353 N 0 0 0
0:00:00.00 632696 N 0 0 0
0:00:00.00 632846 N 0 0 0
0:00:00.00 633134 N 0 0 0
0:00:00.00 633271 N 0 0 0
0:00:00.00 633632 N 0 0 0
0:00:00.00 634131 N 0 0 0
0:00:00.00 634286 N 0 0 0
0:00:00.00 634628 N 0 0 0
0:00:00.00 634887 N 0 0 0
0:00:00.00 635096 N 0 0 0
0:00:00.00 635377 N 0 0 0
0:00:00.00 635825 N 0 0 0
0:00:00.00 636080 N 0 0 0
0:00:00.00 636293 N 0 0 0
0:00:00.00 636556 N 0 0 0
0:00:00.00 636826 N 0 0 0
0:00:00.00 637349 N 0 0 0
0:00:00.00 637819 N 0 0 0
0:00:00.00 638064 N 0 0 0
0:00:00.00 638361 N 0 0 0
0:00:00.00 638579 N 0 0 0
0:00:00.00 638833 N 0 0 0
0:00:00.00 639088 N 0 0 0
0:00:00.00 639373 N 0 0 0
0:00:00.00 639581 N 0 0 0
0:00:00.00 639839 N 0 0 0
0:00:00.00 640091 N 0 0 0
0:00:00.00 640303 N 0 0 0
0:00:00.00 640517 N 0 0 0
0:00:00.00 640791 N 0 0 0
0:00:00.00 641050 N 0 0 0
0:00:00.00 641286 N 0 0 0
0:00:00.00 641527 N 0 0 0
0:00:00.00 641767 N 0 0 0
0:00:00.00 642281 N 0 0 0
0:00:00.00 642512 N 0 0 0
0:00:00.00 642760 N 0 0 0
0:00:00.00 643050 N 0 0 0
0:00:00.00 643322 N 0 0 0
0:00:00.00 643797 N 0 0 0
0:00:00.00 644020 N 0 0 0
0:00:00.00 644267 N 0 0 0
0:00:00.00 644416 N 0 0 0
0:00:00.00 644578 N 0 0 0
0:00:00.00 644832 N 0 0 0
0:00:00.00 644989 N 0 0 0
0:00:00.00 645286 N 0 0 0
0:00:00.00 645559 N 0 0 0
0:00:00.00 645815 N 0 0 0
0:00:00.00 646027 N 0 0 0
0:00:00.00 646263 N 0 0 0
0:00:00.00 646492 N 0 0 0
0:00:00.00 646778 N 0 0 0
0:00:00.00 646988 N 0 0 0
0:00:00.00 647239 N 0 0 0
0:00:00.00 647491 N 0 0 0
0:00:00.00 647969 N 0 0 0
0:00:00.00 648247 N 0 0 0
0:00:00.00 648749 N 0 0 0
0:00:00.00 648947 N 0 0 0
0:00:00.00 649219 N 0 0 0
0:00:00.00 649760 N 0 0 0
0:00:00.00 649948 N 0 0 0
