0:00:00.00 18 N 0 0 0
0:00:00.00 173 N 0 0 0
0:00:00.00 250 N 0 0 0
0:00:00.00 454 N 0 0 0
0:00:00.00 697 N 0 0 0
0:00:00.00 925 N 0 0 0
0:00:00.00 1168 N 0 0 0
0:00:00.00 1444 N 0 0 0
0:00:00.00 1710 N 0 0 0
0:00:00.00 1955 N 0 0 0
0:00:00.00 2194 N 0 0 0
0:00:00.00 2398 N 0 0 0
0:00:00.00 2606 N 0 0 0
0:00:00.00 2828 N 0 0 0
0:00:00.00 3053 N 0 0 0
0:00:00.00 3283 N 0 0 0
0:00:00.00 3551 N 0 0 0
0:00:00.00 3789 N 0 0 0
0:00:00.00 4030 N 0 0 0
0:00:00.00 4279 N 0 0 0
0:00:00.00 4518 N 0 0 0
0:00:00.00 4757 N 0 0 0
0:00:00.00 4977 N 0 0 0
0:00:00.00 5200 N 0 0 0
0:00:00.00 5441 N 0 0 0
0:00:00.00 5681 N 0 0 0
0:00:00.00 5918 N 0 0 0
0:00:00.00 6161 N 0 0 0
0:00:00.00 6399 N 0 0 0
0:00:00.00 6633 N 0 0 0
0:00:00.00 6858 N 0 0 0
0:00:00.00 7094 N 0 0 0
0:00:00.00 7333 N 0 0 0
0:00:00.00 7571 N 0 0 0
0:00:00.00 7814 N 0 0 0
0:00:00.00 8069 N 0 0 0
0:00:00.00 8332 N 0 0 0
0:00:00.00 8572 N 0 0 0
0:00:00.00 8807 N 0 0 0
0:00:00.00 9052 N 0 0 0
0:00:00.00 9281 N 0 0 0
0:00:00.00 9509 N 0 0 0
0:00:00.00 9742 N 0 0 0
0:00:00.00 9992 N 0 0 0
0:00:00.00 10233 N 0 0 0
0:00:00.00 10478 N 0 0 0
0:00:00.00 10717 N 0 0 0
0:00:00.00 10948 N 0 0 0
0:00:00.00 11174 N 0 0 0
0:00:00.00 11403 N 0 0 0
0:00:00.00 11639 N 0 0 0
0:00:00.00 11869 N 0 0 0
0:00:00.00 12098 N 0 0 0
0:00:00.00 12335 N 0 0 0
0:00:00.00 12575 N 0 0 0
0:00:00.00 12809 N 0 0 0
0:00:00.00 13046 N 0 0 0
0:00:00.00 13277 N 0 0 0
0:00:00.00 13502 N 0 0 0
0:00:00.00 13734 N 0 0 0
0:00:00.00 13973 N 0 0 0
0:00:00.00 14224 N 0 0 0
0:00:00.00 14467 N 0 0 0
0:00:00.00 14728 N 0 0 0
0:00:00.00 14985 N 0 0 0
0:00:00.00 15226 N 0 0 0
0:00:00.00 15458 N 0 0 0
0:00:00.00 15701 N 0 0 0
0:00:00.00 15941 N 0 0 0
0:00:00.00 16180 N 0 0 0
0:00:00.00 16416 N 0 0 0
0:00:00.00 16670 N 0 0 0
0:00:00.00 16929 N 0 0 0
0:00:00.00 17167 N 0 0 0
0:00:00.00 17415 N 0 0 0
0:00:00.00 17665 N 0 0 0
0:00:00.00 17903 N 0 0 0
0:00:00.00 18119 N 0 0 0
0:00:00.00 18346 N 0 0 0
0:00:00.00 18592 N 0 0 0
0:00:00.00 18837 N 0 0 0
0:00:00.00 19080 N 0 0 0
0:00:00.00 19303 N 0 0 0
0:00:00.00 19519 N 0 0 0
0:00:00.00 19733 N 0 0 0
0:00:00.00 19937 N 0 0 0
0:00:00.00 20151 N 0 0 0
0:00:00.00 20387 N 0 0 0
0:00:00.00 20630 N 0 0 0
0:00:00.00 20880 N 0 0 0
0:00:00.00 21121 N 0 0 0
0:00:00.00 21364 N 0 0 0
0:00:00.00 21604 N 0 0 0
0:00:00.00 21830 N 0 0 0
0:00:00.00 22050 N 0 0 0
0:00:00.00 22264 N 0 0 0
0:00:00.00 22500 N 0 0 0
0:00:00.00 22761 N 0 0 0
0:00:00.00 23027 N 0 0 0
0:00:00.00 23276 N 0 0 0
0:00:00.00 23521 N 0 0 0
0:00:00.00 23773 N 0 0 0
0:00:00.00 24016 N 0 0 0
0:00:00.00 24255 N 0 0 0
0:00:00.00 24491 N 0 0 0
0:00:00.00 24721 N 0 0 0
0:00:00.00 24970 N 0 0 0
0:00:00.00 25231 N 0 0 0
0:00:00.00 25484 N 0 0 0
0:00:00.00 25729 N 0 0 0
0:00:00.00 25979 N 0 0 0
0:00:00.00 26226 N 0 0 0
0:00:00.00 26455 N 0 0 0
0:00:00.00 26692 N 0 0 0
0:00:00.00 26941 N 0 0 0
0:00:00.00 27191 N 0 0 0
0:00:00.00 27436 N 0 0 0
0:00:00.00 27691 N 0 0 0
0:00:00.00 27941 N 0 0 0
0:00:00.00 28181 N 0 0 0
0:00:00.00 28417 N 0 0 0
0:00:00.00 28651 N 0 0 0
0:00:00.00 28888 N 0 0 0
0:00:00.00 29122 N 0 0 0
0:00:00.00 29351 N 0 0 0
0:00:00.00 29590 N 0 0 0
0:00:00.00 29833 N 0 0 0
0:00:00.00 30080 N 0 0 0
0:00:00.00 30316 N 0 0 0
0:00:00.00 30546 N 0 0 0
0:00:00.00 30773 N 0 0 0
0:00:00.00 30996 N 0 0 0
0:00:00.00 31225 N 0 0 0
0:00:00.00 31468 N 0 0 0
0:00:00.00 31723 N 0 0 0
0:00:00.00 31972 N 0 0 0
0:00:00.00 32206 N 0 0 0
0:00:00.00 32427 N 0 0 0
0:00:00.00 32647 N 0 0 0
0:00:00.00 32870 N 0 0 0
0:00:00.00 33089 N 0 0 0
0:00:00.00 33313 N 0 0 0
0:00:00.00 33545 N 0 0 0
0:00:00.00 33788 N 0 0 0
0:00:00.00 34022 N 0 0 0
0:00:00.00 34261 N 0 0 0
0:00:00.00 34501 N 0 0 0
0:00:00.00 34733 N 0 0 0
0:00:00.00 34958 N 0 0 0
0:00:00.00 35192 N 0 0 0
0:00:00.00 35426 N 0 0 0
0:00:00.00 35658 N 0 0 0
0:00:00.00 35903 N 0 0 0
0:00:00.00 36153 N 0 0 0
0:00:00.00 36405 N 0 0 0
0:00:00.00 36626 N 0 0 0
0:00:00.00 36853 N 0 0 0
0:00:00.00 37071 N 0 0 0
0:00:00.00 37300 N 0 0 0
0:00:00.00 37534 N 0 0 0
0:00:00.00 37764 N 0 0 0
0:00:00.00 38011 N 0 0 0
0:00:00.00 38239 N 0 0 0
0:00:00.00 38461 N 0 0 0
0:00:00.00 38682 N 0 0 0
0:00:00.00 38907 N 0 0 0
0:00:00.00 39132 N 0 0 0
0:00:00.00 39350 N 0 0 0
0:00:00.00 39568 N 0 0 0
0:00:00.00 39811 N 0 0 0
0:00:00.00 40073 N 0 0 0
0:00:00.00 40345 N 0 0 0
0:00:00.00 40621 N 0 0 0
0:00:00.00 40883 N 0 0 0
0:00:00.00 41119 N 0 0 0
0:00:00.00 41342 N 0 0 0
0:00:00.00 41555 N 0 0 0
0:00:00.00 41774 N 0 0 0
0:00:00.00 42008 N 0 0 0
0:00:00.00 42269 N 0 0 0
0:00:00.00 42530 N 0 0 0
0:00:00.00 42797 N 0 0 0
0:00:00.00 43025 N 0 0 0
0:00:00.00 43254 N 0 0 0
0:00:00.00 43481 N 0 0 0
0:00:00.00 43711 N 0 0 0
0:00:00.00 43938 N 0 0 0
0:00:00.00 44199 N 0 0 0
0:00:00.00 44426 N 0 0 0
0:00:00.00 44680 N 0 0 0
0:00:00.00 44932 N 0 0 0
0:00:00.00 45171 N 0 0 0
0:00:00.00 45405 N 0 0 0
0:00:00.00 45630 N 0 0 0
0:00:00.00 45844 N 0 0 0
0:00:00.00 46066 N 0 0 0
0:00:00.00 46298 N 0 0 0
0:00:00.00 46537 N 0 0 0
0:00:00.00 46778 N 0 0 0
0:00:00.00 47014 N 0 0 0
0:00:00.00 47246 N 0 0 0
0:00:00.00 47455 N 0 0 0
0:00:00.00 47677 N 0 0 0
0:00:00.00 47914 N 0 0 0
0:00:00.00 48163 N 0 0 0
0:00:00.00 48402 N 0 0 0
0:00:00.00 48647 N 0 0 0
0:00:00.00 48892 N 0 0 0
0:00:00.00 49133 N 0 0 0
0:00:00.00 49369 N 0 0 0
0:00:00.00 49597 N 0 0 0
0:00:00.00 49811 N 0 0 0
0:00:00.00 50026 N 0 0 0
0:00:00.00 50240 N 0 0 0
0:00:00.00 50468 N 0 0 0
0:00:00.00 50719 N 0 0 0
0:00:00.00 50962 N 0 0 0
0:00:00.00 51208 N 0 0 0
0:00:00.00 51449 N 0 0 0
0:00:00.00 51694 N 0 0 0
0:00:00.00 51923 N 0 0 0
0:00:00.00 52157 N 0 0 0
0:00:00.00 52394 N 0 0 0
0:00:00.00 52610 N 0 0 0
0:00:00.00 52832 N 0 0 0
0:00:00.00 53060 N 0 0 0
0:00:00.00 53300 N 0 0 0
0:00:00.00 53536 N 0 0 0
0:00:00.00 53757 N 0 0 0
0:00:00.00 53987 N 0 0 0
0:00:00.00 54203 N 0 0 0
0:00:00.00 54412 N 0 0 0
0:00:00.00 54626 N 0 0 0
0:00:00.00 54848 N 0 0 0
0:00:00.00 55075 N 0 0 0
0:00:00.00 55303 N 0 0 0
0:00:00.00 55526 N 0 0 0
0:00:00.00 55746 N 0 0 0
0:00:00.00 55966 N 0 0 0
0:00:00.00 56178 N 0 0 0
0:00:00.00 56387 N 0 0 0
0:00:00.00 56587 N 0 0 0
0:00:00.00 56792 N 0 0 0
0:00:00.00 56990 N 0 0 0
0:00:00.00 57190 N 0 0 0
0:00:00.00 57400 N 0 0 0
0:00:00.00 57611 N 0 0 0
0:00:00.00 57838 N 0 0 0
0:00:00.00 58061 N 0 0 0
0:00:00.00 58282 N 0 0 0
0:00:00.00 58491 N 0 0 0
0:00:00.00 58698 N 0 0 0
0:00:00.00 58912 N 0 0 0
0:00:00.00 59137 N 0 0 0
0:00:00.00 59364 N 0 0 0
0:00:00.00 59591 N 0 0 0
0:00:00.00 59812 N 0 0 0
0:00:00.00 60035 N 0 0 0
0:00:00.00 60266 N 0 0 0
0:00:00.00 60482 N 0 0 0
0:00:00.00 60698 N 0 0 0
0:00:00.00 60910 N 0 0 0
0:00:00.00 61123 N 0 0 0
0:00:00.00 61342 N 0 0 0
0:00:00.00 61565 N 0 0 0
0:00:00.00 61798 N 0 0 0
0:00:00.00 62030 N 0 0 0
0:00:00.00 62266 N 0 0 0
0:00:00.00 62494 N 0 0 0
0:00:00.00 62712 N 0 0 0
0:00:00.00 62932 N 0 0 0
0:00:00.00 63151 N 0 0 0
0:00:00.00 63371 N 0 0 0
0:00:00.00 63599 N 0 0 0
0:00:00.00 63828 N 0 0 0
0:00:00.00 64058 N 0 0 0
0:00:00.00 64298 N 0 0 0
0:00:00.00 64528 N 0 0 0
0:00:00.00 64755 N 0 0 0
0:00:00.00 64976 N 0 0 0
0:00:00.00 65194 N 0 0 0
0:00:00.00 65408 N 0 0 0
0:00:00.00 65617 N 0 0 0
0:00:00.00 65839 N 0 0 0
0:00:00.00 66080 N 0 0 0
0:00:00.00 66319 N 0 0 0
0:00:00.00 66555 N 0 0 0
0:00:00.00 66791 N 0 0 0
0:00:00.00 67014 N 0 0 0
0:00:00.00 67232 N 0 0 0
0:00:00.00 67450 N 0 0 0
0:00:00.00 67682 N 0 0 0
0:00:00.00 67932 N 0 0 0
0:00:00.00 68175 N 0 0 0
0:00:00.00 68416 N 0 0 0
0:00:00.00 68663 N 0 0 0
0:00:00.00 68911 N 0 0 0
0:00:00.00 69149 N 0 0 0
0:00:00.00 69386 N 0 0 0
0:00:00.00 69635 N 0 0 0
0:00:00.00 69871 N 0 0 0
0:00:00.00 70108 N 0 0 0
0:00:00.00 70357 N 0 0 0
0:00:00.00 70607 N 0 0 0
0:00:00.00 70853 N 0 0 0
0:00:00.00 71100 N 0 0 0
0:00:00.00 71343 N 0 0 0
0:00:00.00 71584 N 0 0 0
0:00:00.00 71815 N 0 0 0
0:00:00.00 72047 N 0 0 0
0:00:00.00 72283 N 0 0 0
0:00:00.00 72520 N 0 0 0
0:00:00.00 72763 N 0 0 0
0:00:00.00 73001 N 0 0 0
0:00:00.00 73255 N 0 0 0
0:00:00.00 73481 N 0 0 0
0:00:00.00 73712 N 0 0 0
0:00:00.00 73933 N 0 0 0
0:00:00.00 74165 N 0 0 0
0:00:00.00 74385 N 0 0 0
0:00:00.00 74603 N 0 0 0
0:00:00.00 74855 N 0 0 0
0:00:00.00 75096 N 0 0 0
0:00:00.00 75343 N 0 0 0
0:00:00.00 75587 N 0 0 0
0:00:00.00 75818 N 0 0 0
0:00:00.00 76046 N 0 0 0
0:00:00.00 76273 N 0 0 0
0:00:00.00 76504 N 0 0 0
0:00:00.00 76747 N 0 0 0
0:00:00.00 76982 N 0 0 0
0:00:00.00 77220 N 0 0 0
0:00:00.00 77467 N 0 0 0
0:00:00.00 77699 N 0 0 0
0:00:00.00 77922 N 0 0 0
0:00:00.00 78145 N 0 0 0
0:00:00.00 78372 N 0 0 0
0:00:00.00 78597 N 0 0 0
0:00:00.00 78822 N 0 0 0
0:00:00.00 79054 N 0 0 0
0:00:00.00 79303 N 0 0 0
0:00:00.00 79544 N 0 0 0
0:00:00.00 79780 N 0 0 0
0:00:00.00 80014 N 0 0 0
0:00:00.00 80237 N 0 0 0
0:00:00.00 80462 N 0 0 0
0:00:00.00 80690 N 0 0 0
0:00:00.00 80917 N 0 0 0
0:00:00.00 81151 N 0 0 0
0:00:00.00 81387 N 0 0 0
0:00:00.00 81616 N 0 0 0
0:00:00.00 81848 N 0 0 0
0:00:00.00 82076 N 0 0 0
0:00:00.00 82300 N 0 0 0
0:00:00.00 82525 N 0 0 0
0:00:00.00 82750 N 0 0 0
0:00:00.00 82984 N 0 0 0
0:00:00.00 83209 N 0 0 0
0:00:00.00 83453 N 0 0 0
0:00:00.00 83711 N 0 0 0
0:00:00.00 83972 N 0 0 0
0:00:00.00 84211 N 0 0 0
0:00:00.00 84436 N 0 0 0
0:00:00.00 84672 N 0 0 0
0:00:00.00 84884 N 0 0 0
0:00:00.00 85104 N 0 0 0
0:00:00.00 85327 N 0 0 0
0:00:00.00 85561 N 0 0 0
0:00:00.00 85799 N 0 0 0
0:00:00.00 86031 N 0 0 0
0:00:00.00 86265 N 0 0 0
0:00:00.00 86495 N 0 0 0
0:00:00.00 86719 N 0 0 0
0:00:00.00 86947 N 0 0 0
0:00:00.00 87176 N 0 0 0
0:00:00.00 87413 N 0 0 0
0:00:00.00 87665 N 0 0 0
0:00:00.00 87910 N 0 0 0
0:00:00.00 88160 N 0 0 0
0:00:00.00 88409 N 0 0 0
0:00:00.00 88645 N 0 0 0
0:00:00.00 88866 N 0 0 0
0:00:00.00 89089 N 0 0 0
0:00:00.00 89311 N 0 0 0
0:00:00.00 89537 N 0 0 0
0:00:00.00 89773 N 0 0 0
0:00:00.00 90016 N 0 0 0
0:00:00.00 90257 N 0 0 0
0:00:00.00 90508 N 0 0 0
0:00:00.00 90743 N 0 0 0
0:00:00.00 90974 N 0 0 0
0:00:00.00 91210 N 0 0 0
0:00:00.00 91435 N 0 0 0
0:00:00.00 91670 N 0 0 0
0:00:00.00 91908 N 0 0 0
0:00:00.00 92147 N 0 0 0
0:00:00.00 92394 N 0 0 0
0:00:00.00 92644 N 0 0 0
0:00:00.00 92871 N 0 0 0
0:00:00.00 93100 N 0 0 0
0:00:00.00 93332 N 0 0 0
0:00:00.00 93562 N 0 0 0
0:00:00.00 93782 N 0 0 0
0:00:00.00 94018 N 0 0 0
0:00:00.00 94257 N 0 0 0
0:00:00.00 94496 N 0 0 0
0:00:00.00 94727 N 0 0 0
0:00:00.00 94955 N 0 0 0
0:00:00.00 95186 N 0 0 0
0:00:00.00 95404 N 0 0 0
0:00:00.00 95625 N 0 0 0
0:00:00.00 95852 N 0 0 0
0:00:00.00 96084 N 0 0 0
0:00:00.00 96322 N 0 0 0
0:00:00.00 96554 N 0 0 0
0:00:00.00 96793 N 0 0 0
0:00:00.00 97033 N 0 0 0
0:00:00.00 97265 N 0 0 0
0:00:00.00 97484 N 0 0 0
0:00:00.00 97697 N 0 0 0
0:00:00.00 97909 N 0 0 0
0:00:00.00 98127 N 0 0 0
0:00:00.00 98350 N 0 0 0
0:00:00.00 98581 N 0 0 0
0:00:00.00 98813 N 0 0 0
0:00:00.00 99059 N 0 0 0
0:00:00.00 99290 N 0 0 0
0:00:00.00 99518 N 0 0 0
0:00:00.00 99742 N 0 0 0
0:00:00.00 99967 N 0 0 0
0:00:00.00 100192 N 0 0 0
0:00:00.00 100411 N 0 0 0
0:00:00.00 100636 N 0 0 0
0:00:00.00 100877 N 0 0 0
0:00:00.00 101120 N 0 0 0
0:00:00.00 101347 N 0 0 0
0:00:00.00 101569 N 0 0 0
0:00:00.00 101788 N 0 0 0
0:00:00.00 102001 N 0 0 0
0:00:00.00 102218 N 0 0 0
0:00:00.00 102436 N 0 0 0
0:00:00.00 102661 N 0 0 0
0:00:00.00 102881 N 0 0 0
0:00:00.00 103102 N 0 0 0
0:00:00.00 103329 N 0 0 0
0:00:00.00 103556 N 0 0 0
0:00:00.00 103772 N 0 0 0
0:00:00.00 103986 N 0 0 0
0:00:00.00 104193 N 0 0 0
0:00:00.00 104416 N 0 0 0
0:00:00.00 104641 N 0 0 0
0:00:00.00 104872 N 0 0 0
0:00:00.00 105104 N 0 0 0
0:00:00.00 105336 N 0 0 0
0:00:00.00 105561 N 0 0 0
0:00:00.00 105779 N 0 0 0
0:00:00.00 105993 N 0 0 0
0:00:00.00 106213 N 0 0 0
0:00:00.00 106429 N 0 0 0
0:00:00.00 106650 N 0 0 0
0:00:00.00 106882 N 0 0 0
0:00:00.00 107111 N 0 0 0
0:00:00.00 107341 N 0 0 0
0:00:00.00 107570 N 0 0 0
0:00:00.00 107804 N 0 0 0
0:00:00.00 108020 N 0 0 0
0:00:00.00 108236 N 0 0 0
0:00:00.00 108459 N 0 0 0
0:00:00.00 108677 N 0 0 0
0:00:00.00 108895 N 0 0 0
0:00:00.00 109116 N 0 0 0
0:00:00.00 109348 N 0 0 0
0:00:00.00 109580 N 0 0 0
0:00:00.00 109813 N 0 0 0
0:00:00.00 110047 N 0 0 0
0:00:00.00 110286 N 0 0 0
0:00:00.00 110515 N 0 0 0
0:00:00.00 110743 N 0 0 0
0:00:00.00 110968 N 0 0 0
0:00:00.00 111208 N 0 0 0
0:00:00.00 111440 N 0 0 0
0:00:00.00 111683 N 0 0 0
0:00:00.00 111937 N 0 0 0
0:00:00.00 112196 N 0 0 0
0:00:00.00 112448 N 0 0 0
0:00:00.00 112687 N 0 0 0
0:00:00.00 112925 N 0 0 0
0:00:00.00 113146 N 0 0 0
0:00:00.00 113369 N 0 0 0
0:00:00.00 113600 N 0 0 0
0:00:00.00 113837 N 0 0 0
0:00:00.00 114071 N 0 0 0
0:00:00.00 114313 N 0 0 0
0:00:00.00 114550 N 0 0 0
0:00:00.00 114788 N 0 0 0
0:00:00.00 115015 N 0 0 0
0:00:00.00 115243 N 0 0 0
0:00:00.00 115481 N 0 0 0
0:00:00.00 115726 N 0 0 0
0:00:00.00 115970 N 0 0 0
0:00:00.00 116215 N 0 0 0
0:00:00.00 116458 N 0 0 0
0:00:00.00 116687 N 0 0 0
0:00:00.00 116914 N 0 0 0
0:00:00.00 117142 N 0 0 0
0:00:00.00 117374 N 0 0 0
0:00:00.00 117614 N 0 0 0
0:00:00.00 117855 N 0 0 0
0:00:00.00 118100 N 0 0 0
0:00:00.00 118345 N 0 0 0
0:00:00.00 118579 N 0 0 0
0:00:00.00 118809 N 0 0 0
0:00:00.00 119030 N 0 0 0
0:00:00.00 119246 N 0 0 0
0:00:00.00 119461 N 0 0 0
0:00:00.00 119678 N 0 0 0
0:00:00.00 119914 N 0 0 0
0:00:00.00 120163 N 0 0 0
0:00:00.00 120409 N 0 0 0
0:00:00.00 120649 N 0 0 0
0:00:00.00 120881 N 0 0 0
0:00:00.00 121111 N 0 0 0
0:00:00.00 121333 N 0 0 0
0:00:00.00 121554 N 0 0 0
0:00:00.00 121770 N 0 0 0
0:00:00.00 121995 N 0 0 0
0:00:00.00 122227 N 0 0 0
0:00:00.00 122458 N 0 0 0
0:00:00.00 122688 N 0 0 0
0:00:00.00 122924 N 0 0 0
0:00:00.00 123158 N 0 0 0
0:00:00.00 123376 N 0 0 0
0:00:00.00 123586 N 0 0 0
0:00:00.00 123815 N 0 0 0
0:00:00.00 124049 N 0 0 0
0:00:00.00 124274 N 0 0 0
0:00:00.00 124515 N 0 0 0
0:00:00.00 124754 N 0 0 0
0:00:00.00 124981 N 0 0 0
0:00:00.00 125208 N 0 0 0
0:00:00.00 125419 N 0 0 0
0:00:00.00 125626 N 0 0 0
0:00:00.00 125836 N 0 0 0
0:00:00.00 126040 N 0 0 0
0:00:00.00 126259 N 0 0 0
0:00:00.00 126497 N 0 0 0
0:00:00.00 126733 N 0 0 0
0:00:00.00 126979 N 0 0 0
0:00:00.00 127208 N 0 0 0
0:00:00.00 127431 N 0 0 0
0:00:00.00 127649 N 0 0 0
0:00:00.00 127859 N 0 0 0
0:00:00.00 128077 N 0 0 0
0:00:00.00 128286 N 0 0 0
0:00:00.00 128516 N 0 0 0
0:00:00.00 128759 N 0 0 0
0:00:00.00 129001 N 0 0 0
0:00:00.00 129236 N 0 0 0
0:00:00.00 129465 N 0 0 0
0:00:00.00 129686 N 0 0 0
0:00:00.00 129902 N 0 0 0
0:00:00.00 130118 N 0 0 0
0:00:00.00 130338 N 0 0 0
0:00:00.00 130561 N 0 0 0
0:00:00.00 130792 N 0 0 0
0:00:00.00 131033 N 0 0 0
0:00:00.00 131274 N 0 0 0
0:00:00.00 131522 N 0 0 0
0:00:00.00 131769 N 0 0 0
0:00:00.00 132010 N 0 0 0
0:00:00.00 132233 N 0 0 0
0:00:00.00 132457 N 0 0 0
0:00:00.00 132682 N 0 0 0
0:00:00.00 132905 N 0 0 0
0:00:00.00 133142 N 0 0 0
0:00:00.00 133385 N 0 0 0
0:00:00.00 133618 N 0 0 0
0:00:00.00 133850 N 0 0 0
0:00:00.00 134077 N 0 0 0
0:00:00.00 134305 N 0 0 0
0:00:00.00 134536 N 0 0 0
0:00:00.00 134771 N 0 0 0
0:00:00.00 135027 N 0 0 0
0:00:00.00 135274 N 0 0 0
0:00:00.00 135513 N 0 0 0
0:00:00.00 135743 N 0 0 0
0:00:00.00 135970 N 0 0 0
0:00:00.00 136190 N 0 0 0
0:00:00.00 136411 N 0 0 0
0:00:00.00 136625 N 0 0 0
0:00:00.00 136840 N 0 0 0
0:00:00.00 137057 N 0 0 0
0:00:00.00 137300 N 0 0 0
0:00:00.00 137554 N 0 0 0
0:00:00.00 137795 N 0 0 0
0:00:00.00 138038 N 0 0 0
0:00:00.00 138274 N 0 0 0
0:00:00.00 138505 N 0 0 0
0:00:00.00 138724 N 0 0 0
0:00:00.00 138947 N 0 0 0
0:00:00.00 139183 N 0 0 0
0:00:00.00 139414 N 0 0 0
0:00:00.00 139648 N 0 0 0
0:00:00.00 139887 N 0 0 0
0:00:00.00 140139 N 0 0 0
0:00:00.00 140375 N 0 0 0
0:00:00.00 140602 N 0 0 0
0:00:00.00 140823 N 0 0 0
0:00:00.00 141052 N 0 0 0
0:00:00.00 141286 N 0 0 0
0:00:00.00 141512 N 0 0 0
0:00:00.00 141761 N 0 0 0
0:00:00.00 142015 N 0 0 0
0:00:00.00 142256 N 0 0 0
0:00:00.00 142499 N 0 0 0
0:00:00.00 142745 N 0 0 0
0:00:00.00 142983 N 0 0 0
0:00:00.00 143215 N 0 0 0
0:00:00.00 143444 N 0 0 0
0:00:00.00 143674 N 0 0 0
0:00:00.00 143912 N 0 0 0
0:00:00.00 144155 N 0 0 0
0:00:00.00 144387 N 0 0 0
0:00:00.00 144614 N 0 0 0
0:00:00.00 144842 N 0 0 0
0:00:00.00 145071 N 0 0 0
0:00:00.00 145298 N 0 0 0
0:00:00.00 145525 N 0 0 0
0:00:00.00 145764 N 0 0 0
0:00:00.00 146020 N 0 0 0
0:00:00.00 146268 N 0 0 0
0:00:00.00 146509 N 0 0 0
0:00:00.00 146750 N 0 0 0
0:00:00.00 146983 N 0 0 0
0:00:00.00 147197 N 0 0 0
0:00:00.00 147415 N 0 0 0
0:00:00.00 147647 N 0 0 0
0:00:00.00 147886 N 0 0 0
0:00:00.00 148122 N 0 0 0
0:00:00.00 148361 N 0 0 0
0:00:00.00 148606 N 0 0 0
0:00:00.00 148844 N 0 0 0
0:00:00.00 149067 N 0 0 0
0:00:00.00 149283 N 0 0 0
0:00:00.00 149492 N 0 0 0
0:00:00.00 149701 N 0 0 0
0:00:00.00 149913 N 0 0 0
0:00:00.00 150125 N 0 0 0
0:00:00.00 150361 N 0 0 0
0:00:00.00 150586 N 0 0 0
0:00:00.00 150809 N 0 0 0
0:00:00.00 151036 N 0 0 0
0:00:00.00 151258 N 0 0 0
0:00:00.00 151468 N 0 0 0
0:00:00.00 151682 N 0 0 0
0:00:00.00 151897 N 0 0 0
0:00:00.00 152109 N 0 0 0
0:00:00.00 152321 N 0 0 0
0:00:00.00 152537 N 0 0 0
0:00:00.00 152761 N 0 0 0
0:00:00.00 152989 N 0 0 0
0:00:00.00 153212 N 0 0 0
0:00:00.00 153423 N 0 0 0
0:00:00.00 153635 N 0 0 0
0:00:00.00 153842 N 0 0 0
0:00:00.00 154049 N 0 0 0
0:00:00.00 154255 N 0 0 0
0:00:00.00 154472 N 0 0 0
0:00:00.00 154714 N 0 0 0
0:00:00.00 154957 N 0 0 0
0:00:00.00 155200 N 0 0 0
0:00:00.00 155430 N 0 0 0
0:00:00.00 155648 N 0 0 0
0:00:00.00 155858 N 0 0 0
0:00:00.00 156062 N 0 0 0
0:00:00.00 156267 N 0 0 0
0:00:00.00 156474 N 0 0 0
0:00:00.00 156685 N 0 0 0
0:00:00.00 156904 N 0 0 0
0:00:00.00 157124 N 0 0 0
0:00:00.00 157354 N 0 0 0
0:00:00.00 157583 N 0 0 0
0:00:00.00 157806 N 0 0 0
0:00:00.00 158024 N 0 0 0
0:00:00.00 158238 N 0 0 0
0:00:00.00 158450 N 0 0 0
0:00:00.00 158675 N 0 0 0
0:00:00.00 158904 N 0 0 0
0:00:00.00 159138 N 0 0 0
0:00:00.00 159370 N 0 0 0
0:00:00.00 159602 N 0 0 0
0:00:00.00 159831 N 0 0 0
0:00:00.00 160042 N 0 0 0
0:00:00.00 160254 N 0 0 0
0:00:00.00 160470 N 0 0 0
0:00:00.00 160686 N 0 0 0
0:00:00.00 160907 N 0 0 0
0:00:00.00 161129 N 0 0 0
0:00:00.00 161361 N 0 0 0
0:00:00.00 161591 N 0 0 0
0:00:00.00 161820 N 0 0 0
0:00:00.00 162041 N 0 0 0
0:00:00.00 162257 N 0 0 0
0:00:00.00 162475 N 0 0 0
0:00:00.00 162693 N 0 0 0
0:00:00.00 162905 N 0 0 0
0:00:00.00 163127 N 0 0 0
0:00:00.00 163359 N 0 0 0
0:00:00.00 163591 N 0 0 0
0:00:00.00 163820 N 0 0 0
0:00:00.00 164036 N 0 0 0
0:00:00.00 164257 N 0 0 0
0:00:00.00 164473 N 0 0 0
0:00:00.00 164689 N 0 0 0
0:00:00.00 164907 N 0 0 0
0:00:00.00 165132 N 0 0 0
0:00:00.00 165366 N 0 0 0
0:00:00.00 165607 N 0 0 0
0:00:00.00 165832 N 0 0 0
0:00:00.00 166061 N 0 0 0
0:00:00.00 166291 N 0 0 0
0:00:00.00 166514 N 0 0 0
0:00:00.00 166730 N 0 0 0
0:00:00.00 166941 N 0 0 0
0:00:00.00 167171 N 0 0 0
0:00:00.00 167398 N 0 0 0
0:00:00.00 167627 N 0 0 0
0:00:00.00 167868 N 0 0 0
0:00:00.00 168111 N 0 0 0
0:00:00.00 168345 N 0 0 0
0:00:00.00 168574 N 0 0 0
0:00:00.00 168795 N 0 0 0
0:00:00.00 169018 N 0 0 0
0:00:00.00 169240 N 0 0 0
0:00:00.00 169468 N 0 0 0
0:00:00.00 169715 N 0 0 0
0:00:00.00 169961 N 0 0 0
0:00:00.00 170201 N 0 0 0
0:00:00.00 170438 N 0 0 0
0:00:00.00 170672 N 0 0 0
0:00:00.00 170892 N 0 0 0
0:00:00.00 171104 N 0 0 0
0:00:00.00 171315 N 0 0 0
0:00:00.00 171527 N 0 0 0
0:00:00.00 171745 N 0 0 0
0:00:00.00 171985 N 0 0 0
0:00:00.00 172244 N 0 0 0
0:00:00.00 172510 N 0 0 0
0:00:00.00 172737 N 0 0 0
0:00:00.00 172957 N 0 0 0
0:00:00.00 173169 N 0 0 0
0:00:00.00 173378 N 0 0 0
0:00:00.00 173594 N 0 0 0
0:00:00.00 173817 N 0 0 0
0:00:00.00 174056 N 0 0 0
0:00:00.00 174299 N 0 0 0
0:00:00.00 174539 N 0 0 0
0:00:00.00 174785 N 0 0 0
0:00:00.00 175032 N 0 0 0
0:00:00.00 175262 N 0 0 0
0:00:00.00 175486 N 0 0 0
0:00:00.00 175705 N 0 0 0
0:00:00.00 175937 N 0 0 0
0:00:00.00 176166 N 0 0 0
0:00:00.00 176407 N 0 0 0
0:00:00.00 176650 N 0 0 0
0:00:00.00 176890 N 0 0 0
0:00:00.00 177138 N 0 0 0
0:00:00.00 177368 N 0 0 0
0:00:00.00 177604 N 0 0 0
0:00:00.00 177833 N 0 0 0
0:00:00.00 178067 N 0 0 0
0:00:00.00 178301 N 0 0 0
0:00:00.00 178537 N 0 0 0
0:00:00.00 178771 N 0 0 0
0:00:00.00 179006 N 0 0 0
0:00:00.00 179240 N 0 0 0
0:00:00.00 179460 N 0 0 0
0:00:00.00 179680 N 0 0 0
0:00:00.00 179917 N 0 0 0
0:00:00.00 180151 N 0 0 0
0:00:00.00 180392 N 0 0 0
0:00:00.00 180646 N 0 0 0
0:00:00.00 180887 N 0 0 0
0:00:00.00 181123 N 0 0 0
0:00:00.00 181346 N 0 0 0
0:00:00.00 181566 N 0 0 0
0:00:00.00 181786 N 0 0 0
0:00:00.00 181996 N 0 0 0
0:00:00.00 182212 N 0 0 0
0:00:00.00 182439 N 0 0 0
0:00:00.00 182669 N 0 0 0
0:00:00.00 182903 N 0 0 0
0:00:00.00 183146 N 0 0 0
0:00:00.00 183395 N 0 0 0
0:00:00.00 183634 N 0 0 0
0:00:00.00 183868 N 0 0 0
0:00:00.00 184077 N 0 0 0
0:00:00.00 184288 N 0 0 0
0:00:00.00 184496 N 0 0 0
0:00:00.00 184707 N 0 0 0
0:00:00.00 184925 N 0 0 0
0:00:00.00 185143 N 0 0 0
0:00:00.00 185369 N 0 0 0
0:00:00.00 185593 N 0 0 0
0:00:00.00 185818 N 0 0 0
0:00:00.00 186064 N 0 0 0
0:00:00.00 186320 N 0 0 0
0:00:00.00 186559 N 0 0 0
0:00:00.00 186811 N 0 0 0
0:00:00.00 187054 N 0 0 0
0:00:00.00 187295 N 0 0 0
0:00:00.00 187535 N 0 0 0
0:00:00.00 187789 N 0 0 0
0:00:00.00 188023 N 0 0 0
0:00:00.00 188258 N 0 0 0
0:00:00.00 188480 N 0 0 0
0:00:00.00 188714 N 0 0 0
0:00:00.00 188977 N 0 0 0
0:00:00.00 189248 N 0 0 0
0:00:00.00 189508 N 0 0 0
0:00:00.00 189769 N 0 0 0
0:00:00.00 190019 N 0 0 0
0:00:00.00 190280 N 0 0 0
0:00:00.00 190523 N 0 0 0
0:00:00.00 190759 N 0 0 0
0:00:00.00 190987 N 0 0 0
0:00:00.00 191221 N 0 0 0
0:00:00.00 191461 N 0 0 0
0:00:00.00 191704 N 0 0 0
0:00:00.00 191947 N 0 0 0
0:00:00.00 192199 N 0 0 0
0:00:00.00 192454 N 0 0 0
0:00:00.00 192699 N 0 0 0
0:00:00.00 192929 N 0 0 0
0:00:00.00 193163 N 0 0 0
0:00:00.00 193401 N 0 0 0
0:00:00.00 193655 N 0 0 0
0:00:00.00 193891 N 0 0 0
0:00:00.00 194128 N 0 0 0
0:00:00.00 194362 N 0 0 0
0:00:00.00 194602 N 0 0 0
0:00:00.00 194846 N 0 0 0
0:00:00.00 195095 N 0 0 0
0:00:00.00 195334 N 0 0 0
0:00:00.00 195568 N 0 0 0
0:00:00.00 195797 N 0 0 0
0:00:00.00 196031 N 0 0 0
0:00:00.00 196265 N 0 0 0
0:00:00.00 196490 N 0 0 0
0:00:00.00 196717 N 0 0 0
0:00:00.00 196947 N 0 0 0
0:00:00.00 197170 N 0 0 0
0:00:00.00 197397 N 0 0 0
0:00:00.00 197633 N 0 0 0
0:00:00.00 197890 N 0 0 0
0:00:00.00 198142 N 0 0 0
0:00:00.00 198389 N 0 0 0
0:00:00.00 198621 N 0 0 0
0:00:00.00 198844 N 0 0 0
0:00:00.00 199057 N 0 0 0
0:00:00.00 199265 N 0 0 0
0:00:00.00 199481 N 0 0 0
0:00:00.00 199706 N 0 0 0
0:00:00.00 199933 N 0 0 0
0:00:00.00 200158 N 0 0 0
0:00:00.00 200394 N 0 0 0
0:00:00.00 200642 N 0 0 0
0:00:00.00 200891 N 0 0 0
0:00:00.00 201119 N 0 0 0
0:00:00.00 201352 N 0 0 0
0:00:00.00 201560 N 0 0 0
0:00:00.00 201767 N 0 0 0
0:00:00.00 201982 N 0 0 0
0:00:00.00 202196 N 0 0 0
0:00:00.00 202423 N 0 0 0
0:00:00.00 202646 N 0 0 0
0:00:00.00 202873 N 0 0 0
0:00:00.00 203090 N 0 0 0
0:00:00.00 203312 N 0 0 0
0:00:00.00 203542 N 0 0 0
0:00:00.00 203774 N 0 0 0
0:00:00.00 204012 N 0 0 0
0:00:00.00 204248 N 0 0 0
0:00:00.00 204489 N 0 0 0
0:00:00.00 204732 N 0 0 0
0:00:00.00 204970 N 0 0 0
0:00:00.00 205196 N 0 0 0
0:00:00.00 205423 N 0 0 0
0:00:00.00 205643 N 0 0 0
0:00:00.00 205859 N 0 0 0
0:00:00.00 206086 N 0 0 0
0:00:00.00 206314 N 0 0 0
0:00:00.00 206561 N 0 0 0
0:00:00.00 206807 N 0 0 0
0:00:00.00 207041 N 0 0 0
0:00:00.00 207268 N 0 0 0
0:00:00.00 207477 N 0 0 0
0:00:00.00 207686 N 0 0 0
0:00:00.00 207896 N 0 0 0
0:00:00.00 208102 N 0 0 0
0:00:00.00 208319 N 0 0 0
0:00:00.00 208544 N 0 0 0
0:00:00.00 208773 N 0 0 0
0:00:00.00 209012 N 0 0 0
0:00:00.00 209252 N 0 0 0
0:00:00.00 209500 N 0 0 0
0:00:00.00 209734 N 0 0 0
0:00:00.00 209954 N 0 0 0
0:00:00.00 210172 N 0 0 0
0:00:00.00 210389 N 0 0 0
0:00:00.00 210618 N 0 0 0
0:00:00.00 210845 N 0 0 0
0:00:00.00 211081 N 0 0 0
0:00:00.00 211318 N 0 0 0
0:00:00.00 211545 N 0 0 0
0:00:00.00 211763 N 0 0 0
0:00:00.00 211973 N 0 0 0
0:00:00.00 212189 N 0 0 0
0:00:00.00 212409 N 0 0 0
0:00:00.00 212627 N 0 0 0
0:00:00.00 212852 N 0 0 0
0:00:00.00 213086 N 0 0 0
0:00:00.00 213325 N 0 0 0
0:00:00.00 213563 N 0 0 0
0:00:00.00 213786 N 0 0 0
0:00:00.00 214011 N 0 0 0
0:00:00.00 214225 N 0 0 0
0:00:00.00 214450 N 0 0 0
0:00:00.00 214682 N 0 0 0
0:00:00.00 214922 N 0 0 0
0:00:00.00 215156 N 0 0 0
0:00:00.00 215388 N 0 0 0
0:00:00.00 215613 N 0 0 0
0:00:00.00 215840 N 0 0 0
0:00:00.00 216052 N 0 0 0
0:00:00.00 216266 N 0 0 0
0:00:00.00 216491 N 0 0 0
0:00:00.00 216725 N 0 0 0
0:00:00.00 216959 N 0 0 0
0:00:00.00 217197 N 0 0 0
0:00:00.00 217435 N 0 0 0
0:00:00.00 217665 N 0 0 0
0:00:00.00 217899 N 0 0 0
0:00:00.00 218133 N 0 0 0
0:00:00.00 218358 N 0 0 0
0:00:00.00 218576 N 0 0 0
0:00:00.00 218795 N 0 0 0
0:00:00.00 219022 N 0 0 0
0:00:00.00 219251 N 0 0 0
0:00:00.00 219487 N 0 0 0
0:00:00.00 219737 N 0 0 0
0:00:00.00 219985 N 0 0 0
0:00:00.00 220216 N 0 0 0
0:00:00.00 220446 N 0 0 0
0:00:00.00 220671 N 0 0 0
0:00:00.00 220892 N 0 0 0
0:00:00.00 221110 N 0 0 0
0:00:00.00 221337 N 0 0 0
0:00:00.00 221580 N 0 0 0
0:00:00.00 221823 N 0 0 0
0:00:00.00 222062 N 0 0 0
0:00:00.00 222300 N 0 0 0
0:00:00.00 222539 N 0 0 0
0:00:00.00 222773 N 0 0 0
0:00:00.00 223000 N 0 0 0
0:00:00.00 223225 N 0 0 0
0:00:00.00 223450 N 0 0 0
0:00:00.00 223702 N 0 0 0
0:00:00.00 223954 N 0 0 0
0:00:00.00 224194 N 0 0 0
0:00:00.00 224431 N 0 0 0
0:00:00.00 224658 N 0 0 0
0:00:00.00 224874 N 0 0 0
0:00:00.00 225095 N 0 0 0
0:00:00.00 225322 N 0 0 0
0:00:00.00 225554 N 0 0 0
0:00:00.00 225790 N 0 0 0
0:00:00.00 226017 N 0 0 0
0:00:00.00 226249 N 0 0 0
0:00:00.00 226483 N 0 0 0
0:00:00.00 226719 N 0 0 0
0:00:00.00 226940 N 0 0 0
0:00:00.00 227160 N 0 0 0
0:00:00.00 227380 N 0 0 0
0:00:00.00 227608 N 0 0 0
0:00:00.00 227839 N 0 0 0
0:00:00.00 228067 N 0 0 0
0:00:00.00 228303 N 0 0 0
0:00:00.00 228535 N 0 0 0
0:00:00.00 228758 N 0 0 0
0:00:00.00 228976 N 0 0 0
0:00:00.00 229181 N 0 0 0
0:00:00.00 229388 N 0 0 0
0:00:00.00 229604 N 0 0 0
0:00:00.00 229833 N 0 0 0
0:00:00.00 230074 N 0 0 0
0:00:00.00 230306 N 0 0 0
0:00:00.00 230537 N 0 0 0
0:00:00.00 230785 N 0 0 0
0:00:00.00 231030 N 0 0 0
0:00:00.00 231266 N 0 0 0
0:00:00.00 231491 N 0 0 0
0:00:00.00 231703 N 0 0 0
0:00:00.00 231914 N 0 0 0
0:00:00.00 232121 N 0 0 0
0:00:00.00 232342 N 0 0 0
0:00:00.00 232564 N 0 0 0
0:00:00.00 232771 N 0 0 0
0:00:00.00 232978 N 0 0 0
0:00:00.00 233176 N 0 0 0
0:00:00.00 233374 N 0 0 0
0:00:00.00 233577 N 0 0 0
0:00:00.00 233788 N 0 0 0
0:00:00.00 234004 N 0 0 0
0:00:00.00 234220 N 0 0 0
0:00:00.00 234452 N 0 0 0
0:00:00.00 234688 N 0 0 0
0:00:00.00 234920 N 0 0 0
0:00:00.00 235152 N 0 0 0
0:00:00.00 235384 N 0 0 0
0:00:00.00 235611 N 0 0 0
0:00:00.00 235827 N 0 0 0
0:00:00.00 236050 N 0 0 0
0:00:00.00 236288 N 0 0 0
0:00:00.00 236527 N 0 0 0
0:00:00.00 236758 N 0 0 0
0:00:00.00 237001 N 0 0 0
0:00:00.00 237242 N 0 0 0
0:00:00.00 237476 N 0 0 0
0:00:00.00 237703 N 0 0 0
0:00:00.00 237926 N 0 0 0
0:00:00.00 238145 N 0 0 0
0:00:00.00 238378 N 0 0 0
0:00:00.00 238610 N 0 0 0
0:00:00.00 238847 N 0 0 0
0:00:00.00 239090 N 0 0 0
0:00:00.00 239332 N 0 0 0
0:00:00.00 239578 N 0 0 0
0:00:00.00 239801 N 0 0 0
0:00:00.00 240023 N 0 0 0
0:00:00.00 240248 N 0 0 0
0:00:00.00 240464 N 0 0 0
0:00:00.00 240685 N 0 0 0
0:00:00.00 240907 N 0 0 0
0:00:00.00 241137 N 0 0 0
0:00:00.00 241371 N 0 0 0
0:00:00.00 241601 N 0 0 0
0:00:00.00 241834 N 0 0 0
0:00:00.00 242053 N 0 0 0
0:00:00.00 242273 N 0 0 0
0:00:00.00 242496 N 0 0 0
0:00:00.00 242719 N 0 0 0
0:00:00.00 242944 N 0 0 0
0:00:00.00 243200 N 0 0 0
0:00:00.00 243450 N 0 0 0
0:00:00.00 243697 N 0 0 0
0:00:00.00 243931 N 0 0 0
0:00:00.00 244154 N 0 0 0
0:00:00.00 244364 N 0 0 0
0:00:00.00 244573 N 0 0 0
0:00:00.00 244778 N 0 0 0
0:00:00.00 244982 N 0 0 0
0:00:00.00 245196 N 0 0 0
0:00:00.00 245428 N 0 0 0
0:00:00.00 245668 N 0 0 0
0:00:00.00 245911 N 0 0 0
0:00:00.00 246148 N 0 0 0
0:00:00.00 246380 N 0 0 0
0:00:00.00 246613 N 0 0 0
0:00:00.00 246852 N 0 0 0
0:00:00.00 247088 N 0 0 0
0:00:00.00 247327 N 0 0 0
0:00:00.00 247567 N 0 0 0
0:00:00.00 247795 N 0 0 0
0:00:00.00 248029 N 0 0 0
0:00:00.00 248258 N 0 0 0
0:00:00.00 248479 N 0 0 0
0:00:00.00 248704 N 0 0 0
0:00:00.00 248926 N 0 0 0
0:00:00.00 249143 N 0 0 0
0:00:00.00 249376 N 0 0 0
0:00:00.00 249617 N 0 0 0
0:00:00.00 249862 N 0 0 0
0:00:00.00 250103 N 0 0 0
0:00:00.00 250328 N 0 0 0
0:00:00.00 250547 N 0 0 0
0:00:00.00 250753 N 0 0 0
0:00:00.00 250951 N 0 0 0
0:00:00.00 251156 N 0 0 0
0:00:00.00 251361 N 0 0 0
0:00:00.00 251581 N 0 0 0
0:00:00.00 251842 N 0 0 0
0:00:00.00 252115 N 0 0 0
0:00:00.00 252369 N 0 0 0
0:00:00.00 252610 N 0 0 0
0:00:00.00 252844 N 0 0 0
0:00:00.00 253071 N 0 0 0
0:00:00.00 253294 N 0 0 0
0:00:00.00 253505 N 0 0 0
0:00:00.00 253726 N 0 0 0
0:00:00.00 253966 N 0 0 0
0:00:00.00 254212 N 0 0 0
0:00:00.00 254457 N 0 0 0
0:00:00.00 254709 N 0 0 0
0:00:00.00 254959 N 0 0 0
0:00:00.00 255217 N 0 0 0
0:00:00.00 255465 N 0 0 0
0:00:00.00 255719 N 0 0 0
0:00:00.00 255965 N 0 0 0
0:00:00.00 256210 N 0 0 0
0:00:00.00 256444 N 0 0 0
0:00:00.00 256687 N 0 0 0
0:00:00.00 256927 N 0 0 0
0:00:00.00 257157 N 0 0 0
0:00:00.00 257380 N 0 0 0
0:00:00.00 257618 N 0 0 0
0:00:00.00 257857 N 0 0 0
0:00:00.00 258095 N 0 0 0
0:00:00.00 258336 N 0 0 0
0:00:00.00 258584 N 0 0 0
0:00:00.00 258833 N 0 0 0
0:00:00.00 259070 N 0 0 0
0:00:00.00 259295 N 0 0 0
0:00:00.00 259515 N 0 0 0
0:00:00.00 259735 N 0 0 0
0:00:00.00 259951 N 0 0 0
0:00:00.00 260174 N 0 0 0
0:00:00.00 260415 N 0 0 0
0:00:00.00 260645 N 0 0 0
0:00:00.00 260876 N 0 0 0
0:00:00.00 261108 N 0 0 0
0:00:00.00 261347 N 0 0 0
0:00:00.00 261598 N 0 0 0
0:00:00.00 261830 N 0 0 0
0:00:00.00 262053 N 0 0 0
0:00:00.00 262283 N 0 0 0
0:00:00.00 262526 N 0 0 0
0:00:00.00 262786 N 0 0 0
0:00:00.00 263059 N 0 0 0
0:00:00.00 263313 N 0 0 0
0:00:00.00 263542 N 0 0 0
0:00:00.00 263767 N 0 0 0
0:00:00.00 263988 N 0 0 0
0:00:00.00 264211 N 0 0 0
0:00:00.00 264433 N 0 0 0
0:00:00.00 264654 N 0 0 0
0:00:00.00 264877 N 0 0 0
0:00:00.00 265102 N 0 0 0
0:00:00.00 265329 N 0 0 0
0:00:00.00 265547 N 0 0 0
0:00:00.00 265766 N 0 0 0
0:00:00.00 265977 N 0 0 0
0:00:00.00 266189 N 0 0 0
0:00:00.00 266398 N 0 0 0
0:00:00.00 266621 N 0 0 0
0:00:00.00 266861 N 0 0 0
0:00:00.00 267111 N 0 0 0
0:00:00.00 267349 N 0 0 0
0:00:00.00 267588 N 0 0 0
0:00:00.00 267804 N 0 0 0
0:00:00.00 268020 N 0 0 0
0:00:00.00 268229 N 0 0 0
0:00:00.00 268436 N 0 0 0
0:00:00.00 268654 N 0 0 0
0:00:00.00 268871 N 0 0 0
0:00:00.00 269089 N 0 0 0
0:00:00.00 269312 N 0 0 0
0:00:00.00 269532 N 0 0 0
0:00:00.00 269755 N 0 0 0
0:00:00.00 269982 N 0 0 0
0:00:00.00 270198 N 0 0 0
0:00:00.00 270405 N 0 0 0
0:00:00.00 270617 N 0 0 0
0:00:00.00 270830 N 0 0 0
0:00:00.00 271048 N 0 0 0
0:00:00.00 271278 N 0 0 0
0:00:00.00 271525 N 0 0 0
0:00:00.00 271760 N 0 0 0
0:00:00.00 271994 N 0 0 0
0:00:00.00 272221 N 0 0 0
0:00:00.00 272430 N 0 0 0
0:00:00.00 272635 N 0 0 0
0:00:00.00 272842 N 0 0 0
0:00:00.00 273051 N 0 0 0
0:00:00.00 273263 N 0 0 0
0:00:00.00 273474 N 0 0 0
0:00:00.00 273683 N 0 0 0
0:00:00.00 273890 N 0 0 0
0:00:00.00 274106 N 0 0 0
0:00:00.00 274318 N 0 0 0
0:00:00.00 274556 N 0 0 0
0:00:00.00 274806 N 0 0 0
0:00:00.00 275062 N 0 0 0
0:00:00.00 275297 N 0 0 0
0:00:00.00 275530 N 0 0 0
0:00:00.00 275774 N 0 0 0
0:00:00.00 276014 N 0 0 0
0:00:00.00 276246 N 0 0 0
0:00:00.00 276466 N 0 0 0
0:00:00.00 276685 N 0 0 0
0:00:00.00 276903 N 0 0 0
0:00:00.00 277123 N 0 0 0
0:00:00.00 277346 N 0 0 0
0:00:00.00 277587 N 0 0 0
0:00:00.00 277862 N 0 0 0
0:00:00.00 278123 N 0 0 0
0:00:00.00 278381 N 0 0 0
0:00:00.00 278626 N 0 0 0
0:00:00.00 278854 N 0 0 0
0:00:00.00 279063 N 0 0 0
0:00:00.00 279279 N 0 0 0
0:00:00.00 279495 N 0 0 0
0:00:00.00 279711 N 0 0 0
0:00:00.00 279940 N 0 0 0
0:00:00.00 280188 N 0 0 0
0:00:00.00 280454 N 0 0 0
0:00:00.00 280721 N 0 0 0
0:00:00.00 280964 N 0 0 0
0:00:00.00 281205 N 0 0 0
0:00:00.00 281450 N 0 0 0
0:00:00.00 281689 N 0 0 0
0:00:00.00 281932 N 0 0 0
0:00:00.00 282188 N 0 0 0
0:00:00.00 282438 N 0 0 0
0:00:00.00 282679 N 0 0 0
0:00:00.00 282919 N 0 0 0
0:00:00.00 283163 N 0 0 0
0:00:00.00 283399 N 0 0 0
0:00:00.00 283630 N 0 0 0
0:00:00.00 283864 N 0 0 0
0:00:00.00 284103 N 0 0 0
0:00:00.00 284342 N 0 0 0
0:00:00.00 284593 N 0 0 0
0:00:00.00 284837 N 0 0 0
0:00:00.00 285080 N 0 0 0
0:00:00.00 285298 N 0 0 0
0:00:00.00 285529 N 0 0 0
0:00:00.00 285759 N 0 0 0
0:00:00.00 285991 N 0 0 0
0:00:00.00 286222 N 0 0 0
0:00:00.00 286465 N 0 0 0
0:00:00.00 286700 N 0 0 0
0:00:00.00 286938 N 0 0 0
0:00:00.00 287165 N 0 0 0
0:00:00.00 287395 N 0 0 0
0:00:00.00 287635 N 0 0 0
0:00:00.00 287867 N 0 0 0
0:00:00.00 288088 N 0 0 0
0:00:00.00 288306 N 0 0 0
0:00:00.00 288535 N 0 0 0
0:00:00.00 288767 N 0 0 0
0:00:00.00 289004 N 0 0 0
0:00:00.00 289238 N 0 0 0
0:00:00.00 289478 N 0 0 0
0:00:00.00 289723 N 0 0 0
0:00:00.00 289948 N 0 0 0
0:00:00.00 290174 N 0 0 0
0:00:00.00 290410 N 0 0 0
0:00:00.00 290648 N 0 0 0
0:00:00.00 290887 N 0 0 0
0:00:00.00 291116 N 0 0 0
0:00:00.00 291352 N 0 0 0
0:00:00.00 291575 N 0 0 0
0:00:00.00 291791 N 0 0 0
0:00:00.00 292001 N 0 0 0
0:00:00.00 292212 N 0 0 0
0:00:00.00 292410 N 0 0 0
0:00:00.00 292621 N 0 0 0
0:00:00.00 292831 N 0 0 0
0:00:00.00 293058 N 0 0 0
0:00:00.00 293292 N 0 0 0
0:00:00.00 293513 N 0 0 0
0:00:00.00 293737 N 0 0 0
0:00:00.00 293956 N 0 0 0
0:00:00.00 294167 N 0 0 0
0:00:00.00 294383 N 0 0 0
0:00:00.00 294601 N 0 0 0
0:00:00.00 294829 N 0 0 0
0:00:00.00 295058 N 0 0 0
0:00:00.00 295288 N 0 0 0
0:00:00.00 295524 N 0 0 0
0:00:00.00 295760 N 0 0 0
0:00:00.00 295983 N 0 0 0
0:00:00.00 296217 N 0 0 0
0:00:00.00 296440 N 0 0 0
0:00:00.00 296658 N 0 0 0
0:00:00.00 296878 N 0 0 0
0:00:00.00 297106 N 0 0 0
0:00:00.00 297344 N 0 0 0
0:00:00.00 297587 N 0 0 0
0:00:00.00 297821 N 0 0 0
0:00:00.00 298048 N 0 0 0
0:00:00.00 298278 N 0 0 0
0:00:00.00 298498 N 0 0 0
0:00:00.00 298715 N 0 0 0
0:00:00.00 298949 N 0 0 0
0:00:00.00 299185 N 0 0 0
0:00:00.00 299428 N 0 0 0
0:00:00.00 299660 N 0 0 0
0:00:00.00 299893 N 0 0 0
0:00:00.00 300128 N 0 0 0
0:00:00.00 300353 N 0 0 0
0:00:00.00 300577 N 0 0 0
0:00:00.00 300798 N 0 0 0
0:00:00.00 301018 N 0 0 0
0:00:00.00 301243 N 0 0 0
0:00:00.00 301473 N 0 0 0
0:00:00.00 301712 N 0 0 0
0:00:00.00 301950 N 0 0 0
0:00:00.00 302184 N 0 0 0
0:00:00.00 302405 N 0 0 0
0:00:00.00 302623 N 0 0 0
0:00:00.00 302841 N 0 0 0
0:00:00.00 303055 N 0 0 0
0:00:00.00 303280 N 0 0 0
0:00:00.00 303525 N 0 0 0
0:00:00.00 303782 N 0 0 0
0:00:00.00 304038 N 0 0 0
0:00:00.00 304276 N 0 0 0
0:00:00.00 304502 N 0 0 0
0:00:00.00 304724 N 0 0 0
0:00:00.00 304942 N 0 0 0
0:00:00.00 305158 N 0 0 0
0:00:00.00 305374 N 0 0 0
0:00:00.00 305609 N 0 0 0
0:00:00.00 305863 N 0 0 0
0:00:00.00 306130 N 0 0 0
0:00:00.00 306383 N 0 0 0
0:00:00.00 306630 N 0 0 0
0:00:00.00 306877 N 0 0 0
0:00:00.00 307109 N 0 0 0
0:00:00.00 307339 N 0 0 0
0:00:00.00 307575 N 0 0 0
0:00:00.00 307805 N 0 0 0
0:00:00.00 308048 N 0 0 0
0:00:00.00 308293 N 0 0 0
0:00:00.00 308529 N 0 0 0
0:00:00.00 308770 N 0 0 0
0:00:00.00 309004 N 0 0 0
0:00:00.00 309242 N 0 0 0
0:00:00.00 309470 N 0 0 0
0:00:00.00 309699 N 0 0 0
0:00:00.00 309928 N 0 0 0
0:00:00.00 310171 N 0 0 0
0:00:00.00 310415 N 0 0 0
0:00:00.00 310655 N 0 0 0
0:00:00.00 310896 N 0 0 0
0:00:00.00 311121 N 0 0 0
0:00:00.00 311348 N 0 0 0
0:00:00.00 311576 N 0 0 0
0:00:00.00 311798 N 0 0 0
0:00:00.00 312025 N 0 0 0
0:00:00.00 312262 N 0 0 0
0:00:00.00 312496 N 0 0 0
0:00:00.00 312725 N 0 0 0
0:00:00.00 312957 N 0 0 0
0:00:00.00 313189 N 0 0 0
0:00:00.00 313414 N 0 0 0
0:00:00.00 313632 N 0 0 0
0:00:00.00 313855 N 0 0 0
0:00:00.00 314080 N 0 0 0
0:00:00.00 314312 N 0 0 0
0:00:00.00 314541 N 0 0 0
0:00:00.00 314789 N 0 0 0
0:00:00.00 315041 N 0 0 0
0:00:00.00 315277 N 0 0 0
0:00:00.00 315497 N 0 0 0
0:00:00.00 315711 N 0 0 0
0:00:00.00 315931 N 0 0 0
0:00:00.00 316152 N 0 0 0
0:00:00.00 316377 N 0 0 0
0:00:00.00 316611 N 0 0 0
0:00:00.00 316847 N 0 0 0
0:00:00.00 317099 N 0 0 0
0:00:00.00 317360 N 0 0 0
0:00:00.00 317597 N 0 0 0
0:00:00.00 317835 N 0 0 0
0:00:00.00 318067 N 0 0 0
0:00:00.00 318287 N 0 0 0
0:00:00.00 318506 N 0 0 0
0:00:00.00 318731 N 0 0 0
0:00:00.00 318964 N 0 0 0
0:00:00.00 319214 N 0 0 0
0:00:00.00 319455 N 0 0 0
0:00:00.00 319689 N 0 0 0
0:00:00.00 319905 N 0 0 0
0:00:00.00 320121 N 0 0 0
0:00:00.00 320350 N 0 0 0
0:00:00.00 320591 N 0 0 0
0:00:00.00 320843 N 0 0 0
0:00:00.00 321102 N 0 0 0
0:00:00.00 321358 N 0 0 0
0:00:00.00 321592 N 0 0 0
0:00:00.00 321826 N 0 0 0
0:00:00.00 322061 N 0 0 0
0:00:00.00 322299 N 0 0 0
0:00:00.00 322544 N 0 0 0
0:00:00.00 322778 N 0 0 0
0:00:00.00 323021 N 0 0 0
0:00:00.00 323260 N 0 0 0
0:00:00.00 323494 N 0 0 0
0:00:00.00 323725 N 0 0 0
0:00:00.00 323957 N 0 0 0
0:00:00.00 324189 N 0 0 0
0:00:00.00 324412 N 0 0 0
0:00:00.00 324628 N 0 0 0
0:00:00.00 324850 N 0 0 0
0:00:00.00 325094 N 0 0 0
0:00:00.00 325354 N 0 0 0
0:00:00.00 325611 N 0 0 0
0:00:00.00 325850 N 0 0 0
0:00:00.00 326084 N 0 0 0
0:00:00.00 326309 N 0 0 0
0:00:00.00 326533 N 0 0 0
0:00:00.00 326759 N 0 0 0
0:00:00.00 326993 N 0 0 0
0:00:00.00 327240 N 0 0 0
0:00:00.00 327479 N 0 0 0
0:00:00.00 327733 N 0 0 0
0:00:00.00 327994 N 0 0 0
0:00:00.00 328243 N 0 0 0
0:00:00.00 328482 N 0 0 0
0:00:00.00 328702 N 0 0 0
0:00:00.00 328925 N 0 0 0
0:00:00.00 329146 N 0 0 0
0:00:00.00 329391 N 0 0 0
0:00:00.00 329648 N 0 0 0
0:00:00.00 329904 N 0 0 0
0:00:00.00 330152 N 0 0 0
0:00:00.00 330390 N 0 0 0
0:00:00.00 330622 N 0 0 0
0:00:00.00 330851 N 0 0 0
0:00:00.00 331070 N 0 0 0
0:00:00.00 331288 N 0 0 0
0:00:00.00 331519 N 0 0 0
0:00:00.00 331765 N 0 0 0
0:00:00.00 332021 N 0 0 0
0:00:00.00 332284 N 0 0 0
0:00:00.00 332539 N 0 0 0
0:00:00.00 332766 N 0 0 0
0:00:00.00 332998 N 0 0 0
0:00:00.00 333229 N 0 0 0
0:00:00.00 333457 N 0 0 0
0:00:00.00 333702 N 0 0 0
0:00:00.00 333941 N 0 0 0
0:00:00.00 334170 N 0 0 0
0:00:00.00 334404 N 0 0 0
0:00:00.00 334638 N 0 0 0
0:00:00.00 334863 N 0 0 0
0:00:00.00 335093 N 0 0 0
0:00:00.00 335324 N 0 0 0
0:00:00.00 335552 N 0 0 0
0:00:00.00 335783 N 0 0 0
0:00:00.00 336022 N 0 0 0
0:00:00.00 336283 N 0 0 0
0:00:00.00 336553 N 0 0 0
0:00:00.00 336802 N 0 0 0
0:00:00.00 337030 N 0 0 0
0:00:00.00 337257 N 0 0 0
0:00:00.00 337477 N 0 0 0
0:00:00.00 337693 N 0 0 0
0:00:00.00 337916 N 0 0 0
0:00:00.00 338137 N 0 0 0
0:00:00.00 338364 N 0 0 0
0:00:00.00 338591 N 0 0 0
0:00:00.00 338828 N 0 0 0
0:00:00.00 339084 N 0 0 0
0:00:00.00 339338 N 0 0 0
0:00:00.00 339579 N 0 0 0
0:00:00.00 339813 N 0 0 0
0:00:00.00 340042 N 0 0 0
0:00:00.00 340277 N 0 0 0
0:00:00.00 340519 N 0 0 0
0:00:00.00 340769 N 0 0 0
0:00:00.00 341021 N 0 0 0
0:00:00.00 341267 N 0 0 0
0:00:00.00 341494 N 0 0 0
0:00:00.00 341707 N 0 0 0
0:00:00.00 341932 N 0 0 0
0:00:00.00 342166 N 0 0 0
0:00:00.00 342412 N 0 0 0
0:00:00.00 342664 N 0 0 0
0:00:00.00 342909 N 0 0 0
0:00:00.00 343161 N 0 0 0
0:00:00.00 343406 N 0 0 0
0:00:00.00 343652 N 0 0 0
0:00:00.00 343892 N 0 0 0
0:00:00.00 344124 N 0 0 0
0:00:00.00 344347 N 0 0 0
0:00:00.00 344567 N 0 0 0
0:00:00.00 344803 N 0 0 0
0:00:00.00 345053 N 0 0 0
0:00:00.00 345305 N 0 0 0
0:00:00.00 345550 N 0 0 0
0:00:00.00 345785 N 0 0 0
0:00:00.00 346021 N 0 0 0
0:00:00.00 346259 N 0 0 0
0:00:00.00 346502 N 0 0 0
0:00:00.00 346752 N 0 0 0
0:00:00.00 346990 N 0 0 0
0:00:00.00 347227 N 0 0 0
0:00:00.00 347461 N 0 0 0
0:00:00.00 347701 N 0 0 0
0:00:00.00 347931 N 0 0 0
0:00:00.00 348149 N 0 0 0
0:00:00.00 348377 N 0 0 0
0:00:00.00 348624 N 0 0 0
0:00:00.00 348890 N 0 0 0
0:00:00.00 349155 N 0 0 0
0:00:00.00 349414 N 0 0 0
0:00:00.00 349664 N 0 0 0
0:00:00.00 349906 N 0 0 0
0:00:00.00 350141 N 0 0 0
0:00:00.00 350365 N 0 0 0
0:00:00.00 350590 N 0 0 0
0:00:00.00 350831 N 0 0 0
0:00:00.00 351092 N 0 0 0
0:00:00.00 351367 N 0 0 0
0:00:00.00 351646 N 0 0 0
0:00:00.00 351898 N 0 0 0
0:00:00.00 352145 N 0 0 0
0:00:00.00 352390 N 0 0 0
0:00:00.00 352636 N 0 0 0
0:00:00.00 352859 N 0 0 0
0:00:00.00 353079 N 0 0 0
0:00:00.00 353317 N 0 0 0
0:00:00.00 353560 N 0 0 0
0:00:00.00 353817 N 0 0 0
0:00:00.00 354062 N 0 0 0
0:00:00.00 354308 N 0 0 0
0:00:00.00 354577 N 0 0 0
0:00:00.00 354848 N 0 0 0
0:00:00.00 355108 N 0 0 0
0:00:00.00 355356 N 0 0 0
0:00:00.00 355597 N 0 0 0
0:00:00.00 355837 N 0 0 0
0:00:00.00 356072 N 0 0 0
0:00:00.00 356310 N 0 0 0
0:00:00.00 356542 N 0 0 0
0:00:00.00 356769 N 0 0 0
0:00:00.00 357019 N 0 0 0
0:00:00.00 357277 N 0 0 0
0:00:00.00 357545 N 0 0 0
0:00:00.00 357802 N 0 0 0
0:00:00.00 358069 N 0 0 0
0:00:00.00 358344 N 0 0 0
0:00:00.00 358600 N 0 0 0
0:00:00.00 358846 N 0 0 0
0:00:00.00 359068 N 0 0 0
0:00:00.00 359294 N 0 0 0
0:00:00.00 359532 N 0 0 0
0:00:00.00 359775 N 0 0 0
0:00:00.00 360014 N 0 0 0
0:00:00.00 360256 N 0 0 0
0:00:00.00 360502 N 0 0 0
0:00:00.00 360743 N 0 0 0
0:00:00.00 360988 N 0 0 0
0:00:00.00 361220 N 0 0 0
0:00:00.00 361460 N 0 0 0
0:00:00.00 361715 N 0 0 0
0:00:00.00 361966 N 0 0 0
0:00:00.00 362218 N 0 0 0
0:00:00.00 362482 N 0 0 0
0:00:00.00 362738 N 0 0 0
0:00:00.00 362972 N 0 0 0
0:00:00.00 363197 N 0 0 0
0:00:00.00 363436 N 0 0 0
0:00:00.00 363672 N 0 0 0
0:00:00.00 363910 N 0 0 0
0:00:00.00 364147 N 0 0 0
0:00:00.00 364387 N 0 0 0
0:00:00.00 364635 N 0 0 0
0:00:00.00 364865 N 0 0 0
0:00:00.00 365098 N 0 0 0
0:00:00.00 365326 N 0 0 0
0:00:00.00 365562 N 0 0 0
0:00:00.00 365810 N 0 0 0
0:00:00.00 366046 N 0 0 0
0:00:00.00 366277 N 0 0 0
0:00:00.00 366514 N 0 0 0
0:00:00.00 366748 N 0 0 0
0:00:00.00 366971 N 0 0 0
0:00:00.00 367195 N 0 0 0
0:00:00.00 367394 N 0 0 0
0:00:00.00 367596 N 0 0 0
0:00:00.00 367801 N 0 0 0
0:00:00.00 368030 N 0 0 0
0:00:00.00 368267 N 0 0 0
0:00:00.00 368512 N 0 0 0
0:00:00.00 368755 N 0 0 0
0:00:00.00 368993 N 0 0 0
0:00:00.00 369225 N 0 0 0
0:00:00.00 369448 N 0 0 0
0:00:00.00 369673 N 0 0 0
0:00:00.00 369880 N 0 0 0
0:00:00.00 370087 N 0 0 0
0:00:00.00 370316 N 0 0 0
0:00:00.00 370546 N 0 0 0
0:00:00.00 370789 N 0 0 0
0:00:00.00 371048 N 0 0 0
0:00:00.00 371297 N 0 0 0
0:00:00.00 371538 N 0 0 0
0:00:00.00 371763 N 0 0 0
0:00:00.00 372002 N 0 0 0
0:00:00.00 372245 N 0 0 0
0:00:00.00 372494 N 0 0 0
0:00:00.00 372748 N 0 0 0
0:00:00.00 373000 N 0 0 0
0:00:00.00 373239 N 0 0 0
0:00:00.00 373460 N 0 0 0
0:00:00.00 373678 N 0 0 0
0:00:00.00 373891 N 0 0 0
0:00:00.00 374098 N 0 0 0
0:00:00.00 374308 N 0 0 0
0:00:00.00 374526 N 0 0 0
0:00:00.00 374762 N 0 0 0
0:00:00.00 375008 N 0 0 0
0:00:00.00 375246 N 0 0 0
0:00:00.00 375489 N 0 0 0
0:00:00.00 375736 N 0 0 0
0:00:00.00 375968 N 0 0 0
0:00:00.00 376187 N 0 0 0
0:00:00.00 376407 N 0 0 0
0:00:00.00 376623 N 0 0 0
0:00:00.00 376843 N 0 0 0
0:00:00.00 377069 N 0 0 0
0:00:00.00 377302 N 0 0 0
0:00:00.00 377527 N 0 0 0
0:00:00.00 377757 N 0 0 0
0:00:00.00 377993 N 0 0 0
0:00:00.00 378223 N 0 0 0
0:00:00.00 378454 N 0 0 0
0:00:00.00 378682 N 0 0 0
0:00:00.00 378909 N 0 0 0
0:00:00.00 379138 N 0 0 0
0:00:00.00 379377 N 0 0 0
0:00:00.00 379631 N 0 0 0
0:00:00.00 379870 N 0 0 0
0:00:00.00 380106 N 0 0 0
0:00:00.00 380335 N 0 0 0
0:00:00.00 380556 N 0 0 0
0:00:00.00 380776 N 0 0 0
0:00:00.00 380993 N 0 0 0
0:00:00.00 381222 N 0 0 0
0:00:00.00 381461 N 0 0 0
0:00:00.00 381695 N 0 0 0
0:00:00.00 381920 N 0 0 0
0:00:00.00 382149 N 0 0 0
0:00:00.00 382378 N 0 0 0
0:00:00.00 382597 N 0 0 0
0:00:00.00 382808 N 0 0 0
0:00:00.00 383024 N 0 0 0
0:00:00.00 383247 N 0 0 0
0:00:00.00 383477 N 0 0 0
0:00:00.00 383704 N 0 0 0
0:00:00.00 383944 N 0 0 0
0:00:00.00 384187 N 0 0 0
0:00:00.00 384424 N 0 0 0
0:00:00.00 384669 N 0 0 0
0:00:00.00 384905 N 0 0 0
0:00:00.00 385128 N 0 0 0
0:00:00.00 385349 N 0 0 0
0:00:00.00 385560 N 0 0 0
0:00:00.00 385781 N 0 0 0
0:00:00.00 385990 N 0 0 0
0:00:00.00 386206 N 0 0 0
0:00:00.00 386431 N 0 0 0
0:00:00.00 386651 N 0 0 0
0:00:00.00 386876 N 0 0 0
0:00:00.00 387103 N 0 0 0
0:00:00.00 387329 N 0 0 0
0:00:00.00 387560 N 0 0 0
0:00:00.00 387788 N 0 0 0
0:00:00.00 388026 N 0 0 0
0:00:00.00 388271 N 0 0 0
0:00:00.00 388508 N 0 0 0
0:00:00.00 388739 N 0 0 0
0:00:00.00 388962 N 0 0 0
0:00:00.00 389178 N 0 0 0
0:00:00.00 389398 N 0 0 0
0:00:00.00 389621 N 0 0 0
0:00:00.00 389840 N 0 0 0
0:00:00.00 390074 N 0 0 0
0:00:00.00 390310 N 0 0 0
0:00:00.00 390541 N 0 0 0
0:00:00.00 390771 N 0 0 0
0:00:00.00 391001 N 0 0 0
0:00:00.00 391225 N 0 0 0
0:00:00.00 391448 N 0 0 0
0:00:00.00 391667 N 0 0 0
0:00:00.00 391891 N 0 0 0
0:00:00.00 392121 N 0 0 0
0:00:00.00 392350 N 0 0 0
0:00:00.00 392585 N 0 0 0
0:00:00.00 392812 N 0 0 0
0:00:00.00 393026 N 0 0 0
0:00:00.00 393239 N 0 0 0
0:00:00.00 393457 N 0 0 0
0:00:00.00 393669 N 0 0 0
0:00:00.00 393890 N 0 0 0
0:00:00.00 394117 N 0 0 0
0:00:00.00 394353 N 0 0 0
0:00:00.00 394585 N 0 0 0
0:00:00.00 394826 N 0 0 0
0:00:00.00 395075 N 0 0 0
0:00:00.00 395314 N 0 0 0
0:00:00.00 395548 N 0 0 0
0:00:00.00 395795 N 0 0 0
0:00:00.00 396050 N 0 0 0
0:00:00.00 396297 N 0 0 0
0:00:00.00 396545 N 0 0 0
0:00:00.00 396805 N 0 0 0
0:00:00.00 397055 N 0 0 0
0:00:00.00 397316 N 0 0 0
0:00:00.00 397566 N 0 0 0
0:00:00.00 397809 N 0 0 0
0:00:00.00 398043 N 0 0 0
0:00:00.00 398273 N 0 0 0
0:00:00.00 398520 N 0 0 0
0:00:00.00 398786 N 0 0 0
0:00:00.00 399055 N 0 0 0
0:00:00.00 399305 N 0 0 0
0:00:00.00 399546 N 0 0 0
0:00:00.00 399787 N 0 0 0
0:00:00.00 400023 N 0 0 0
0:00:00.00 400259 N 0 0 0
0:00:00.00 400482 N 0 0 0
0:00:00.00 400707 N 0 0 0
0:00:00.00 400948 N 0 0 0
0:00:00.00 401197 N 0 0 0
0:00:00.00 401445 N 0 0 0
0:00:00.00 401704 N 0 0 0
0:00:00.00 401951 N 0 0 0
0:00:00.00 402190 N 0 0 0
0:00:00.00 402419 N 0 0 0
0:00:00.00 402656 N 0 0 0
0:00:00.00 402894 N 0 0 0
0:00:00.00 403139 N 0 0 0
0:00:00.00 403376 N 0 0 0
0:00:00.00 403618 N 0 0 0
0:00:00.00 403862 N 0 0 0
0:00:00.00 404104 N 0 0 0
0:00:00.00 404338 N 0 0 0
0:00:00.00 404579 N 0 0 0
0:00:00.00 404809 N 0 0 0
0:00:00.00 405041 N 0 0 0
0:00:00.00 405279 N 0 0 0
0:00:00.00 405527 N 0 0 0
0:00:00.00 405767 N 0 0 0
0:00:00.00 406004 N 0 0 0
0:00:00.00 406233 N 0 0 0
0:00:00.00 406458 N 0 0 0
0:00:00.00 406685 N 0 0 0
0:00:00.00 406915 N 0 0 0
0:00:00.00 407162 N 0 0 0
0:00:00.00 407416 N 0 0 0
0:00:00.00 407662 N 0 0 0
0:00:00.00 407911 N 0 0 0
0:00:00.00 408157 N 0 0 0
0:00:00.00 408407 N 0 0 0
0:00:00.00 408645 N 0 0 0
0:00:00.00 408875 N 0 0 0
0:00:00.00 409100 N 0 0 0
0:00:00.00 409329 N 0 0 0
0:00:00.00 409568 N 0 0 0
0:00:00.00 409802 N 0 0 0
0:00:00.00 410044 N 0 0 0
0:00:00.00 410281 N 0 0 0
0:00:00.00 410510 N 0 0 0
0:00:00.00 410747 N 0 0 0
0:00:00.00 410980 N 0 0 0
0:00:00.00 411221 N 0 0 0
0:00:00.00 411475 N 0 0 0
0:00:00.00 411725 N 0 0 0
0:00:00.00 411970 N 0 0 0
0:00:00.00 412214 N 0 0 0
0:00:00.00 412454 N 0 0 0
0:00:00.00 412681 N 0 0 0
0:00:00.00 412909 N 0 0 0
0:00:00.00 413140 N 0 0 0
0:00:00.00 413365 N 0 0 0
0:00:00.00 413600 N 0 0 0
0:00:00.00 413838 N 0 0 0
0:00:00.00 414095 N 0 0 0
0:00:00.00 414356 N 0 0 0
0:00:00.00 414599 N 0 0 0
0:00:00.00 414839 N 0 0 0
0:00:00.00 415076 N 0 0 0
0:00:00.00 415307 N 0 0 0
0:00:00.00 415537 N 0 0 0
0:00:00.00 415775 N 0 0 0
0:00:00.00 416021 N 0 0 0
0:00:00.00 416270 N 0 0 0
0:00:00.00 416518 N 0 0 0
0:00:00.00 416759 N 0 0 0
0:00:00.00 417006 N 0 0 0
0:00:00.00 417244 N 0 0 0
0:00:00.00 417478 N 0 0 0
0:00:00.00 417712 N 0 0 0
0:00:00.00 417958 N 0 0 0
0:00:00.00 418212 N 0 0 0
0:00:00.00 418466 N 0 0 0
0:00:00.00 418707 N 0 0 0
0:00:00.00 418937 N 0 0 0
0:00:00.00 419157 N 0 0 0
0:00:00.00 419371 N 0 0 0
0:00:00.00 419585 N 0 0 0
0:00:00.00 419807 N 0 0 0
0:00:00.00 420028 N 0 0 0
0:00:00.00 420262 N 0 0 0
0:00:00.00 420498 N 0 0 0
0:00:00.00 420750 N 0 0 0
0:00:00.00 420997 N 0 0 0
0:00:00.00 421231 N 0 0 0
0:00:00.00 421466 N 0 0 0
0:00:00.00 421700 N 0 0 0
0:00:00.00 421920 N 0 0 0
0:00:00.00 422140 N 0 0 0
0:00:00.00 422365 N 0 0 0
0:00:00.00 422600 N 0 0 0
0:00:00.00 422836 N 0 0 0
0:00:00.00 423068 N 0 0 0
0:00:00.00 423299 N 0 0 0
0:00:00.00 423518 N 0 0 0
0:00:00.00 423747 N 0 0 0
0:00:00.00 423972 N 0 0 0
0:00:00.00 424206 N 0 0 0
0:00:00.00 424447 N 0 0 0
0:00:00.00 424687 N 0 0 0
0:00:00.00 424935 N 0 0 0
0:00:00.00 425178 N 0 0 0
0:00:00.00 425425 N 0 0 0
0:00:00.00 425660 N 0 0 0
0:00:00.00 425887 N 0 0 0
0:00:00.00 426112 N 0 0 0
0:00:00.00 426334 N 0 0 0
0:00:00.00 426562 N 0 0 0
0:00:00.00 426798 N 0 0 0
0:00:00.00 427054 N 0 0 0
0:00:00.00 427298 N 0 0 0
0:00:00.00 427545 N 0 0 0
0:00:00.00 427788 N 0 0 0
0:00:00.00 428026 N 0 0 0
0:00:00.00 428260 N 0 0 0
0:00:00.00 428497 N 0 0 0
0:00:00.00 428733 N 0 0 0
0:00:00.00 428976 N 0 0 0
0:00:00.00 429217 N 0 0 0
0:00:00.00 429466 N 0 0 0
0:00:00.00 429714 N 0 0 0
0:00:00.00 429953 N 0 0 0
0:00:00.00 430200 N 0 0 0
0:00:00.00 430438 N 0 0 0
0:00:00.00 430679 N 0 0 0
0:00:00.00 430916 N 0 0 0
0:00:00.00 431174 N 0 0 0
0:00:00.00 431429 N 0 0 0
0:00:00.00 431674 N 0 0 0
0:00:00.00 431905 N 0 0 0
0:00:00.00 432124 N 0 0 0
0:00:00.00 432338 N 0 0 0
0:00:00.00 432556 N 0 0 0
0:00:00.00 432779 N 0 0 0
0:00:00.00 433010 N 0 0 0
0:00:00.00 433253 N 0 0 0
0:00:00.00 433507 N 0 0 0
0:00:00.00 433750 N 0 0 0
0:00:00.00 433996 N 0 0 0
0:00:00.00 434237 N 0 0 0
0:00:00.00 434461 N 0 0 0
0:00:00.00 434675 N 0 0 0
0:00:00.00 434894 N 0 0 0
0:00:00.00 435125 N 0 0 0
0:00:00.00 435361 N 0 0 0
0:00:00.00 435596 N 0 0 0
0:00:00.00 435839 N 0 0 0
0:00:00.00 436097 N 0 0 0
0:00:00.00 436334 N 0 0 0
0:00:00.00 436563 N 0 0 0
0:00:00.00 436801 N 0 0 0
0:00:00.00 437044 N 0 0 0
0:00:00.00 437285 N 0 0 0
0:00:00.00 437540 N 0 0 0
0:00:00.00 437796 N 0 0 0
0:00:00.00 438046 N 0 0 0
0:00:00.00 438304 N 0 0 0
0:00:00.00 438554 N 0 0 0
0:00:00.00 438793 N 0 0 0
0:00:00.00 439025 N 0 0 0
0:00:00.00 439261 N 0 0 0
0:00:00.00 439495 N 0 0 0
0:00:00.00 439736 N 0 0 0
0:00:00.00 439994 N 0 0 0
0:00:00.00 440251 N 0 0 0
0:00:00.00 440505 N 0 0 0
0:00:00.00 440737 N 0 0 0
0:00:00.00 440980 N 0 0 0
0:00:00.00 441220 N 0 0 0
0:00:00.00 441452 N 0 0 0
0:00:00.00 441688 N 0 0 0
0:00:00.00 441945 N 0 0 0
0:00:00.00 442192 N 0 0 0
0:00:00.00 442435 N 0 0 0
0:00:00.00 442685 N 0 0 0
0:00:00.00 442928 N 0 0 0
0:00:00.00 443162 N 0 0 0
0:00:00.00 443396 N 0 0 0
0:00:00.00 443630 N 0 0 0
0:00:00.00 443876 N 0 0 0
0:00:00.00 444123 N 0 0 0
0:00:00.00 444377 N 0 0 0
0:00:00.00 444636 N 0 0 0
0:00:00.00 444888 N 0 0 0
0:00:00.00 445124 N 0 0 0
0:00:00.00 445356 N 0 0 0
0:00:00.00 445579 N 0 0 0
0:00:00.00 445808 N 0 0 0
0:00:00.00 446026 N 0 0 0
0:00:00.00 446252 N 0 0 0
0:00:00.00 446476 N 0 0 0
0:00:00.00 446711 N 0 0 0
0:00:00.00 446956 N 0 0 0
0:00:00.00 447185 N 0 0 0
0:00:00.00 447404 N 0 0 0
0:00:00.00 447635 N 0 0 0
0:00:00.00 447865 N 0 0 0
0:00:00.00 448092 N 0 0 0
0:00:00.00 448324 N 0 0 0
0:00:00.00 448574 N 0 0 0
0:00:00.00 448834 N 0 0 0
0:00:00.00 449077 N 0 0 0
0:00:00.00 449312 N 0 0 0
0:00:00.00 449548 N 0 0 0
0:00:00.00 449789 N 0 0 0
0:00:00.00 450020 N 0 0 0
0:00:00.00 450252 N 0 0 0
0:00:00.00 450499 N 0 0 0
0:00:00.00 450740 N 0 0 0
0:00:00.00 450977 N 0 0 0
0:00:00.00 451219 N 0 0 0
0:00:00.00 451460 N 0 0 0
0:00:00.00 451699 N 0 0 0
0:00:00.00 451931 N 0 0 0
0:00:00.00 452173 N 0 0 0
0:00:00.00 452403 N 0 0 0
0:00:00.00 452644 N 0 0 0
0:00:00.00 452884 N 0 0 0
0:00:00.00 453128 N 0 0 0
0:00:00.00 453370 N 0 0 0
0:00:00.00 453600 N 0 0 0
0:00:00.00 453827 N 0 0 0
0:00:00.00 454052 N 0 0 0
0:00:00.00 454282 N 0 0 0
0:00:00.00 454522 N 0 0 0
0:00:00.00 454768 N 0 0 0
0:00:00.00 455009 N 0 0 0
0:00:00.00 455252 N 0 0 0
0:00:00.00 455501 N 0 0 0
0:00:00.00 455742 N 0 0 0
0:00:00.00 455981 N 0 0 0
0:00:00.00 456210 N 0 0 0
0:00:00.00 456440 N 0 0 0
0:00:00.00 456673 N 0 0 0
0:00:00.00 456903 N 0 0 0
0:00:00.00 457151 N 0 0 0
0:00:00.00 457403 N 0 0 0
0:00:00.00 457643 N 0 0 0
0:00:00.00 457880 N 0 0 0
0:00:00.00 458120 N 0 0 0
0:00:00.00 458352 N 0 0 0
0:00:00.00 458577 N 0 0 0
0:00:00.00 458811 N 0 0 0
0:00:00.00 459056 N 0 0 0
0:00:00.00 459293 N 0 0 0
0:00:00.00 459531 N 0 0 0
0:00:00.00 459769 N 0 0 0
0:00:00.00 460008 N 0 0 0
0:00:00.00 460240 N 0 0 0
0:00:00.00 460465 N 0 0 0
0:00:00.00 460692 N 0 0 0
0:00:00.00 460926 N 0 0 0
0:00:00.00 461167 N 0 0 0
0:00:00.00 461401 N 0 0 0
0:00:00.00 461644 N 0 0 0
0:00:00.00 461887 N 0 0 0
0:00:00.00 462119 N 0 0 0
0:00:00.00 462350 N 0 0 0
0:00:00.00 462575 N 0 0 0
0:00:00.00 462800 N 0 0 0
0:00:00.00 463028 N 0 0 0
0:00:00.00 463262 N 0 0 0
0:00:00.00 463509 N 0 0 0
0:00:00.00 463750 N 0 0 0
0:00:00.00 463997 N 0 0 0
0:00:00.00 464245 N 0 0 0
0:00:00.00 464488 N 0 0 0
0:00:00.00 464719 N 0 0 0
0:00:00.00 464947 N 0 0 0
0:00:00.00 465179 N 0 0 0
0:00:00.00 465412 N 0 0 0
0:00:00.00 465662 N 0 0 0
0:00:00.00 465923 N 0 0 0
0:00:00.00 466178 N 0 0 0
0:00:00.00 466421 N 0 0 0
0:00:00.00 466652 N 0 0 0
0:00:00.00 466877 N 0 0 0
0:00:00.00 467102 N 0 0 0
0:00:00.00 467329 N 0 0 0
0:00:00.00 467559 N 0 0 0
0:00:00.00 467797 N 0 0 0
0:00:00.00 468054 N 0 0 0
0:00:00.00 468297 N 0 0 0
0:00:00.00 468547 N 0 0 0
0:00:00.00 468797 N 0 0 0
0:00:00.00 469039 N 0 0 0
0:00:00.00 469273 N 0 0 0
0:00:00.00 469505 N 0 0 0
0:00:00.00 469748 N 0 0 0
0:00:00.00 469985 N 0 0 0
0:00:00.00 470230 N 0 0 0
0:00:00.00 470486 N 0 0 0
0:00:00.00 470738 N 0 0 0
0:00:00.00 470981 N 0 0 0
0:00:00.00 471213 N 0 0 0
0:00:00.00 471452 N 0 0 0
0:00:00.00 471699 N 0 0 0
0:00:00.00 471940 N 0 0 0
0:00:00.00 472190 N 0 0 0
0:00:00.00 472453 N 0 0 0
0:00:00.00 472703 N 0 0 0
0:00:00.00 472945 N 0 0 0
0:00:00.00 473186 N 0 0 0
0:00:00.00 473431 N 0 0 0
0:00:00.00 473657 N 0 0 0
0:00:00.00 473895 N 0 0 0
0:00:00.00 474138 N 0 0 0
0:00:00.00 474386 N 0 0 0
0:00:00.00 474637 N 0 0 0
0:00:00.00 474887 N 0 0 0
0:00:00.00 475132 N 0 0 0
0:00:00.00 475371 N 0 0 0
0:00:00.00 475616 N 0 0 0
0:00:00.00 475862 N 0 0 0
0:00:00.00 476100 N 0 0 0
0:00:00.00 476347 N 0 0 0
0:00:00.00 476602 N 0 0 0
0:00:00.00 476858 N 0 0 0
0:00:00.00 477101 N 0 0 0
0:00:00.00 477347 N 0 0 0
0:00:00.00 477592 N 0 0 0
0:00:00.00 477823 N 0 0 0
0:00:00.00 478048 N 0 0 0
0:00:00.00 478287 N 0 0 0
0:00:00.00 478539 N 0 0 0
0:00:00.00 478786 N 0 0 0
0:00:00.00 479041 N 0 0 0
0:00:00.00 479297 N 0 0 0
0:00:00.00 479540 N 0 0 0
0:00:00.00 479768 N 0 0 0
0:00:00.00 480004 N 0 0 0
0:00:00.00 480244 N 0 0 0
0:00:00.00 480485 N 0 0 0
0:00:00.00 480739 N 0 0 0
0:00:00.00 480994 N 0 0 0
0:00:00.00 481246 N 0 0 0
0:00:00.00 481496 N 0 0 0
0:00:00.00 481736 N 0 0 0
0:00:00.00 481979 N 0 0 0
0:00:00.00 482227 N 0 0 0
0:00:00.00 482468 N 0 0 0
0:00:00.00 482710 N 0 0 0
0:00:00.00 482960 N 0 0 0
0:00:00.00 483226 N 0 0 0
0:00:00.00 483484 N 0 0 0
0:00:00.00 483737 N 0 0 0
0:00:00.00 483970 N 0 0 0
0:00:00.00 484209 N 0 0 0
0:00:00.00 484450 N 0 0 0
0:00:00.00 484688 N 0 0 0
0:00:00.00 484940 N 0 0 0
0:00:00.00 485210 N 0 0 0
0:00:00.00 485483 N 0 0 0
0:00:00.00 485739 N 0 0 0
0:00:00.00 486007 N 0 0 0
0:00:00.00 486265 N 0 0 0
0:00:00.00 486511 N 0 0 0
0:00:00.00 486749 N 0 0 0
0:00:00.00 486997 N 0 0 0
0:00:00.00 487262 N 0 0 0
0:00:00.00 487519 N 0 0 0
0:00:00.00 487778 N 0 0 0
0:00:00.00 488036 N 0 0 0
0:00:00.00 488290 N 0 0 0
0:00:00.00 488527 N 0 0 0
0:00:00.00 488774 N 0 0 0
0:00:00.00 489031 N 0 0 0
0:00:00.00 489289 N 0 0 0
0:00:00.00 489539 N 0 0 0
0:00:00.00 489784 N 0 0 0
0:00:00.00 490032 N 0 0 0
0:00:00.00 490279 N 0 0 0
0:00:00.00 490527 N 0 0 0
0:00:00.00 490763 N 0 0 0
0:00:00.00 491008 N 0 0 0
0:00:00.00 491270 N 0 0 0
0:00:00.00 491537 N 0 0 0
0:00:00.00 491798 N 0 0 0
0:00:00.00 492070 N 0 0 0
0:00:00.00 492325 N 0 0 0
0:00:00.00 492563 N 0 0 0
0:00:00.00 492795 N 0 0 0
0:00:00.00 493027 N 0 0 0
0:00:00.00 493263 N 0 0 0
0:00:00.00 493501 N 0 0 0
0:00:00.00 493745 N 0 0 0
0:00:00.00 494001 N 0 0 0
0:00:00.00 494253 N 0 0 0
0:00:00.00 494503 N 0 0 0
0:00:00.00 494748 N 0 0 0
0:00:00.00 494978 N 0 0 0
0:00:00.00 495203 N 0 0 0
0:00:00.00 495428 N 0 0 0
0:00:00.00 495653 N 0 0 0
0:00:00.00 495898 N 0 0 0
0:00:00.00 496143 N 0 0 0
0:00:00.00 496381 N 0 0 0
0:00:00.00 496618 N 0 0 0
0:00:00.00 496850 N 0 0 0
0:00:00.00 497074 N 0 0 0
0:00:00.00 497297 N 0 0 0
0:00:00.00 497529 N 0 0 0
0:00:00.00 497770 N 0 0 0
0:00:00.00 498019 N 0 0 0
0:00:00.00 498258 N 0 0 0
0:00:00.00 498503 N 0 0 0
0:00:00.00 498757 N 0 0 0
0:00:00.00 498996 N 0 0 0
0:00:00.00 499230 N 0 0 0
0:00:00.00 499466 N 0 0 0
0:00:00.00 499711 N 0 0 0
0:00:00.00 499939 N 0 0 0
0:00:00.00 500184 N 0 0 0
0:00:00.00 500449 N 0 0 0
0:00:00.00 500708 N 0 0 0
0:00:00.00 500954 N 0 0 0
0:00:00.00 501203 N 0 0 0
0:00:00.00 501446 N 0 0 0
0:00:00.00 501676 N 0 0 0
0:00:00.00 501916 N 0 0 0
0:00:00.00 502164 N 0 0 0
0:00:00.00 502421 N 0 0 0
0:00:00.00 502677 N 0 0 0
0:00:00.00 502924 N 0 0 0
0:00:00.00 503185 N 0 0 0
0:00:00.00 503451 N 0 0 0
0:00:00.00 503703 N 0 0 0
0:00:00.00 503950 N 0 0 0
0:00:00.00 504184 N 0 0 0
0:00:00.00 504414 N 0 0 0
0:00:00.00 504653 N 0 0 0
0:00:00.00 504884 N 0 0 0
0:00:00.00 505112 N 0 0 0
0:00:00.00 505334 N 0 0 0
0:00:00.00 505559 N 0 0 0
0:00:00.00 505782 N 0 0 0
0:00:00.00 506003 N 0 0 0
0:00:00.00 506232 N 0 0 0
0:00:00.00 506462 N 0 0 0
0:00:00.00 506689 N 0 0 0
0:00:00.00 506927 N 0 0 0
0:00:00.00 507179 N 0 0 0
0:00:00.00 507420 N 0 0 0
0:00:00.00 507670 N 0 0 0
0:00:00.00 507906 N 0 0 0
0:00:00.00 508133 N 0 0 0
0:00:00.00 508358 N 0 0 0
0:00:00.00 508577 N 0 0 0
0:00:00.00 508808 N 0 0 0
0:00:00.00 509035 N 0 0 0
0:00:00.00 509256 N 0 0 0
0:00:00.00 509468 N 0 0 0
0:00:00.00 509681 N 0 0 0
0:00:00.00 509888 N 0 0 0
0:00:00.00 510102 N 0 0 0
0:00:00.00 510316 N 0 0 0
0:00:00.00 510552 N 0 0 0
0:00:00.00 510799 N 0 0 0
0:00:00.00 511038 N 0 0 0
0:00:00.00 511281 N 0 0 0
0:00:00.00 511538 N 0 0 0
0:00:00.00 511796 N 0 0 0
0:00:00.00 512030 N 0 0 0
0:00:00.00 512262 N 0 0 0
0:00:00.00 512491 N 0 0 0
0:00:00.00 512723 N 0 0 0
0:00:00.00 512960 N 0 0 0
0:00:00.00 513194 N 0 0 0
0:00:00.00 513428 N 0 0 0
0:00:00.00 513677 N 0 0 0
0:00:00.00 513929 N 0 0 0
0:00:00.00 514174 N 0 0 0
0:00:00.00 514404 N 0 0 0
0:00:00.00 514642 N 0 0 0
0:00:00.00 514888 N 0 0 0
0:00:00.00 515147 N 0 0 0
0:00:00.00 515390 N 0 0 0
0:00:00.00 515653 N 0 0 0
0:00:00.00 515914 N 0 0 0
0:00:00.00 516163 N 0 0 0
0:00:00.00 516402 N 0 0 0
0:00:00.00 516636 N 0 0 0
0:00:00.00 516875 N 0 0 0
0:00:00.00 517111 N 0 0 0
0:00:00.00 517352 N 0 0 0
0:00:00.00 517619 N 0 0 0
0:00:00.00 517883 N 0 0 0
0:00:00.00 518150 N 0 0 0
0:00:00.00 518402 N 0 0 0
0:00:00.00 518650 N 0 0 0
0:00:00.00 518899 N 0 0 0
0:00:00.00 519140 N 0 0 0
0:00:00.00 519383 N 0 0 0
0:00:00.00 519635 N 0 0 0
0:00:00.00 519896 N 0 0 0
0:00:00.00 520146 N 0 0 0
0:00:00.00 520393 N 0 0 0
0:00:00.00 520648 N 0 0 0
0:00:00.00 520891 N 0 0 0
0:00:00.00 521120 N 0 0 0
0:00:00.00 521354 N 0 0 0
0:00:00.00 521595 N 0 0 0
0:00:00.00 521851 N 0 0 0
0:00:00.00 522110 N 0 0 0
0:00:00.00 522387 N 0 0 0
0:00:00.00 522646 N 0 0 0
0:00:00.00 522891 N 0 0 0
0:00:00.00 523129 N 0 0 0
0:00:00.00 523363 N 0 0 0
0:00:00.00 523591 N 0 0 0
0:00:00.00 523823 N 0 0 0
0:00:00.00 524061 N 0 0 0
0:00:00.00 524302 N 0 0 0
0:00:00.00 524545 N 0 0 0
0:00:00.00 524786 N 0 0 0
0:00:00.00 525035 N 0 0 0
0:00:00.00 525271 N 0 0 0
0:00:00.00 525499 N 0 0 0
0:00:00.00 525737 N 0 0 0
0:00:00.00 525980 N 0 0 0
0:00:00.00 526232 N 0 0 0
0:00:00.00 526496 N 0 0 0
0:00:00.00 526759 N 0 0 0
0:00:00.00 527009 N 0 0 0
0:00:00.00 527252 N 0 0 0
0:00:00.00 527506 N 0 0 0
0:00:00.00 527776 N 0 0 0
0:00:00.00 528053 N 0 0 0
0:00:00.00 528334 N 0 0 0
0:00:00.00 528604 N 0 0 0
0:00:00.00 528851 N 0 0 0
0:00:00.00 529105 N 0 0 0
0:00:00.00 529357 N 0 0 0
0:00:00.00 529589 N 0 0 0
0:00:00.00 529817 N 0 0 0
0:00:00.00 530073 N 0 0 0
0:00:00.00 530359 N 0 0 0
0:00:00.00 530636 N 0 0 0
0:00:00.00 530905 N 0 0 0
0:00:00.00 531184 N 0 0 0
0:00:00.00 531454 N 0 0 0
0:00:00.00 531695 N 0 0 0
0:00:00.00 531932 N 0 0 0
0:00:00.00 532175 N 0 0 0
0:00:00.00 532471 N 0 0 0
0:00:00.00 532807 N 0 0 0
0:00:00.00 533162 N 0 0 0
0:00:00.00 533493 N 0 0 0
0:00:00.00 533799 N 0 0 0
0:00:00.00 534069 N 0 0 0
0:00:00.00 534317 N 0 0 0
0:00:00.00 534560 N 0 0 0
0:00:00.00 534809 N 0 0 0
0:00:00.00 535059 N 0 0 0
0:00:00.00 535309 N 0 0 0
0:00:00.00 535563 N 0 0 0
0:00:00.00 535815 N 0 0 0
0:00:00.00 536081 N 0 0 0
0:00:00.00 536351 N 0 0 0
0:00:00.00 536620 N 0 0 0
0:00:00.00 536879 N 0 0 0
0:00:00.00 537143 N 0 0 0
0:00:00.00 537406 N 0 0 0
0:00:00.00 537669 N 0 0 0
0:00:00.00 537912 N 0 0 0
0:00:00.00 538157 N 0 0 0
0:00:00.00 538389 N 0 0 0
0:00:00.00 538625 N 0 0 0
0:00:00.00 538853 N 0 0 0
0:00:00.00 539075 N 0 0 0
0:00:00.00 539312 N 0 0 0
0:00:00.00 539555 N 0 0 0
0:00:00.00 539793 N 0 0 0
0:00:00.00 540020 N 0 0 0
0:00:00.00 540238 N 0 0 0
0:00:00.00 540463 N 0 0 0
0:00:00.00 540691 N 0 0 0
0:00:00.00 540916 N 0 0 0
0:00:00.00 541159 N 0 0 0
0:00:00.00 541415 N 0 0 0
0:00:00.00 541670 N 0 0 0
0:00:00.00 541913 N 0 0 0
0:00:00.00 542147 N 0 0 0
0:00:00.00 542383 N 0 0 0
0:00:00.00 542606 N 0 0 0
0:00:00.00 542830 N 0 0 0
0:00:00.00 543055 N 0 0 0
0:00:00.00 543290 N 0 0 0
0:00:00.00 543553 N 0 0 0
0:00:00.00 543802 N 0 0 0
0:00:00.00 544045 N 0 0 0
0:00:00.00 544295 N 0 0 0
0:00:00.00 544531 N 0 0 0
0:00:00.00 544754 N 0 0 0
0:00:00.00 544984 N 0 0 0
0:00:00.00 545216 N 0 0 0
0:00:00.00 545452 N 0 0 0
0:00:00.00 545692 N 0 0 0
0:00:00.00 545936 N 0 0 0
0:00:00.00 546187 N 0 0 0
0:00:00.00 546433 N 0 0 0
0:00:00.00 546669 N 0 0 0
0:00:00.00 546907 N 0 0 0
0:00:00.00 547144 N 0 0 0
0:00:00.00 547380 N 0 0 0
0:00:00.00 547627 N 0 0 0
0:00:00.00 547879 N 0 0 0
0:00:00.00 548131 N 0 0 0
0:00:00.00 548377 N 0 0 0
0:00:00.00 548617 N 0 0 0
0:00:00.00 548861 N 0 0 0
0:00:00.00 549104 N 0 0 0
0:00:00.00 549353 N 0 0 0
0:00:00.00 549610 N 0 0 0
0:00:00.00 549862 N 0 0 0
0:00:00.00 550123 N 0 0 0
0:00:00.00 550390 N 0 0 0
0:00:00.00 550654 N 0 0 0
0:00:00.00 550897 N 0 0 0
0:00:00.00 551137 N 0 0 0
0:00:00.00 551374 N 0 0 0
0:00:00.00 551605 N 0 0 0
0:00:00.00 551858 N 0 0 0
0:00:00.00 552125 N 0 0 0
0:00:00.00 552384 N 0 0 0
0:00:00.00 552631 N 0 0 0
0:00:00.00 552879 N 0 0 0
0:00:00.00 553113 N 0 0 0
0:00:00.00 553338 N 0 0 0
0:00:00.00 553567 N 0 0 0
0:00:00.00 553808 N 0 0 0
0:00:00.00 554049 N 0 0 0
0:00:00.00 554301 N 0 0 0
0:00:00.00 554555 N 0 0 0
0:00:00.00 554821 N 0 0 0
0:00:00.00 555070 N 0 0 0
0:00:00.00 555311 N 0 0 0
0:00:00.00 555547 N 0 0 0
0:00:00.00 555791 N 0 0 0
0:00:00.00 556038 N 0 0 0
0:00:00.00 556290 N 0 0 0
0:00:00.00 556551 N 0 0 0
0:00:00.00 556803 N 0 0 0
0:00:00.00 557048 N 0 0 0
0:00:00.00 557293 N 0 0 0
0:00:00.00 557534 N 0 0 0
0:00:00.00 557768 N 0 0 0
0:00:00.00 558004 N 0 0 0
0:00:00.00 558248 N 0 0 0
0:00:00.00 558499 N 0 0 0
0:00:00.00 558749 N 0 0 0
0:00:00.00 559001 N 0 0 0
0:00:00.00 559253 N 0 0 0
0:00:00.00 559492 N 0 0 0
0:00:00.00 559739 N 0 0 0
0:00:00.00 559978 N 0 0 0
0:00:00.00 560214 N 0 0 0
0:00:00.00 560450 N 0 0 0
0:00:00.00 560707 N 0 0 0
0:00:00.00 560963 N 0 0 0
0:00:00.00 561206 N 0 0 0
0:00:00.00 561440 N 0 0 0
0:00:00.00 561672 N 0 0 0
0:00:00.00 561893 N 0 0 0
0:00:00.00 562109 N 0 0 0
0:00:00.00 562336 N 0 0 0
0:00:00.00 562572 N 0 0 0
0:00:00.00 562808 N 0 0 0
0:00:00.00 563062 N 0 0 0
0:00:00.00 563308 N 0 0 0
0:00:00.00 563562 N 0 0 0
0:00:00.00 563812 N 0 0 0
0:00:00.00 564061 N 0 0 0
0:00:00.00 564289 N 0 0 0
0:00:00.00 564527 N 0 0 0
0:00:00.00 564773 N 0 0 0
0:00:00.00 565020 N 0 0 0
0:00:00.00 565276 N 0 0 0
0:00:00.00 565533 N 0 0 0
0:00:00.00 565781 N 0 0 0
0:00:00.00 566021 N 0 0 0
0:00:00.00 566257 N 0 0 0
0:00:00.00 566503 N 0 0 0
0:00:00.00 566752 N 0 0 0
0:00:00.00 566998 N 0 0 0
0:00:00.00 567250 N 0 0 0
0:00:00.00 567515 N 0 0 0
0:00:00.00 567769 N 0 0 0
0:00:00.00 568026 N 0 0 0
0:00:00.00 568280 N 0 0 0
0:00:00.00 568528 N 0 0 0
0:00:00.00 568768 N 0 0 0
0:00:00.00 569005 N 0 0 0
0:00:00.00 569261 N 0 0 0
0:00:00.00 569522 N 0 0 0
0:00:00.00 569779 N 0 0 0
0:00:00.00 570033 N 0 0 0
0:00:00.00 570272 N 0 0 0
0:00:00.00 570508 N 0 0 0
0:00:00.00 570742 N 0 0 0
0:00:00.00 570987 N 0 0 0
0:00:00.00 571248 N 0 0 0
0:00:00.00 571518 N 0 0 0
0:00:00.00 571774 N 0 0 0
0:00:00.00 572035 N 0 0 0
0:00:00.00 572301 N 0 0 0
0:00:00.00 572549 N 0 0 0
0:00:00.00 572783 N 0 0 0
0:00:00.00 573017 N 0 0 0
0:00:00.00 573257 N 0 0 0
0:00:00.00 573511 N 0 0 0
0:00:00.00 573770 N 0 0 0
0:00:00.00 574022 N 0 0 0
0:00:00.00 574272 N 0 0 0
0:00:00.00 574520 N 0 0 0
0:00:00.00 574756 N 0 0 0
0:00:00.00 574997 N 0 0 0
0:00:00.00 575264 N 0 0 0
0:00:00.00 575536 N 0 0 0
0:00:00.00 575807 N 0 0 0
0:00:00.00 576063 N 0 0 0
0:00:00.00 576317 N 0 0 0
0:00:00.00 576565 N 0 0 0
0:00:00.00 576803 N 0 0 0
0:00:00.00 577026 N 0 0 0
0:00:00.00 577253 N 0 0 0
0:00:00.00 577483 N 0 0 0
0:00:00.00 577735 N 0 0 0
0:00:00.00 578014 N 0 0 0
0:00:00.00 578295 N 0 0 0
0:00:00.00 578569 N 0 0 0
0:00:00.00 578819 N 0 0 0
0:00:00.00 579064 N 0 0 0
0:00:00.00 579321 N 0 0 0
0:00:00.00 579602 N 0 0 0
0:00:00.00 579872 N 0 0 0
0:00:00.00 580133 N 0 0 0
0:00:00.00 580387 N 0 0 0
0:00:00.00 580631 N 0 0 0
0:00:00.00 580882 N 0 0 0
0:00:00.00 581114 N 0 0 0
0:00:00.00 581342 N 0 0 0
0:00:00.00 581576 N 0 0 0
0:00:00.00 581830 N 0 0 0
0:00:00.00 582082 N 0 0 0
0:00:00.00 582336 N 0 0 0
0:00:00.00 582613 N 0 0 0
0:00:00.00 582883 N 0 0 0
0:00:00.00 583141 N 0 0 0
0:00:00.00 583396 N 0 0 0
0:00:00.00 583659 N 0 0 0
0:00:00.00 583906 N 0 0 0
0:00:00.00 584149 N 0 0 0
0:00:00.00 584404 N 0 0 0
0:00:00.00 584672 N 0 0 0
0:00:00.00 584933 N 0 0 0
0:00:00.00 585180 N 0 0 0
0:00:00.00 585421 N 0 0 0
0:00:00.00 585657 N 0 0 0
0:00:00.00 585893 N 0 0 0
0:00:00.00 586121 N 0 0 0
0:00:00.00 586361 N 0 0 0
0:00:00.00 586615 N 0 0 0
0:00:00.00 586874 N 0 0 0
0:00:00.00 587122 N 0 0 0
0:00:00.00 587372 N 0 0 0
0:00:00.00 587621 N 0 0 0
0:00:00.00 587867 N 0 0 0
0:00:00.00 588107 N 0 0 0
0:00:00.00 588352 N 0 0 0
0:00:00.00 588600 N 0 0 0
0:00:00.00 588847 N 0 0 0
0:00:00.00 589093 N 0 0 0
0:00:00.00 589345 N 0 0 0
0:00:00.00 589588 N 0 0 0
0:00:00.00 589819 N 0 0 0
0:00:00.00 590044 N 0 0 0
0:00:00.00 590278 N 0 0 0
0:00:00.00 590522 N 0 0 0
0:00:00.00 590769 N 0 0 0
0:00:00.00 591023 N 0 0 0
0:00:00.00 591282 N 0 0 0
0:00:00.00 591538 N 0 0 0
0:00:00.00 591768 N 0 0 0
0:00:00.00 592000 N 0 0 0
0:00:00.00 592234 N 0 0 0
0:00:00.00 592465 N 0 0 0
0:00:00.00 592693 N 0 0 0
0:00:00.00 592924 N 0 0 0
0:00:00.00 593170 N 0 0 0
0:00:00.00 593440 N 0 0 0
0:00:00.00 593714 N 0 0 0
0:00:00.00 594011 N 0 0 0
0:00:00.00 594274 N 0 0 0
0:00:00.00 594520 N 0 0 0
0:00:00.00 594769 N 0 0 0
0:00:00.00 595026 N 0 0 0
0:00:00.00 595274 N 0 0 0
0:00:00.00 595521 N 0 0 0
0:00:00.00 595762 N 0 0 0
0:00:00.00 595996 N 0 0 0
0:00:00.00 596223 N 0 0 0
0:00:00.00 596450 N 0 0 0
0:00:00.00 596680 N 0 0 0
0:00:00.00 596920 N 0 0 0
0:00:00.00 597172 N 0 0 0
0:00:00.00 597442 N 0 0 0
0:00:00.00 597699 N 0 0 0
0:00:00.00 597974 N 0 0 0
0:00:00.00 598241 N 0 0 0
0:00:00.00 598505 N 0 0 0
0:00:00.00 598741 N 0 0 0
0:00:00.00 598982 N 0 0 0
0:00:00.00 599229 N 0 0 0
0:00:00.00 599483 N 0 0 0
0:00:00.00 599737 N 0 0 0
0:00:00.00 599992 N 0 0 0
0:00:00.00 600251 N 0 0 0
0:00:00.00 600507 N 0 0 0
0:00:00.00 600741 N 0 0 0
0:00:00.00 600988 N 0 0 0
0:00:00.00 601234 N 0 0 0
0:00:00.00 601484 N 0 0 0
0:00:00.00 601729 N 0 0 0
0:00:00.00 601990 N 0 0 0
0:00:00.00 602248 N 0 0 0
0:00:00.00 602498 N 0 0 0
0:00:00.00 602739 N 0 0 0
0:00:00.00 602973 N 0 0 0
0:00:00.00 603211 N 0 0 0
0:00:00.00 603448 N 0 0 0
0:00:00.00 603693 N 0 0 0
0:00:00.00 603947 N 0 0 0
0:00:00.00 604206 N 0 0 0
0:00:00.00 604460 N 0 0 0
0:00:00.00 604701 N 0 0 0
0:00:00.00 604948 N 0 0 0
0:00:00.00 605183 N 0 0 0
0:00:00.00 605419 N 0 0 0
0:00:00.00 605651 N 0 0 0
0:00:00.00 605894 N 0 0 0
0:00:00.00 606150 N 0 0 0
0:00:00.00 606395 N 0 0 0
0:00:00.00 606649 N 0 0 0
0:00:00.00 606906 N 0 0 0
0:00:00.00 607153 N 0 0 0
0:00:00.00 607381 N 0 0 0
0:00:00.00 607613 N 0 0 0
0:00:00.00 607862 N 0 0 0
0:00:00.00 608107 N 0 0 0
0:00:00.00 608359 N 0 0 0
0:00:00.00 608614 N 0 0 0
0:00:00.00 608863 N 0 0 0
0:00:00.00 609113 N 0 0 0
0:00:00.00 609354 N 0 0 0
0:00:00.00 609593 N 0 0 0
0:00:00.00 609838 N 0 0 0
0:00:00.00 610090 N 0 0 0
0:00:00.00 610337 N 0 0 0
0:00:00.00 610598 N 0 0 0
0:00:00.00 610868 N 0 0 0
0:00:00.00 611134 N 0 0 0
0:00:00.00 611374 N 0 0 0
0:00:00.00 611609 N 0 0 0
0:00:00.00 611849 N 0 0 0
0:00:00.00 612083 N 0 0 0
0:00:00.00 612322 N 0 0 0
0:00:00.00 612587 N 0 0 0
0:00:00.00 612851 N 0 0 0
0:00:00.00 613100 N 0 0 0
0:00:00.00 613345 N 0 0 0
0:00:00.00 613597 N 0 0 0
0:00:00.00 613834 N 0 0 0
0:00:00.00 614066 N 0 0 0
0:00:00.00 614311 N 0 0 0
0:00:00.00 614551 N 0 0 0
0:00:00.00 614792 N 0 0 0
0:00:00.00 615037 N 0 0 0
0:00:00.00 615301 N 0 0 0
0:00:00.00 615551 N 0 0 0
0:00:00.00 615785 N 0 0 0
0:00:00.00 616012 N 0 0 0
0:00:00.00 616244 N 0 0 0
0:00:00.00 616484 N 0 0 0
0:00:00.00 616723 N 0 0 0
0:00:00.00 616977 N 0 0 0
0:00:00.00 617238 N 0 0 0
0:00:00.00 617492 N 0 0 0
0:00:00.00 617733 N 0 0 0
0:00:00.00 617962 N 0 0 0
0:00:00.00 618197 N 0 0 0
0:00:00.00 618431 N 0 0 0
0:00:00.00 618667 N 0 0 0
0:00:00.00 618907 N 0 0 0
0:00:00.00 619157 N 0 0 0
0:00:00.00 619407 N 0 0 0
0:00:00.00 619657 N 0 0 0
0:00:00.00 619900 N 0 0 0
0:00:00.00 620136 N 0 0 0
0:00:00.00 620379 N 0 0 0
0:00:00.00 620622 N 0 0 0
0:00:00.00 620874 N 0 0 0
0:00:00.00 621124 N 0 0 0
0:00:00.00 621373 N 0 0 0
0:00:00.00 621623 N 0 0 0
0:00:00.00 621886 N 0 0 0
0:00:00.00 622123 N 0 0 0
0:00:00.00 622352 N 0 0 0
0:00:00.00 622584 N 0 0 0
0:00:00.00 622822 N 0 0 0
0:00:00.00 623048 N 0 0 0
0:00:00.00 623275 N 0 0 0
0:00:00.00 623500 N 0 0 0
0:00:00.00 623740 N 0 0 0
0:00:00.00 623979 N 0 0 0
0:00:00.00 624227 N 0 0 0
0:00:00.00 624472 N 0 0 0
0:00:00.00 624712 N 0 0 0
0:00:00.00 624931 N 0 0 0
0:00:00.00 625156 N 0 0 0
0:00:00.00 625388 N 0 0 0
0:00:00.00 625633 N 0 0 0
0:00:00.00 625867 N 0 0 0
0:00:00.00 626096 N 0 0 0
0:00:00.00 626333 N 0 0 0
0:00:00.00 626573 N 0 0 0
0:00:00.00 626809 N 0 0 0
0:00:00.00 627030 N 0 0 0
0:00:00.00 627259 N 0 0 0
0:00:00.00 627507 N 0 0 0
0:00:00.00 627761 N 0 0 0
0:00:00.00 627997 N 0 0 0
0:00:00.00 628243 N 0 0 0
0:00:00.00 628483 N 0 0 0
0:00:00.00 628708 N 0 0 0
0:00:00.00 628931 N 0 0 0
0:00:00.00 629150 N 0 0 0
0:00:00.00 629379 N 0 0 0
0:00:00.00 629613 N 0 0 0
0:00:00.00 629852 N 0 0 0
0:00:00.00 630101 N 0 0 0
0:00:00.00 630358 N 0 0 0
0:00:00.00 630612 N 0 0 0
0:00:00.00 630842 N 0 0 0
0:00:00.00 631071 N 0 0 0
0:00:00.00 631298 N 0 0 0
0:00:00.00 631521 N 0 0 0
0:00:00.00 631737 N 0 0 0
0:00:00.00 631955 N 0 0 0
0:00:00.00 632180 N 0 0 0
0:00:00.00 632428 N 0 0 0
0:00:00.00 632673 N 0 0 0
0:00:00.00 632912 N 0 0 0
0:00:00.00 633148 N 0 0 0
0:00:00.00 633400 N 0 0 0
0:00:00.00 633649 N 0 0 0
0:00:00.00 633893 N 0 0 0
0:00:00.00 634154 N 0 0 0
0:00:00.00 634419 N 0 0 0
0:00:00.00 634678 N 0 0 0
0:00:00.00 634919 N 0 0 0
0:00:00.00 635162 N 0 0 0
0:00:00.00 635409 N 0 0 0
0:00:00.00 635643 N 0 0 0
0:00:00.00 635848 N 0 0 0
0:00:00.00 636113 N 0 0 0
0:00:00.00 636376 N 0 0 0
0:00:00.00 636626 N 0 0 0
0:00:00.00 636885 N 0 0 0
0:00:00.00 637135 N 0 0 0
0:00:00.00 637367 N 0 0 0
0:00:00.00 637594 N 0 0 0
0:00:00.00 637816 N 0 0 0
0:00:00.00 638096 N 0 0 0
0:00:00.00 638393 N 0 0 0
0:00:00.00 638692 N 0 0 0
0:00:00.00 638977 N 0 0 0
0:00:00.00 639245 N 0 0 0
0:00:00.00 639491 N 0 0 0
0:00:00.00 639724 N 0 0 0
0:00:00.00 639961 N 0 0 0
0:00:00.00 640204 N 0 0 0
0:00:00.00 640465 N 0 0 0
0:00:00.00 640733 N 0 0 0
0:00:00.00 641012 N 0 0 0
0:00:00.00 641300 N 0 0 0
0:00:00.00 641588 N 0 0 0
0:00:00.00 641842 N 0 0 0
0:00:00.00 642100 N 0 0 0
0:00:00.00 642359 N 0 0 0
0:00:00.00 642616 N 0 0 0
0:00:00.00 642883 N 0 0 0
0:00:00.00 643153 N 0 0 0
0:00:00.00 643424 N 0 0 0
0:00:00.00 643671 N 0 0 0
0:00:00.00 643928 N 0 0 0
0:00:00.00 644184 N 0 0 0
0:00:00.00 644434 N 0 0 0
0:00:00.00 644668 N 0 0 0
0:00:00.00 644920 N 0 0 0
0:00:00.00 645185 N 0 0 0
0:00:00.00 645440 N 0 0 0
0:00:00.00 645709 N 0 0 0
0:00:00.00 645977 N 0 0 0
0:00:00.00 646227 N 0 0 0
0:00:00.00 646452 N 0 0 0
0:00:00.00 646697 N 0 0 0
0:00:00.00 646945 N 0 0 0
0:00:00.00 647203 N 0 0 0
0:00:00.00 647451 N 0 0 0
0:00:00.00 647687 N 0 0 0
0:00:00.00 647912 N 0 0 0
0:00:00.00 648139 N 0 0 0
0:00:00.00 648371 N 0 0 0
0:00:00.00 648603 N 0 0 0
0:00:00.00 648866 N 0 0 0
0:00:00.00 649141 N 0 0 0
0:00:00.00 649417 N 0 0 0
0:00:00.00 649676 N 0 0 0
0:00:00.00 649948 N 0 0 0
