0:00:00.00 13 N 0 0 0
0:00:00.00 95 N 0 0 0
0:00:00.00 254 N 0 0 0
0:00:00.00 479 N 0 0 0
0:00:00.00 673 N 0 0 0
0:00:00.00 873 N 0 0 0
0:00:00.00 1078 N 0 0 0
0:00:00.00 1273 N 0 0 0
0:00:00.00 1469 N 0 0 0
0:00:00.00 1656 N 0 0 0
0:00:00.00 1852 N 0 0 0
0:00:00.00 2047 N 0 0 0
0:00:00.00 2237 N 0 0 0
0:00:00.00 2434 N 0 0 0
0:00:00.00 2633 N 0 0 0
0:00:00.00 2835 N 0 0 0
0:00:00.00 3024 N 0 0 0
0:00:00.00 3222 N 0 0 0
0:00:00.00 3409 N 0 0 0
0:00:00.00 3604 N 0 0 0
0:00:00.00 3809 N 0 0 0
0:00:00.00 4009 N 0 0 0
0:00:00.00 4203 N 0 0 0
0:00:00.00 4401 N 0 0 0
0:00:00.00 4594 N 0 0 0
0:00:00.00 4784 N 0 0 0
0:00:00.00 4977 N 0 0 0
0:00:00.00 5175 N 0 0 0
0:00:00.00 5375 N 0 0 0
0:00:00.00 5571 N 0 0 0
0:00:00.00 5773 N 0 0 0
0:00:00.00 5965 N 0 0 0
0:00:00.00 6158 N 0 0 0
0:00:00.00 6347 N 0 0 0
0:00:00.00 6545 N 0 0 0
0:00:00.00 6743 N 0 0 0
0:00:00.00 6943 N 0 0 0
0:00:00.00 7135 N 0 0 0
0:00:00.00 7333 N 0 0 0
0:00:00.00 7522 N 0 0 0
0:00:00.00 7715 N 0 0 0
0:00:00.00 7915 N 0 0 0
0:00:00.00 8107 N 0 0 0
0:00:00.00 8303 N 0 0 0
0:00:00.00 8498 N 0 0 0
0:00:00.00 8699 N 0 0 0
0:00:00.00 8899 N 0 0 0
0:00:00.00 9095 N 0 0 0
0:00:00.00 9284 N 0 0 0
0:00:00.00 9484 N 0 0 0
0:00:00.00 9682 N 0 0 0
0:00:00.00 9882 N 0 0 0
0:00:00.00 10075 N 0 0 0
0:00:00.00 10276 N 0 0 0
0:00:00.00 10462 N 0 0 0
0:00:00.00 10656 N 0 0 0
0:00:00.00 10852 N 0 0 0
0:00:00.00 11043 N 0 0 0
0:00:00.00 11239 N 0 0 0
0:00:00.00 11434 N 0 0 0
0:00:00.00 11637 N 0 0 0
0:00:00.00 11830 N 0 0 0
0:00:00.00 12024 N 0 0 0
0:00:00.00 12217 N 0 0 0
0:00:00.00 12411 N 0 0 0
0:00:00.00 12609 N 0 0 0
0:00:00.00 12809 N 0 0 0
0:00:00.00 13007 N 0 0 0
0:00:00.00 13205 N 0 0 0
0:00:00.00 13394 N 0 0 0
0:00:00.00 13585 N 0 0 0
0:00:00.00 13783 N 0 0 0
0:00:00.00 13979 N 0 0 0
0:00:00.00 14175 N 0 0 0
0:00:00.00 14369 N 0 0 0
0:00:00.00 14569 N 0 0 0
0:00:00.00 14764 N 0 0 0
0:00:00.00 14960 N 0 0 0
0:00:00.00 15147 N 0 0 0
0:00:00.00 15341 N 0 0 0
0:00:00.00 15536 N 0 0 0
0:00:00.00 15739 N 0 0 0
0:00:00.00 15932 N 0 0 0
0:00:00.00 16130 N 0 0 0
0:00:00.00 16322 N 0 0 0
0:00:00.00 16513 N 0 0 0
0:00:00.00 16708 N 0 0 0
0:00:00.00 16907 N 0 0 0
0:00:00.00 17096 N 0 0 0
0:00:00.00 17296 N 0 0 0
0:00:00.00 17501 N 0 0 0
0:00:00.00 17696 N 0 0 0
0:00:00.00 17887 N 0 0 0
0:00:00.00 18081 N 0 0 0
0:00:00.00 18274 N 0 0 0
0:00:00.00 18472 N 0 0 0
0:00:00.00 18671 N 0 0 0
0:00:00.00 18868 N 0 0 0
0:00:00.00 19064 N 0 0 0
0:00:00.00 19255 N 0 0 0
0:00:00.00 19447 N 0 0 0
0:00:00.00 19636 N 0 0 0
0:00:00.00 19834 N 0 0 0
0:00:00.00 20029 N 0 0 0
0:00:00.00 20225 N 0 0 0
0:00:00.00 20419 N 0 0 0
0:00:00.00 20615 N 0 0 0
0:00:00.00 20812 N 0 0 0
0:00:00.00 21004 N 0 0 0
0:00:00.00 21195 N 0 0 0
0:00:00.00 21389 N 0 0 0
0:00:00.00 21593 N 0 0 0
0:00:00.00 21793 N 0 0 0
0:00:00.00 21991 N 0 0 0
0:00:00.00 22187 N 0 0 0
0:00:00.00 22376 N 0 0 0
0:00:00.00 22574 N 0 0 0
0:00:00.00 22730 N 0 0 0
0:00:00.00 22955 N 0 0 0
0:00:00.00 23155 N 0 0 0
0:00:00.00 23353 N 0 0 0
0:00:00.00 23555 N 0 0 0
0:00:00.00 23744 N 0 0 0
0:00:00.00 23936 N 0 0 0
0:00:00.00 24127 N 0 0 0
0:00:00.00 24331 N 0 0 0
0:00:00.00 24529 N 0 0 0
0:00:00.00 24727 N 0 0 0
0:00:00.00 24921 N 0 0 0
0:00:00.00 25117 N 0 0 0
0:00:00.00 25308 N 0 0 0
0:00:00.00 25501 N 0 0 0
0:00:00.00 25697 N 0 0 0
0:00:00.00 25897 N 0 0 0
0:00:00.00 26095 N 0 0 0
0:00:00.00 26289 N 0 0 0
0:00:00.00 26489 N 0 0 0
0:00:00.00 26683 N 0 0 0
0:00:00.00 26881 N 0 0 0
0:00:00.00 27070 N 0 0 0
0:00:00.00 27265 N 0 0 0
0:00:00.00 27464 N 0 0 0
0:00:00.00 27664 N 0 0 0
0:00:00.00 27855 N 0 0 0
0:00:00.00 28051 N 0 0 0
0:00:00.00 28242 N 0 0 0
0:00:00.00 28435 N 0 0 0
0:00:00.00 28631 N 0 0 0
0:00:00.00 28827 N 0 0 0
0:00:00.00 29023 N 0 0 0
0:00:00.00 29218 N 0 0 0
0:00:00.00 29419 N 0 0 0
0:00:00.00 29619 N 0 0 0
0:00:00.00 29813 N 0 0 0
0:00:00.00 30006 N 0 0 0
0:00:00.00 30208 N 0 0 0
0:00:00.00 30409 N 0 0 0
0:00:00.00 30613 N 0 0 0
0:00:00.00 30802 N 0 0 0
0:00:00.00 31005 N 0 0 0
0:00:00.00 31196 N 0 0 0
0:00:00.00 31390 N 0 0 0
0:00:00.00 31586 N 0 0 0
0:00:00.00 31784 N 0 0 0
0:00:00.00 31979 N 0 0 0
0:00:00.00 32179 N 0 0 0
0:00:00.00 32378 N 0 0 0
0:00:00.00 32571 N 0 0 0
0:00:00.00 32765 N 0 0 0
0:00:00.00 32963 N 0 0 0
0:00:00.00 33154 N 0 0 0
0:00:00.00 33349 N 0 0 0
0:00:00.00 33550 N 0 0 0
0:00:00.00 33748 N 0 0 0
0:00:00.00 33948 N 0 0 0
0:00:00.00 34135 N 0 0 0
0:00:00.00 34337 N 0 0 0
0:00:00.00 34533 N 0 0 0
0:00:00.00 34729 N 0 0 0
0:00:00.00 34929 N 0 0 0
0:00:00.00 35123 N 0 0 0
0:00:00.00 35323 N 0 0 0
0:00:00.00 35523 N 0 0 0
0:00:00.00 35723 N 0 0 0
0:00:00.00 35914 N 0 0 0
0:00:00.00 36108 N 0 0 0
0:00:00.00 36306 N 0 0 0
0:00:00.00 36508 N 0 0 0
0:00:00.00 36700 N 0 0 0
0:00:00.00 36900 N 0 0 0
0:00:00.00 37087 N 0 0 0
0:00:00.00 37283 N 0 0 0
0:00:00.00 37478 N 0 0 0
0:00:00.00 37678 N 0 0 0
0:00:00.00 37872 N 0 0 0
0:00:00.00 38072 N 0 0 0
0:00:00.00 38268 N 0 0 0
0:00:00.00 38468 N 0 0 0
0:00:00.00 38664 N 0 0 0
0:00:00.00 38857 N 0 0 0
0:00:00.00 39051 N 0 0 0
0:00:00.00 39249 N 0 0 0
0:00:00.00 39449 N 0 0 0
0:00:00.00 39643 N 0 0 0
0:00:00.00 39845 N 0 0 0
0:00:00.00 40037 N 0 0 0
0:00:00.00 40230 N 0 0 0
0:00:00.00 40421 N 0 0 0
0:00:00.00 40624 N 0 0 0
0:00:00.00 40813 N 0 0 0
0:00:00.00 41008 N 0 0 0
0:00:00.00 41207 N 0 0 0
0:00:00.00 41404 N 0 0 0
0:00:00.00 41598 N 0 0 0
0:00:00.00 41791 N 0 0 0
0:00:00.00 41981 N 0 0 0
0:00:00.00 42179 N 0 0 0
0:00:00.00 42383 N 0 0 0
0:00:00.00 42583 N 0 0 0
0:00:00.00 42779 N 0 0 0
0:00:00.00 42973 N 0 0 0
0:00:00.00 43168 N 0 0 0
0:00:00.00 43366 N 0 0 0
0:00:00.00 43562 N 0 0 0
0:00:00.00 43754 N 0 0 0
0:00:00.00 43954 N 0 0 0
0:00:00.00 44161 N 0 0 0
0:00:00.00 44356 N 0 0 0
0:00:00.00 44552 N 0 0 0
0:00:00.00 44750 N 0 0 0
0:00:00.00 44941 N 0 0 0
0:00:00.00 45135 N 0 0 0
0:00:00.00 45333 N 0 0 0
0:00:00.00 45531 N 0 0 0
0:00:00.00 45731 N 0 0 0
0:00:00.00 45923 N 0 0 0
0:00:00.00 46123 N 0 0 0
0:00:00.00 46307 N 0 0 0
0:00:00.00 46508 N 0 0 0
0:00:00.00 46703 N 0 0 0
0:00:00.00 46906 N 0 0 0
0:00:00.00 47102 N 0 0 0
0:00:00.00 47297 N 0 0 0
0:00:00.00 47491 N 0 0 0
0:00:00.00 47686 N 0 0 0
0:00:00.00 47876 N 0 0 0
0:00:00.00 48074 N 0 0 0
0:00:00.00 48271 N 0 0 0
0:00:00.00 48470 N 0 0 0
0:00:00.00 48667 N 0 0 0
0:00:00.00 48861 N 0 0 0
0:00:00.00 49054 N 0 0 0
0:00:00.00 49246 N 0 0 0
0:00:00.00 49446 N 0 0 0
0:00:00.00 49633 N 0 0 0
0:00:00.00 49831 N 0 0 0
0:00:00.00 50031 N 0 0 0
0:00:00.00 50234 N 0 0 0
0:00:00.00 50425 N 0 0 0
0:00:00.00 50620 N 0 0 0
0:00:00.00 50818 N 0 0 0
0:00:00.00 51010 N 0 0 0
0:00:00.00 51212 N 0 0 0
0:00:00.00 51410 N 0 0 0
0:00:00.00 51606 N 0 0 0
0:00:00.00 51802 N 0 0 0
0:00:00.00 51995 N 0 0 0
0:00:00.00 52189 N 0 0 0
0:00:00.00 52385 N 0 0 0
0:00:00.00 52574 N 0 0 0
0:00:00.00 52778 N 0 0 0
0:00:00.00 52974 N 0 0 0
0:00:00.00 53176 N 0 0 0
0:00:00.00 53363 N 0 0 0
0:00:00.00 53563 N 0 0 0
0:00:00.00 53752 N 0 0 0
0:00:00.00 53942 N 0 0 0
0:00:00.00 54144 N 0 0 0
0:00:00.00 54344 N 0 0 0
0:00:00.00 54536 N 0 0 0
0:00:00.00 54734 N 0 0 0
0:00:00.00 54923 N 0 0 0
0:00:00.00 55114 N 0 0 0
0:00:00.00 55310 N 0 0 0
0:00:00.00 55507 N 0 0 0
0:00:00.00 55701 N 0 0 0
0:00:00.00 55897 N 0 0 0
0:00:00.00 56099 N 0 0 0
0:00:00.00 56291 N 0 0 0
0:00:00.00 56486 N 0 0 0
0:00:00.00 56677 N 0 0 0
0:00:00.00 56873 N 0 0 0
0:00:00.00 57071 N 0 0 0
0:00:00.00 57271 N 0 0 0
0:00:00.00 57460 N 0 0 0
0:00:00.00 57661 N 0 0 0
0:00:00.00 57850 N 0 0 0
0:00:00.00 58043 N 0 0 0
0:00:00.00 58239 N 0 0 0
0:00:00.00 58426 N 0 0 0
0:00:00.00 58626 N 0 0 0
0:00:00.00 58822 N 0 0 0
0:00:00.00 59026 N 0 0 0
0:00:00.00 59215 N 0 0 0
0:00:00.00 59409 N 0 0 0
0:00:00.00 59605 N 0 0 0
0:00:00.00 59798 N 0 0 0
0:00:00.00 59998 N 0 0 0
0:00:00.00 60199 N 0 0 0
0:00:00.00 60399 N 0 0 0
0:00:00.00 60597 N 0 0 0
0:00:00.00 60786 N 0 0 0
0:00:00.00 60984 N 0 0 0
0:00:00.00 61177 N 0 0 0
0:00:00.00 61373 N 0 0 0
0:00:00.00 61571 N 0 0 0
0:00:00.00 61769 N 0 0 0
0:00:00.00 61969 N 0 0 0
0:00:00.00 62159 N 0 0 0
0:00:00.00 62357 N 0 0 0
0:00:00.00 62548 N 0 0 0
0:00:00.00 62743 N 0 0 0
0:00:00.00 62942 N 0 0 0
0:00:00.00 63142 N 0 0 0
0:00:00.00 63337 N 0 0 0
0:00:00.00 63538 N 0 0 0
0:00:00.00 63727 N 0 0 0
0:00:00.00 63923 N 0 0 0
0:00:00.00 64121 N 0 0 0
0:00:00.00 64310 N 0 0 0
0:00:00.00 64505 N 0 0 0
0:00:00.00 64706 N 0 0 0
0:00:00.00 64908 N 0 0 0
0:00:00.00 65102 N 0 0 0
0:00:00.00 65299 N 0 0 0
0:00:00.00 65488 N 0 0 0
0:00:00.00 65687 N 0 0 0
0:00:00.00 65885 N 0 0 0
0:00:00.00 66087 N 0 0 0
0:00:00.00 66280 N 0 0 0
0:00:00.00 66479 N 0 0 0
0:00:00.00 66668 N 0 0 0
0:00:00.00 66863 N 0 0 0
0:00:00.00 67052 N 0 0 0
0:00:00.00 67244 N 0 0 0
0:00:00.00 67439 N 0 0 0
0:00:00.00 67639 N 0 0 0
0:00:00.00 67835 N 0 0 0
0:00:00.00 68033 N 0 0 0
0:00:00.00 68231 N 0 0 0
0:00:00.00 68423 N 0 0 0
0:00:00.00 68616 N 0 0 0
0:00:00.00 68818 N 0 0 0
0:00:00.00 69021 N 0 0 0
0:00:00.00 69217 N 0 0 0
0:00:00.00 69412 N 0 0 0
0:00:00.00 69604 N 0 0 0
0:00:00.00 69804 N 0 0 0
0:00:00.00 70000 N 0 0 0
0:00:00.00 70195 N 0 0 0
0:00:00.00 70389 N 0 0 0
0:00:00.00 70591 N 0 0 0
0:00:00.00 70789 N 0 0 0
0:00:00.00 70987 N 0 0 0
0:00:00.00 71181 N 0 0 0
0:00:00.00 71374 N 0 0 0
0:00:00.00 71566 N 0 0 0
0:00:00.00 71766 N 0 0 0
0:00:00.00 71968 N 0 0 0
0:00:00.00 72162 N 0 0 0
0:00:00.00 72364 N 0 0 0
0:00:00.00 72556 N 0 0 0
0:00:00.00 72751 N 0 0 0
0:00:00.00 72943 N 0 0 0
0:00:00.00 73143 N 0 0 0
0:00:00.00 73336 N 0 0 0
0:00:00.00 73539 N 0 0 0
0:00:00.00 73739 N 0 0 0
0:00:00.00 73942 N 0 0 0
0:00:00.00 74133 N 0 0 0
0:00:00.00 74331 N 0 0 0
0:00:00.00 74529 N 0 0 0
0:00:00.00 74723 N 0 0 0
0:00:00.00 74925 N 0 0 0
0:00:00.00 75123 N 0 0 0
0:00:00.00 75323 N 0 0 0
0:00:00.00 75514 N 0 0 0
0:00:00.00 75692 N 0 0 0
0:00:00.00 75901 N 0 0 0
0:00:00.00 76100 N 0 0 0
0:00:00.00 76293 N 0 0 0
0:00:00.00 76489 N 0 0 0
0:00:00.00 76689 N 0 0 0
0:00:00.00 76885 N 0 0 0
0:00:00.00 77076 N 0 0 0
0:00:00.00 77274 N 0 0 0
0:00:00.00 77465 N 0 0 0
0:00:00.00 77663 N 0 0 0
0:00:00.00 77870 N 0 0 0
0:00:00.00 78064 N 0 0 0
0:00:00.00 78260 N 0 0 0
0:00:00.00 78458 N 0 0 0
0:00:00.00 78656 N 0 0 0
0:00:00.00 78845 N 0 0 0
0:00:00.00 79045 N 0 0 0
0:00:00.00 79240 N 0 0 0
0:00:00.00 79438 N 0 0 0
0:00:00.00 79632 N 0 0 0
0:00:00.00 79832 N 0 0 0
0:00:00.00 80024 N 0 0 0
0:00:00.00 80219 N 0 0 0
0:00:00.00 80411 N 0 0 0
0:00:00.00 80608 N 0 0 0
0:00:00.00 80804 N 0 0 0
0:00:00.00 81007 N 0 0 0
0:00:00.00 81191 N 0 0 0
0:00:00.00 81396 N 0 0 0
0:00:00.00 81587 N 0 0 0
0:00:00.00 81781 N 0 0 0
0:00:00.00 81983 N 0 0 0
0:00:00.00 82181 N 0 0 0
0:00:00.00 82384 N 0 0 0
0:00:00.00 82580 N 0 0 0
0:00:00.00 82780 N 0 0 0
0:00:00.00 82978 N 0 0 0
0:00:00.00 83171 N 0 0 0
0:00:00.00 83362 N 0 0 0
0:00:00.00 83560 N 0 0 0
0:00:00.00 83759 N 0 0 0
0:00:00.00 83959 N 0 0 0
0:00:00.00 84154 N 0 0 0
0:00:00.00 84353 N 0 0 0
0:00:00.00 84541 N 0 0 0
0:00:00.00 84735 N 0 0 0
0:00:00.00 84935 N 0 0 0
0:00:00.00 85126 N 0 0 0
0:00:00.00 85327 N 0 0 0
0:00:00.00 85525 N 0 0 0
0:00:00.00 85723 N 0 0 0
0:00:00.00 85916 N 0 0 0
0:00:00.00 86114 N 0 0 0
0:00:00.00 86306 N 0 0 0
0:00:00.00 86506 N 0 0 0
0:00:00.00 86708 N 0 0 0
0:00:00.00 86908 N 0 0 0
0:00:00.00 87102 N 0 0 0
0:00:00.00 87304 N 0 0 0
0:00:00.00 87444 N 0 0 0
0:00:00.00 87676 N 0 0 0
0:00:00.00 87885 N 0 0 0
0:00:00.00 88079 N 0 0 0
0:00:00.00 88276 N 0 0 0
0:00:00.00 88468 N 0 0 0
0:00:00.00 88668 N 0 0 0
0:00:00.00 88861 N 0 0 0
0:00:00.00 89051 N 0 0 0
0:00:00.00 89242 N 0 0 0
0:00:00.00 89440 N 0 0 0
0:00:00.00 89640 N 0 0 0
0:00:00.00 89838 N 0 0 0
0:00:00.00 90034 N 0 0 0
0:00:00.00 90234 N 0 0 0
0:00:00.00 90425 N 0 0 0
0:00:00.00 90621 N 0 0 0
0:00:00.00 90823 N 0 0 0
0:00:00.00 91012 N 0 0 0
0:00:00.00 91211 N 0 0 0
0:00:00.00 91411 N 0 0 0
0:00:00.00 91616 N 0 0 0
0:00:00.00 91807 N 0 0 0
0:00:00.00 92005 N 0 0 0
0:00:00.00 92203 N 0 0 0
0:00:00.00 92399 N 0 0 0
0:00:00.00 92594 N 0 0 0
0:00:00.00 92790 N 0 0 0
0:00:00.00 92984 N 0 0 0
0:00:00.00 93184 N 0 0 0
0:00:00.00 93382 N 0 0 0
0:00:00.00 93571 N 0 0 0
0:00:00.00 93769 N 0 0 0
0:00:00.00 93965 N 0 0 0
0:00:00.00 94167 N 0 0 0
0:00:00.00 94365 N 0 0 0
0:00:00.00 94563 N 0 0 0
0:00:00.00 94754 N 0 0 0
0:00:00.00 94954 N 0 0 0
0:00:00.00 95148 N 0 0 0
0:00:00.00 95341 N 0 0 0
0:00:00.00 95539 N 0 0 0
0:00:00.00 95735 N 0 0 0
0:00:00.00 95933 N 0 0 0
0:00:00.00 96129 N 0 0 0
0:00:00.00 96316 N 0 0 0
0:00:00.00 96509 N 0 0 0
0:00:00.00 96701 N 0 0 0
0:00:00.00 96901 N 0 0 0
0:00:00.00 97096 N 0 0 0
0:00:00.00 97286 N 0 0 0
0:00:00.00 97492 N 0 0 0
0:00:00.00 97682 N 0 0 0
0:00:00.00 97875 N 0 0 0
0:00:00.00 98069 N 0 0 0
0:00:00.00 98266 N 0 0 0
0:00:00.00 98464 N 0 0 0
0:00:00.00 98663 N 0 0 0
0:00:00.00 98860 N 0 0 0
0:00:00.00 99059 N 0 0 0
0:00:00.00 99252 N 0 0 0
0:00:00.00 99446 N 0 0 0
0:00:00.00 99646 N 0 0 0
0:00:00.00 99839 N 0 0 0
0:00:00.00 100037 N 0 0 0
0:00:00.00 100238 N 0 0 0
0:00:00.00 100436 N 0 0 0
0:00:00.00 100640 N 0 0 0
0:00:00.00 100836 N 0 0 0
0:00:00.00 101027 N 0 0 0
0:00:00.00 101221 N 0 0 0
0:00:00.00 101421 N 0 0 0
0:00:00.00 101619 N 0 0 0
0:00:00.00 101813 N 0 0 0
0:00:00.00 102010 N 0 0 0
0:00:00.00 102182 N 0 0 0
0:00:00.00 102398 N 0 0 0
0:00:00.00 102596 N 0 0 0
0:00:00.00 102793 N 0 0 0
0:00:00.00 102994 N 0 0 0
0:00:00.00 103192 N 0 0 0
0:00:00.00 103392 N 0 0 0
0:00:00.00 103590 N 0 0 0
0:00:00.00 103792 N 0 0 0
0:00:00.00 103979 N 0 0 0
0:00:00.00 104173 N 0 0 0
0:00:00.00 104373 N 0 0 0
0:00:00.00 104584 N 0 0 0
0:00:00.00 104776 N 0 0 0
0:00:00.00 104976 N 0 0 0
0:00:00.00 105167 N 0 0 0
0:00:00.00 105367 N 0 0 0
0:00:00.00 105559 N 0 0 0
0:00:00.00 105752 N 0 0 0
0:00:00.00 105952 N 0 0 0
0:00:00.00 106119 N 0 0 0
0:00:00.00 106351 N 0 0 0
0:00:00.00 106542 N 0 0 0
0:00:00.00 106742 N 0 0 0
0:00:00.00 106940 N 0 0 0
0:00:00.00 107136 N 0 0 0
0:00:00.00 107332 N 0 0 0
0:00:00.00 107534 N 0 0 0
0:00:00.00 107732 N 0 0 0
0:00:00.00 107932 N 0 0 0
0:00:00.00 108121 N 0 0 0
0:00:00.00 108319 N 0 0 0
0:00:00.00 108515 N 0 0 0
0:00:00.00 108707 N 0 0 0
0:00:00.00 108911 N 0 0 0
0:00:00.00 109103 N 0 0 0
0:00:00.00 109303 N 0 0 0
0:00:00.00 109499 N 0 0 0
0:00:00.00 109697 N 0 0 0
0:00:00.00 109886 N 0 0 0
0:00:00.00 110077 N 0 0 0
0:00:00.00 110279 N 0 0 0
0:00:00.00 110482 N 0 0 0
0:00:00.00 110673 N 0 0 0
0:00:00.00 110875 N 0 0 0
0:00:00.00 111062 N 0 0 0
0:00:00.00 111258 N 0 0 0
0:00:00.00 111452 N 0 0 0
0:00:00.00 111643 N 0 0 0
0:00:00.00 111847 N 0 0 0
0:00:00.00 112045 N 0 0 0
0:00:00.00 112253 N 0 0 0
0:00:00.00 112451 N 0 0 0
0:00:00.00 112646 N 0 0 0
0:00:00.00 112847 N 0 0 0
0:00:00.00 113038 N 0 0 0
0:00:00.00 113234 N 0 0 0
0:00:00.00 113438 N 0 0 0
0:00:00.00 113632 N 0 0 0
0:00:00.00 113828 N 0 0 0
0:00:00.00 114019 N 0 0 0
0:00:00.00 114214 N 0 0 0
0:00:00.00 114403 N 0 0 0
0:00:00.00 114597 N 0 0 0
0:00:00.00 114799 N 0 0 0
0:00:00.00 114995 N 0 0 0
0:00:00.00 115195 N 0 0 0
0:00:00.00 115391 N 0 0 0
0:00:00.00 115592 N 0 0 0
0:00:00.00 115783 N 0 0 0
0:00:00.00 115976 N 0 0 0
0:00:00.00 116176 N 0 0 0
0:00:00.00 116377 N 0 0 0
0:00:00.00 116575 N 0 0 0
0:00:00.00 116775 N 0 0 0
0:00:00.00 116968 N 0 0 0
0:00:00.00 117162 N 0 0 0
0:00:00.00 117355 N 0 0 0
0:00:00.00 117553 N 0 0 0
0:00:00.00 117749 N 0 0 0
0:00:00.00 117947 N 0 0 0
0:00:00.00 118150 N 0 0 0
0:00:00.00 118345 N 0 0 0
0:00:00.00 118537 N 0 0 0
0:00:00.00 118730 N 0 0 0
0:00:00.00 118924 N 0 0 0
0:00:00.00 119122 N 0 0 0
0:00:00.00 119322 N 0 0 0
0:00:00.00 119518 N 0 0 0
0:00:00.00 119720 N 0 0 0
0:00:00.00 119909 N 0 0 0
0:00:00.00 120103 N 0 0 0
0:00:00.00 120298 N 0 0 0
0:00:00.00 120501 N 0 0 0
0:00:00.00 120697 N 0 0 0
0:00:00.00 120897 N 0 0 0
0:00:00.00 121097 N 0 0 0
0:00:00.00 121302 N 0 0 0
0:00:00.00 121495 N 0 0 0
0:00:00.00 121687 N 0 0 0
0:00:00.00 121885 N 0 0 0
0:00:00.00 122083 N 0 0 0
0:00:00.00 122283 N 0 0 0
0:00:00.00 122481 N 0 0 0
0:00:00.00 122683 N 0 0 0
0:00:00.00 122873 N 0 0 0
0:00:00.00 123068 N 0 0 0
0:00:00.00 123219 N 0 0 0
0:00:00.00 123457 N 0 0 0
0:00:00.00 123649 N 0 0 0
0:00:00.00 123851 N 0 0 0
0:00:00.00 124054 N 0 0 0
0:00:00.00 124250 N 0 0 0
0:00:00.00 124445 N 0 0 0
0:00:00.00 124641 N 0 0 0
0:00:00.00 124835 N 0 0 0
0:00:00.00 124999 N 0 0 0
0:00:00.00 125240 N 0 0 0
0:00:00.00 125440 N 0 0 0
0:00:00.00 125636 N 0 0 0
0:00:00.00 125831 N 0 0 0
0:00:00.00 126027 N 0 0 0
0:00:00.00 126225 N 0 0 0
0:00:00.00 126423 N 0 0 0
0:00:00.00 126616 N 0 0 0
0:00:00.00 126817 N 0 0 0
0:00:00.00 127021 N 0 0 0
0:00:00.00 127213 N 0 0 0
0:00:00.00 127408 N 0 0 0
0:00:00.00 127604 N 0 0 0
0:00:00.00 127795 N 0 0 0
0:00:00.00 127993 N 0 0 0
0:00:00.00 128198 N 0 0 0
0:00:00.00 128399 N 0 0 0
0:00:00.00 128596 N 0 0 0
0:00:00.00 128786 N 0 0 0
0:00:00.00 128981 N 0 0 0
0:00:00.00 129184 N 0 0 0
0:00:00.00 129380 N 0 0 0
0:00:00.00 129523 N 0 0 0
0:00:00.00 129766 N 0 0 0
0:00:00.00 129973 N 0 0 0
0:00:00.00 130167 N 0 0 0
0:00:00.00 130361 N 0 0 0
0:00:00.00 130558 N 0 0 0
0:00:00.00 130748 N 0 0 0
0:00:00.00 130948 N 0 0 0
0:00:00.00 131153 N 0 0 0
0:00:00.00 131350 N 0 0 0
0:00:00.00 131546 N 0 0 0
0:00:00.00 131737 N 0 0 0
0:00:00.00 131935 N 0 0 0
0:00:00.00 132125 N 0 0 0
0:00:00.00 132322 N 0 0 0
0:00:00.00 132521 N 0 0 0
0:00:00.00 132716 N 0 0 0
0:00:00.00 132917 N 0 0 0
0:00:00.00 133115 N 0 0 0
0:00:00.00 133310 N 0 0 0
0:00:00.00 133504 N 0 0 0
0:00:00.00 133700 N 0 0 0
0:00:00.00 133902 N 0 0 0
0:00:00.00 134104 N 0 0 0
0:00:00.00 134296 N 0 0 0
0:00:00.00 134456 N 0 0 0
0:00:00.00 134690 N 0 0 0
0:00:00.00 134890 N 0 0 0
0:00:00.00 135083 N 0 0 0
0:00:00.00 135283 N 0 0 0
0:00:00.00 135475 N 0 0 0
0:00:00.00 135626 N 0 0 0
0:00:00.00 135869 N 0 0 0
0:00:00.00 136067 N 0 0 0
0:00:00.00 136262 N 0 0 0
0:00:00.00 136454 N 0 0 0
0:00:00.00 136649 N 0 0 0
0:00:00.00 136854 N 0 0 0
0:00:00.00 137050 N 0 0 0
0:00:00.00 137246 N 0 0 0
0:00:00.00 137444 N 0 0 0
0:00:00.00 137639 N 0 0 0
0:00:00.00 137831 N 0 0 0
0:00:00.00 138024 N 0 0 0
0:00:00.00 138226 N 0 0 0
0:00:00.00 138418 N 0 0 0
0:00:00.00 138618 N 0 0 0
0:00:00.00 138821 N 0 0 0
0:00:00.00 139018 N 0 0 0
0:00:00.00 139212 N 0 0 0
0:00:00.00 139403 N 0 0 0
0:00:00.00 139601 N 0 0 0
0:00:00.00 139806 N 0 0 0
0:00:00.00 140004 N 0 0 0
0:00:00.00 140198 N 0 0 0
0:00:00.00 140400 N 0 0 0
0:00:00.00 140591 N 0 0 0
0:00:00.00 140787 N 0 0 0
0:00:00.00 140981 N 0 0 0
0:00:00.00 141183 N 0 0 0
0:00:00.00 141374 N 0 0 0
0:00:00.00 141577 N 0 0 0
0:00:00.00 141777 N 0 0 0
0:00:00.00 141970 N 0 0 0
0:00:00.00 142168 N 0 0 0
0:00:00.00 142369 N 0 0 0
0:00:00.00 142562 N 0 0 0
0:00:00.00 142760 N 0 0 0
0:00:00.00 142925 N 0 0 0
0:00:00.00 143165 N 0 0 0
0:00:00.00 143363 N 0 0 0
0:00:00.00 143559 N 0 0 0
0:00:00.00 143755 N 0 0 0
0:00:00.00 143950 N 0 0 0
0:00:00.00 144148 N 0 0 0
0:00:00.00 144344 N 0 0 0
0:00:00.00 144542 N 0 0 0
0:00:00.00 144738 N 0 0 0
0:00:00.00 144938 N 0 0 0
0:00:00.00 145134 N 0 0 0
0:00:00.00 145323 N 0 0 0
0:00:00.00 145517 N 0 0 0
0:00:00.00 145715 N 0 0 0
0:00:00.00 145926 N 0 0 0
0:00:00.00 146117 N 0 0 0
0:00:00.00 146315 N 0 0 0
0:00:00.00 146504 N 0 0 0
0:00:00.00 146711 N 0 0 0
0:00:00.00 146905 N 0 0 0
0:00:00.00 147101 N 0 0 0
0:00:00.00 147301 N 0 0 0
0:00:00.00 147501 N 0 0 0
0:00:00.00 147697 N 0 0 0
0:00:00.00 147893 N 0 0 0
0:00:00.00 148088 N 0 0 0
0:00:00.00 148291 N 0 0 0
0:00:00.00 148482 N 0 0 0
0:00:00.00 148676 N 0 0 0
0:00:00.00 148883 N 0 0 0
0:00:00.00 149078 N 0 0 0
0:00:00.00 149281 N 0 0 0
0:00:00.00 149468 N 0 0 0
0:00:00.00 149661 N 0 0 0
0:00:00.00 149859 N 0 0 0
0:00:00.00 150053 N 0 0 0
0:00:00.00 150246 N 0 0 0
0:00:00.00 150442 N 0 0 0
0:00:00.00 150647 N 0 0 0
0:00:00.00 150840 N 0 0 0
0:00:00.00 151038 N 0 0 0
0:00:00.00 151234 N 0 0 0
0:00:00.00 151432 N 0 0 0
0:00:00.00 151630 N 0 0 0
0:00:00.00 151832 N 0 0 0
0:00:00.00 152032 N 0 0 0
0:00:00.00 152228 N 0 0 0
0:00:00.00 152419 N 0 0 0
0:00:00.00 152618 N 0 0 0
0:00:00.00 152815 N 0 0 0
0:00:00.00 153009 N 0 0 0
0:00:00.00 153200 N 0 0 0
0:00:00.00 153400 N 0 0 0
0:00:00.00 153599 N 0 0 0
0:00:00.00 153794 N 0 0 0
0:00:00.00 153988 N 0 0 0
0:00:00.00 154190 N 0 0 0
0:00:00.00 154379 N 0 0 0
0:00:00.00 154577 N 0 0 0
0:00:00.00 154782 N 0 0 0
0:00:00.00 154980 N 0 0 0
0:00:00.00 155176 N 0 0 0
0:00:00.00 155371 N 0 0 0
0:00:00.00 155570 N 0 0 0
0:00:00.00 155761 N 0 0 0
0:00:00.00 155957 N 0 0 0
0:00:00.00 156155 N 0 0 0
0:00:00.00 156357 N 0 0 0
0:00:00.00 156557 N 0 0 0
0:00:00.00 156755 N 0 0 0
0:00:00.00 156951 N 0 0 0
0:00:00.00 157149 N 0 0 0
0:00:00.00 157336 N 0 0 0
0:00:00.00 157531 N 0 0 0
0:00:00.00 157734 N 0 0 0
0:00:00.00 157934 N 0 0 0
0:00:00.00 158126 N 0 0 0
0:00:00.00 158290 N 0 0 0
0:00:00.00 158512 N 0 0 0
0:00:00.00 158713 N 0 0 0
0:00:00.00 158909 N 0 0 0
0:00:00.00 159097 N 0 0 0
0:00:00.00 159295 N 0 0 0
0:00:00.00 159494 N 0 0 0
0:00:00.00 159691 N 0 0 0
0:00:00.00 159892 N 0 0 0
0:00:00.00 160088 N 0 0 0
0:00:00.00 160285 N 0 0 0
0:00:00.00 160481 N 0 0 0
0:00:00.00 160681 N 0 0 0
0:00:00.00 160879 N 0 0 0
0:00:00.00 161077 N 0 0 0
0:00:00.00 161271 N 0 0 0
0:00:00.00 161462 N 0 0 0
0:00:00.00 161654 N 0 0 0
0:00:00.00 161851 N 0 0 0
0:00:00.00 162040 N 0 0 0
0:00:00.00 162241 N 0 0 0
0:00:00.00 162441 N 0 0 0
0:00:00.00 162637 N 0 0 0
0:00:00.00 162830 N 0 0 0
0:00:00.00 163026 N 0 0 0
0:00:00.00 163224 N 0 0 0
0:00:00.00 163415 N 0 0 0
0:00:00.00 163618 N 0 0 0
0:00:00.00 163820 N 0 0 0
0:00:00.00 164020 N 0 0 0
0:00:00.00 164212 N 0 0 0
0:00:00.00 164408 N 0 0 0
0:00:00.00 164610 N 0 0 0
0:00:00.00 164808 N 0 0 0
0:00:00.00 164997 N 0 0 0
0:00:00.00 165204 N 0 0 0
0:00:00.00 165400 N 0 0 0
0:00:00.00 165600 N 0 0 0
0:00:00.00 165796 N 0 0 0
0:00:00.00 165994 N 0 0 0
0:00:00.00 166181 N 0 0 0
0:00:00.00 166379 N 0 0 0
0:00:00.00 166586 N 0 0 0
0:00:00.00 166786 N 0 0 0
0:00:00.00 166982 N 0 0 0
0:00:00.00 167182 N 0 0 0
0:00:00.00 167373 N 0 0 0
0:00:00.00 167560 N 0 0 0
0:00:00.00 167764 N 0 0 0
0:00:00.00 167963 N 0 0 0
0:00:00.00 168163 N 0 0 0
0:00:00.00 168361 N 0 0 0
0:00:00.00 168565 N 0 0 0
0:00:00.00 168761 N 0 0 0
0:00:00.00 168952 N 0 0 0
0:00:00.00 169144 N 0 0 0
0:00:00.00 169339 N 0 0 0
0:00:00.00 169547 N 0 0 0
0:00:00.00 169751 N 0 0 0
0:00:00.00 169949 N 0 0 0
0:00:00.00 170140 N 0 0 0
0:00:00.00 170338 N 0 0 0
0:00:00.00 170528 N 0 0 0
0:00:00.00 170726 N 0 0 0
0:00:00.00 170924 N 0 0 0
0:00:00.00 171128 N 0 0 0
0:00:00.00 171322 N 0 0 0
0:00:00.00 171522 N 0 0 0
0:00:00.00 171722 N 0 0 0
0:00:00.00 171916 N 0 0 0
0:00:00.00 172105 N 0 0 0
0:00:00.00 172309 N 0 0 0
0:00:00.00 172516 N 0 0 0
0:00:00.00 172717 N 0 0 0
0:00:00.00 172915 N 0 0 0
0:00:00.00 173110 N 0 0 0
0:00:00.00 173306 N 0 0 0
0:00:00.00 173500 N 0 0 0
0:00:00.00 173702 N 0 0 0
0:00:00.00 173898 N 0 0 0
0:00:00.00 174098 N 0 0 0
0:00:00.00 174301 N 0 0 0
0:00:00.00 174499 N 0 0 0
0:00:00.00 174692 N 0 0 0
0:00:00.00 174883 N 0 0 0
0:00:00.00 175081 N 0 0 0
0:00:00.00 175284 N 0 0 0
0:00:00.00 175486 N 0 0 0
0:00:00.00 175684 N 0 0 0
0:00:00.00 175883 N 0 0 0
0:00:00.00 176076 N 0 0 0
0:00:00.00 176274 N 0 0 0
0:00:00.00 176465 N 0 0 0
0:00:00.00 176665 N 0 0 0
0:00:00.00 176866 N 0 0 0
0:00:00.00 177043 N 0 0 0
0:00:00.00 177269 N 0 0 0
0:00:00.00 177466 N 0 0 0
0:00:00.00 177667 N 0 0 0
0:00:00.00 177862 N 0 0 0
0:00:00.00 178052 N 0 0 0
0:00:00.00 178254 N 0 0 0
0:00:00.00 178459 N 0 0 0
0:00:00.00 178657 N 0 0 0
0:00:00.00 178852 N 0 0 0
0:00:00.00 179041 N 0 0 0
0:00:00.00 179235 N 0 0 0
0:00:00.00 179435 N 0 0 0
0:00:00.00 179626 N 0 0 0
0:00:00.00 179824 N 0 0 0
0:00:00.00 180020 N 0 0 0
0:00:00.00 180207 N 0 0 0
0:00:00.00 180416 N 0 0 0
0:00:00.00 180616 N 0 0 0
0:00:00.00 180810 N 0 0 0
0:00:00.00 181004 N 0 0 0
0:00:00.00 181204 N 0 0 0
0:00:00.00 181408 N 0 0 0
0:00:00.00 181602 N 0 0 0
0:00:00.00 181807 N 0 0 0
0:00:00.00 181998 N 0 0 0
0:00:00.00 182191 N 0 0 0
0:00:00.00 182389 N 0 0 0
0:00:00.00 182567 N 0 0 0
0:00:00.00 182786 N 0 0 0
0:00:00.00 182983 N 0 0 0
0:00:00.00 183184 N 0 0 0
0:00:00.00 183377 N 0 0 0
0:00:00.00 183569 N 0 0 0
0:00:00.00 183762 N 0 0 0
0:00:00.00 183958 N 0 0 0
0:00:00.00 184156 N 0 0 0
0:00:00.00 184356 N 0 0 0
0:00:00.00 184538 N 0 0 0
0:00:00.00 184752 N 0 0 0
0:00:00.00 184930 N 0 0 0
0:00:00.00 185141 N 0 0 0
0:00:00.00 185337 N 0 0 0
0:00:00.00 185531 N 0 0 0
0:00:00.00 185728 N 0 0 0
0:00:00.00 185929 N 0 0 0
0:00:00.00 186133 N 0 0 0
0:00:00.00 186327 N 0 0 0
0:00:00.00 186521 N 0 0 0
0:00:00.00 186718 N 0 0 0
0:00:00.00 186910 N 0 0 0
0:00:00.00 187108 N 0 0 0
0:00:00.00 187319 N 0 0 0
0:00:00.00 187510 N 0 0 0
0:00:00.00 187706 N 0 0 0
0:00:00.00 187897 N 0 0 0
0:00:00.00 188093 N 0 0 0
0:00:00.00 188282 N 0 0 0
0:00:00.00 188478 N 0 0 0
0:00:00.00 188676 N 0 0 0
0:00:00.00 188876 N 0 0 0
0:00:00.00 189072 N 0 0 0
0:00:00.00 189266 N 0 0 0
0:00:00.00 189461 N 0 0 0
0:00:00.00 189662 N 0 0 0
0:00:00.00 189853 N 0 0 0
0:00:00.00 190053 N 0 0 0
0:00:00.00 190258 N 0 0 0
0:00:00.00 190460 N 0 0 0
0:00:00.00 190663 N 0 0 0
0:00:00.00 190852 N 0 0 0
0:00:00.00 191048 N 0 0 0
0:00:00.00 191245 N 0 0 0
0:00:00.00 191443 N 0 0 0
0:00:00.00 191637 N 0 0 0
0:00:00.00 191830 N 0 0 0
0:00:00.00 192033 N 0 0 0
0:00:00.00 192229 N 0 0 0
0:00:00.00 192424 N 0 0 0
0:00:00.00 192613 N 0 0 0
0:00:00.00 192811 N 0 0 0
0:00:00.00 193010 N 0 0 0
0:00:00.00 193214 N 0 0 0
0:00:00.00 193403 N 0 0 0
0:00:00.00 193603 N 0 0 0
0:00:00.00 193797 N 0 0 0
0:00:00.00 193993 N 0 0 0
0:00:00.00 194184 N 0 0 0
0:00:00.00 194386 N 0 0 0
0:00:00.00 194578 N 0 0 0
0:00:00.00 194780 N 0 0 0
0:00:00.00 194983 N 0 0 0
0:00:00.00 195183 N 0 0 0
0:00:00.00 195377 N 0 0 0
0:00:00.00 195575 N 0 0 0
0:00:00.00 195775 N 0 0 0
0:00:00.00 195975 N 0 0 0
0:00:00.00 196173 N 0 0 0
0:00:00.00 196367 N 0 0 0
0:00:00.00 196569 N 0 0 0
0:00:00.00 196762 N 0 0 0
0:00:00.00 196958 N 0 0 0
0:00:00.00 197150 N 0 0 0
0:00:00.00 197352 N 0 0 0
0:00:00.00 197545 N 0 0 0
0:00:00.00 197741 N 0 0 0
0:00:00.00 197944 N 0 0 0
0:00:00.00 198144 N 0 0 0
0:00:00.00 198342 N 0 0 0
0:00:00.00 198535 N 0 0 0
0:00:00.00 198733 N 0 0 0
0:00:00.00 198931 N 0 0 0
0:00:00.00 199138 N 0 0 0
0:00:00.00 199303 N 0 0 0
0:00:00.00 199532 N 0 0 0
0:00:00.00 199726 N 0 0 0
0:00:00.00 199922 N 0 0 0
0:00:00.00 200119 N 0 0 0
0:00:00.00 200315 N 0 0 0
0:00:00.00 200506 N 0 0 0
0:00:00.00 200704 N 0 0 0
0:00:00.00 200911 N 0 0 0
0:00:00.00 201103 N 0 0 0
0:00:00.00 201298 N 0 0 0
0:00:00.00 201494 N 0 0 0
0:00:00.00 201690 N 0 0 0
0:00:00.00 201884 N 0 0 0
0:00:00.00 202088 N 0 0 0
0:00:00.00 202284 N 0 0 0
0:00:00.00 202486 N 0 0 0
0:00:00.00 202676 N 0 0 0
0:00:00.00 202871 N 0 0 0
0:00:00.00 203071 N 0 0 0
0:00:00.00 203272 N 0 0 0
0:00:00.00 203468 N 0 0 0
0:00:00.00 203668 N 0 0 0
0:00:00.00 203870 N 0 0 0
0:00:00.00 204066 N 0 0 0
0:00:00.00 204253 N 0 0 0
0:00:00.00 204457 N 0 0 0
0:00:00.00 204658 N 0 0 0
0:00:00.00 204860 N 0 0 0
0:00:00.00 205061 N 0 0 0
0:00:00.00 205252 N 0 0 0
0:00:00.00 205457 N 0 0 0
0:00:00.00 205645 N 0 0 0
0:00:00.00 205841 N 0 0 0
0:00:00.00 206035 N 0 0 0
0:00:00.00 206233 N 0 0 0
0:00:00.00 206429 N 0 0 0
0:00:00.00 206627 N 0 0 0
0:00:00.00 206831 N 0 0 0
0:00:00.00 207029 N 0 0 0
0:00:00.00 207225 N 0 0 0
0:00:00.00 207418 N 0 0 0
0:00:00.00 207617 N 0 0 0
0:00:00.00 207817 N 0 0 0
0:00:00.00 208017 N 0 0 0
0:00:00.00 208215 N 0 0 0
0:00:00.00 208420 N 0 0 0
0:00:00.00 208606 N 0 0 0
0:00:00.00 208802 N 0 0 0
0:00:00.00 208998 N 0 0 0
0:00:00.00 209196 N 0 0 0
0:00:00.00 209392 N 0 0 0
0:00:00.00 209588 N 0 0 0
0:00:00.00 209790 N 0 0 0
0:00:00.00 209984 N 0 0 0
0:00:00.00 210179 N 0 0 0
0:00:00.00 210371 N 0 0 0
0:00:00.00 210569 N 0 0 0
0:00:00.00 210769 N 0 0 0
0:00:00.00 210971 N 0 0 0
0:00:00.00 211169 N 0 0 0
0:00:00.00 211374 N 0 0 0
0:00:00.00 211565 N 0 0 0
0:00:00.00 211761 N 0 0 0
0:00:00.00 211957 N 0 0 0
0:00:00.00 212155 N 0 0 0
0:00:00.00 212357 N 0 0 0
0:00:00.00 212528 N 0 0 0
0:00:00.00 212755 N 0 0 0
0:00:00.00 212953 N 0 0 0
0:00:00.00 213152 N 0 0 0
0:00:00.00 213341 N 0 0 0
0:00:00.00 213536 N 0 0 0
0:00:00.00 213739 N 0 0 0
0:00:00.00 213943 N 0 0 0
0:00:00.00 214133 N 0 0 0
0:00:00.00 214330 N 0 0 0
0:00:00.00 214522 N 0 0 0
0:00:00.00 214724 N 0 0 0
0:00:00.00 214920 N 0 0 0
0:00:00.00 215113 N 0 0 0
0:00:00.00 215311 N 0 0 0
0:00:00.00 215518 N 0 0 0
0:00:00.00 215719 N 0 0 0
0:00:00.00 215914 N 0 0 0
0:00:00.00 216112 N 0 0 0
0:00:00.00 216311 N 0 0 0
0:00:00.00 216506 N 0 0 0
0:00:00.00 216706 N 0 0 0
0:00:00.00 216907 N 0 0 0
0:00:00.00 217107 N 0 0 0
0:00:00.00 217309 N 0 0 0
0:00:00.00 217501 N 0 0 0
0:00:00.00 217690 N 0 0 0
0:00:00.00 217888 N 0 0 0
0:00:00.00 218084 N 0 0 0
0:00:00.00 218286 N 0 0 0
0:00:00.00 218486 N 0 0 0
0:00:00.00 218687 N 0 0 0
0:00:00.00 218880 N 0 0 0
0:00:00.00 219085 N 0 0 0
0:00:00.00 219274 N 0 0 0
0:00:00.00 219474 N 0 0 0
0:00:00.00 219677 N 0 0 0
0:00:00.00 219881 N 0 0 0
0:00:00.00 220072 N 0 0 0
0:00:00.00 220250 N 0 0 0
0:00:00.00 220473 N 0 0 0
0:00:00.00 220666 N 0 0 0
0:00:00.00 220869 N 0 0 0
0:00:00.00 221058 N 0 0 0
0:00:00.00 221260 N 0 0 0
0:00:00.00 221463 N 0 0 0
0:00:00.00 221661 N 0 0 0
0:00:00.00 221852 N 0 0 0
0:00:00.00 222050 N 0 0 0
0:00:00.00 222241 N 0 0 0
0:00:00.00 222439 N 0 0 0
0:00:00.00 222642 N 0 0 0
0:00:00.00 222840 N 0 0 0
0:00:00.00 223036 N 0 0 0
0:00:00.00 223232 N 0 0 0
0:00:00.00 223430 N 0 0 0
0:00:00.00 223621 N 0 0 0
0:00:00.00 223821 N 0 0 0
0:00:00.00 224012 N 0 0 0
0:00:00.00 224221 N 0 0 0
0:00:00.00 224417 N 0 0 0
0:00:00.00 224617 N 0 0 0
0:00:00.00 224813 N 0 0 0
0:00:00.00 225007 N 0 0 0
0:00:00.00 225209 N 0 0 0
0:00:00.00 225401 N 0 0 0
0:00:00.00 225608 N 0 0 0
0:00:00.00 225810 N 0 0 0
0:00:00.00 226015 N 0 0 0
0:00:00.00 226210 N 0 0 0
0:00:00.00 226400 N 0 0 0
0:00:00.00 226595 N 0 0 0
0:00:00.00 226800 N 0 0 0
0:00:00.00 226987 N 0 0 0
0:00:00.00 227187 N 0 0 0
0:00:00.00 227385 N 0 0 0
0:00:00.00 227594 N 0 0 0
0:00:00.00 227785 N 0 0 0
0:00:00.00 227979 N 0 0 0
0:00:00.00 228170 N 0 0 0
0:00:00.00 228377 N 0 0 0
0:00:00.00 228584 N 0 0 0
0:00:00.00 228782 N 0 0 0
0:00:00.00 228982 N 0 0 0
0:00:00.00 229136 N 0 0 0
0:00:00.00 229372 N 0 0 0
0:00:00.00 229567 N 0 0 0
0:00:00.00 229772 N 0 0 0
0:00:00.00 229966 N 0 0 0
0:00:00.00 230166 N 0 0 0
0:00:00.00 230366 N 0 0 0
0:00:00.00 230569 N 0 0 0
0:00:00.00 230762 N 0 0 0
0:00:00.00 230958 N 0 0 0
0:00:00.00 231154 N 0 0 0
0:00:00.00 231341 N 0 0 0
0:00:00.00 231559 N 0 0 0
0:00:00.00 231757 N 0 0 0
0:00:00.00 231910 N 0 0 0
0:00:00.00 232146 N 0 0 0
0:00:00.00 232346 N 0 0 0
0:00:00.00 232537 N 0 0 0
0:00:00.00 232744 N 0 0 0
0:00:00.00 232940 N 0 0 0
0:00:00.00 233136 N 0 0 0
0:00:00.00 233341 N 0 0 0
0:00:00.00 233543 N 0 0 0
0:00:00.00 233710 N 0 0 0
0:00:00.00 233932 N 0 0 0
0:00:00.00 234131 N 0 0 0
0:00:00.00 234333 N 0 0 0
0:00:00.00 234535 N 0 0 0
0:00:00.00 234733 N 0 0 0
0:00:00.00 234934 N 0 0 0
0:00:00.00 235125 N 0 0 0
0:00:00.00 235323 N 0 0 0
0:00:00.00 235516 N 0 0 0
0:00:00.00 235719 N 0 0 0
0:00:00.00 235913 N 0 0 0
0:00:00.00 236111 N 0 0 0
0:00:00.00 236318 N 0 0 0
0:00:00.00 236516 N 0 0 0
0:00:00.00 236713 N 0 0 0
0:00:00.00 236907 N 0 0 0
0:00:00.00 237109 N 0 0 0
0:00:00.00 237310 N 0 0 0
0:00:00.00 237512 N 0 0 0
0:00:00.00 237710 N 0 0 0
0:00:00.00 237910 N 0 0 0
0:00:00.00 238106 N 0 0 0
0:00:00.00 238309 N 0 0 0
0:00:00.00 238505 N 0 0 0
0:00:00.00 238703 N 0 0 0
0:00:00.00 238900 N 0 0 0
0:00:00.00 239108 N 0 0 0
0:00:00.00 239310 N 0 0 0
0:00:00.00 239508 N 0 0 0
0:00:00.00 239702 N 0 0 0
0:00:00.00 239902 N 0 0 0
0:00:00.00 240097 N 0 0 0
0:00:00.00 240295 N 0 0 0
0:00:00.00 240500 N 0 0 0
0:00:00.00 240700 N 0 0 0
0:00:00.00 240896 N 0 0 0
0:00:00.00 241087 N 0 0 0
0:00:00.00 241285 N 0 0 0
0:00:00.00 241488 N 0 0 0
0:00:00.00 241686 N 0 0 0
0:00:00.00 241882 N 0 0 0
0:00:00.00 242082 N 0 0 0
0:00:00.00 242291 N 0 0 0
0:00:00.00 242487 N 0 0 0
0:00:00.00 242683 N 0 0 0
0:00:00.00 242879 N 0 0 0
0:00:00.00 243079 N 0 0 0
0:00:00.00 243283 N 0 0 0
0:00:00.00 243482 N 0 0 0
0:00:00.00 243679 N 0 0 0
0:00:00.00 243884 N 0 0 0
0:00:00.00 244073 N 0 0 0
0:00:00.00 244267 N 0 0 0
0:00:00.00 244471 N 0 0 0
0:00:00.00 244665 N 0 0 0
0:00:00.00 244867 N 0 0 0
0:00:00.00 245066 N 0 0 0
0:00:00.00 245272 N 0 0 0
0:00:00.00 245464 N 0 0 0
0:00:00.00 245660 N 0 0 0
0:00:00.00 245858 N 0 0 0
0:00:00.00 246056 N 0 0 0
0:00:00.00 246258 N 0 0 0
0:00:00.00 246463 N 0 0 0
0:00:00.00 246663 N 0 0 0
0:00:00.00 246863 N 0 0 0
0:00:00.00 247054 N 0 0 0
0:00:00.00 247255 N 0 0 0
0:00:00.00 247455 N 0 0 0
0:00:00.00 247646 N 0 0 0
0:00:00.00 247853 N 0 0 0
0:00:00.00 248049 N 0 0 0
0:00:00.00 248251 N 0 0 0
0:00:00.00 248445 N 0 0 0
0:00:00.00 248645 N 0 0 0
0:00:00.00 248836 N 0 0 0
0:00:00.00 249032 N 0 0 0
0:00:00.00 249241 N 0 0 0
0:00:00.00 249440 N 0 0 0
0:00:00.00 249640 N 0 0 0
0:00:00.00 249838 N 0 0 0
0:00:00.00 250034 N 0 0 0
0:00:00.00 250229 N 0 0 0
0:00:00.00 250429 N 0 0 0
0:00:00.00 250625 N 0 0 0
0:00:00.00 250832 N 0 0 0
0:00:00.00 251032 N 0 0 0
0:00:00.00 251230 N 0 0 0
0:00:00.00 251429 N 0 0 0
0:00:00.00 251631 N 0 0 0
0:00:00.00 251824 N 0 0 0
0:00:00.00 252022 N 0 0 0
0:00:00.00 252229 N 0 0 0
0:00:00.00 252430 N 0 0 0
0:00:00.00 252628 N 0 0 0
0:00:00.00 252821 N 0 0 0
0:00:00.00 253017 N 0 0 0
0:00:00.00 253213 N 0 0 0
0:00:00.00 253413 N 0 0 0
0:00:00.00 253607 N 0 0 0
0:00:00.00 253807 N 0 0 0
0:00:00.00 254003 N 0 0 0
0:00:00.00 254205 N 0 0 0
0:00:00.00 254403 N 0 0 0
0:00:00.00 254596 N 0 0 0
0:00:00.00 254794 N 0 0 0
0:00:00.00 254999 N 0 0 0
0:00:00.00 255206 N 0 0 0
0:00:00.00 255404 N 0 0 0
0:00:00.00 255602 N 0 0 0
0:00:00.00 255800 N 0 0 0
0:00:00.00 255994 N 0 0 0
0:00:00.00 256189 N 0 0 0
0:00:00.00 256392 N 0 0 0
0:00:00.00 256586 N 0 0 0
0:00:00.00 256784 N 0 0 0
0:00:00.00 256991 N 0 0 0
0:00:00.00 257184 N 0 0 0
0:00:00.00 257380 N 0 0 0
0:00:00.00 257580 N 0 0 0
0:00:00.00 257774 N 0 0 0
0:00:00.00 257974 N 0 0 0
0:00:00.00 258176 N 0 0 0
0:00:00.00 258379 N 0 0 0
0:00:00.00 258577 N 0 0 0
0:00:00.00 258770 N 0 0 0
0:00:00.00 258971 N 0 0 0
0:00:00.00 259166 N 0 0 0
0:00:00.00 259366 N 0 0 0
0:00:00.00 259567 N 0 0 0
0:00:00.00 259769 N 0 0 0
0:00:00.00 259976 N 0 0 0
0:00:00.00 260176 N 0 0 0
0:00:00.00 260375 N 0 0 0
0:00:00.00 260570 N 0 0 0
0:00:00.00 260768 N 0 0 0
0:00:00.00 260968 N 0 0 0
0:00:00.00 261175 N 0 0 0
0:00:00.00 261365 N 0 0 0
0:00:00.00 261565 N 0 0 0
0:00:00.00 261761 N 0 0 0
0:00:00.00 261954 N 0 0 0
0:00:00.00 262156 N 0 0 0
0:00:00.00 262352 N 0 0 0
0:00:00.00 262543 N 0 0 0
0:00:00.00 262751 N 0 0 0
0:00:00.00 262958 N 0 0 0
0:00:00.00 263156 N 0 0 0
0:00:00.00 263354 N 0 0 0
0:00:00.00 263552 N 0 0 0
0:00:00.00 263752 N 0 0 0
0:00:00.00 263954 N 0 0 0
0:00:00.00 264161 N 0 0 0
0:00:00.00 264359 N 0 0 0
0:00:00.00 264557 N 0 0 0
0:00:00.00 264753 N 0 0 0
0:00:00.00 264947 N 0 0 0
0:00:00.00 265149 N 0 0 0
0:00:00.00 265343 N 0 0 0
0:00:00.00 265550 N 0 0 0
0:00:00.00 265745 N 0 0 0
0:00:00.00 265948 N 0 0 0
0:00:00.00 266143 N 0 0 0
0:00:00.00 266337 N 0 0 0
0:00:00.00 266531 N 0 0 0
0:00:00.00 266729 N 0 0 0
0:00:00.00 266942 N 0 0 0
0:00:00.00 267142 N 0 0 0
0:00:00.00 267340 N 0 0 0
0:00:00.00 267538 N 0 0 0
0:00:00.00 267743 N 0 0 0
0:00:00.00 267939 N 0 0 0
0:00:00.00 268142 N 0 0 0
0:00:00.00 268339 N 0 0 0
0:00:00.00 268538 N 0 0 0
0:00:00.00 268742 N 0 0 0
0:00:00.00 268943 N 0 0 0
0:00:00.00 269140 N 0 0 0
0:00:00.00 269334 N 0 0 0
0:00:00.00 269530 N 0 0 0
0:00:00.00 269730 N 0 0 0
0:00:00.00 269933 N 0 0 0
0:00:00.00 270133 N 0 0 0
0:00:00.00 270338 N 0 0 0
0:00:00.00 270527 N 0 0 0
0:00:00.00 270727 N 0 0 0
0:00:00.00 270923 N 0 0 0
0:00:00.00 271121 N 0 0 0
0:00:00.00 271316 N 0 0 0
0:00:00.00 271523 N 0 0 0
0:00:00.00 271728 N 0 0 0
0:00:00.00 271922 N 0 0 0
0:00:00.00 272124 N 0 0 0
0:00:00.00 272322 N 0 0 0
0:00:00.00 272516 N 0 0 0
0:00:00.00 272720 N 0 0 0
0:00:00.00 272927 N 0 0 0
0:00:00.00 273123 N 0 0 0
0:00:00.00 273328 N 0 0 0
0:00:00.00 273521 N 0 0 0
0:00:00.00 273717 N 0 0 0
0:00:00.00 273911 N 0 0 0
0:00:00.00 274113 N 0 0 0
0:00:00.00 274313 N 0 0 0
0:00:00.00 274507 N 0 0 0
0:00:00.00 274711 N 0 0 0
0:00:00.00 274912 N 0 0 0
0:00:00.00 275108 N 0 0 0
0:00:00.00 275303 N 0 0 0
0:00:00.00 275501 N 0 0 0
0:00:00.00 275708 N 0 0 0
0:00:00.00 275911 N 0 0 0
0:00:00.00 276111 N 0 0 0
0:00:00.00 276313 N 0 0 0
0:00:00.00 276507 N 0 0 0
0:00:00.00 276707 N 0 0 0
0:00:00.00 276910 N 0 0 0
0:00:00.00 277105 N 0 0 0
0:00:00.00 277306 N 0 0 0
0:00:00.00 277510 N 0 0 0
0:00:00.00 277713 N 0 0 0
0:00:00.00 277906 N 0 0 0
0:00:00.00 278111 N 0 0 0
0:00:00.00 278300 N 0 0 0
0:00:00.00 278500 N 0 0 0
0:00:00.00 278703 N 0 0 0
0:00:00.00 278906 N 0 0 0
0:00:00.00 279101 N 0 0 0
0:00:00.00 279275 N 0 0 0
0:00:00.00 279499 N 0 0 0
0:00:00.00 279695 N 0 0 0
0:00:00.00 279895 N 0 0 0
0:00:00.00 280094 N 0 0 0
0:00:00.00 280294 N 0 0 0
0:00:00.00 280494 N 0 0 0
0:00:00.00 280701 N 0 0 0
0:00:00.00 280906 N 0 0 0
0:00:00.00 281102 N 0 0 0
0:00:00.00 281295 N 0 0 0
0:00:00.00 281491 N 0 0 0
0:00:00.00 281704 N 0 0 0
0:00:00.00 281903 N 0 0 0
0:00:00.00 282098 N 0 0 0
0:00:00.00 282296 N 0 0 0
0:00:00.00 282492 N 0 0 0
0:00:00.00 282688 N 0 0 0
0:00:00.00 282888 N 0 0 0
0:00:00.00 283081 N 0 0 0
0:00:00.00 283288 N 0 0 0
0:00:00.00 283482 N 0 0 0
0:00:00.00 283684 N 0 0 0
0:00:00.00 283878 N 0 0 0
0:00:00.00 284080 N 0 0 0
0:00:00.00 284272 N 0 0 0
0:00:00.00 284470 N 0 0 0
0:00:00.00 284674 N 0 0 0
0:00:00.00 284879 N 0 0 0
0:00:00.00 285080 N 0 0 0
0:00:00.00 285277 N 0 0 0
0:00:00.00 285471 N 0 0 0
0:00:00.00 285671 N 0 0 0
0:00:00.00 285878 N 0 0 0
0:00:00.00 286072 N 0 0 0
0:00:00.00 286272 N 0 0 0
0:00:00.00 286468 N 0 0 0
0:00:00.00 286675 N 0 0 0
0:00:00.00 286871 N 0 0 0
0:00:00.00 287068 N 0 0 0
0:00:00.00 287264 N 0 0 0
0:00:00.00 287464 N 0 0 0
0:00:00.00 287667 N 0 0 0
0:00:00.00 287861 N 0 0 0
0:00:00.00 288061 N 0 0 0
0:00:00.00 288257 N 0 0 0
0:00:00.00 288452 N 0 0 0
0:00:00.00 288646 N 0 0 0
0:00:00.00 288850 N 0 0 0
0:00:00.00 289039 N 0 0 0
0:00:00.00 289240 N 0 0 0
0:00:00.00 289444 N 0 0 0
0:00:00.00 289622 N 0 0 0
0:00:00.00 289843 N 0 0 0
0:00:00.00 290039 N 0 0 0
0:00:00.00 290239 N 0 0 0
0:00:00.00 290437 N 0 0 0
0:00:00.00 290639 N 0 0 0
0:00:00.00 290835 N 0 0 0
0:00:00.00 291042 N 0 0 0
0:00:00.00 291235 N 0 0 0
0:00:00.00 291427 N 0 0 0
0:00:00.00 291620 N 0 0 0
0:00:00.00 291818 N 0 0 0
0:00:00.00 292014 N 0 0 0
0:00:00.00 292212 N 0 0 0
0:00:00.00 292421 N 0 0 0
0:00:00.00 292613 N 0 0 0
0:00:00.00 292810 N 0 0 0
0:00:00.00 293008 N 0 0 0
0:00:00.00 293204 N 0 0 0
0:00:00.00 293400 N 0 0 0
0:00:00.00 293605 N 0 0 0
0:00:00.00 293809 N 0 0 0
0:00:00.00 294008 N 0 0 0
0:00:00.00 294197 N 0 0 0
0:00:00.00 294395 N 0 0 0
0:00:00.00 294595 N 0 0 0
0:00:00.00 294790 N 0 0 0
0:00:00.00 294984 N 0 0 0
0:00:00.00 295184 N 0 0 0
0:00:00.00 295385 N 0 0 0
0:00:00.00 295562 N 0 0 0
0:00:00.00 295790 N 0 0 0
0:00:00.00 295981 N 0 0 0
0:00:00.00 296177 N 0 0 0
0:00:00.00 296386 N 0 0 0
0:00:00.00 296584 N 0 0 0
0:00:00.00 296779 N 0 0 0
0:00:00.00 296977 N 0 0 0
0:00:00.00 297175 N 0 0 0
0:00:00.00 297376 N 0 0 0
0:00:00.00 297572 N 0 0 0
0:00:00.00 297769 N 0 0 0
0:00:00.00 297972 N 0 0 0
0:00:00.00 298177 N 0 0 0
0:00:00.00 298382 N 0 0 0
0:00:00.00 298575 N 0 0 0
0:00:00.00 298777 N 0 0 0
0:00:00.00 298971 N 0 0 0
0:00:00.00 299178 N 0 0 0
0:00:00.00 299378 N 0 0 0
0:00:00.00 299579 N 0 0 0
0:00:00.00 299776 N 0 0 0
0:00:00.00 299983 N 0 0 0
0:00:00.00 300172 N 0 0 0
0:00:00.00 300364 N 0 0 0
0:00:00.00 300569 N 0 0 0
0:00:00.00 300769 N 0 0 0
0:00:00.00 300965 N 0 0 0
0:00:00.00 301169 N 0 0 0
0:00:00.00 301374 N 0 0 0
0:00:00.00 301577 N 0 0 0
0:00:00.00 301772 N 0 0 0
0:00:00.00 301963 N 0 0 0
0:00:00.00 302170 N 0 0 0
0:00:00.00 302380 N 0 0 0
0:00:00.00 302580 N 0 0 0
0:00:00.00 302776 N 0 0 0
0:00:00.00 302974 N 0 0 0
0:00:00.00 303176 N 0 0 0
0:00:00.00 303370 N 0 0 0
0:00:00.00 303568 N 0 0 0
0:00:00.00 303766 N 0 0 0
0:00:00.00 303975 N 0 0 0
0:00:00.00 304175 N 0 0 0
0:00:00.00 304371 N 0 0 0
0:00:00.00 304573 N 0 0 0
0:00:00.00 304772 N 0 0 0
0:00:00.00 304969 N 0 0 0
0:00:00.00 305167 N 0 0 0
0:00:00.00 305379 N 0 0 0
0:00:00.00 305530 N 0 0 0
0:00:00.00 305770 N 0 0 0
0:00:00.00 305966 N 0 0 0
0:00:00.00 306167 N 0 0 0
0:00:00.00 306371 N 0 0 0
0:00:00.00 306567 N 0 0 0
0:00:00.00 306769 N 0 0 0
0:00:00.00 306968 N 0 0 0
0:00:00.00 307181 N 0 0 0
0:00:00.00 307377 N 0 0 0
0:00:00.00 307575 N 0 0 0
0:00:00.00 307773 N 0 0 0
0:00:00.00 307971 N 0 0 0
0:00:00.00 308174 N 0 0 0
0:00:00.00 308378 N 0 0 0
0:00:00.00 308578 N 0 0 0
0:00:00.00 308758 N 0 0 0
0:00:00.00 308970 N 0 0 0
0:00:00.00 309170 N 0 0 0
0:00:00.00 309377 N 0 0 0
0:00:00.00 309571 N 0 0 0
0:00:00.00 309775 N 0 0 0
0:00:00.00 309971 N 0 0 0
0:00:00.00 310180 N 0 0 0
0:00:00.00 310378 N 0 0 0
0:00:00.00 310574 N 0 0 0
0:00:00.00 310768 N 0 0 0
0:00:00.00 310968 N 0 0 0
0:00:00.00 311182 N 0 0 0
0:00:00.00 311387 N 0 0 0
0:00:00.00 311585 N 0 0 0
0:00:00.00 311787 N 0 0 0
0:00:00.00 311987 N 0 0 0
0:00:00.00 312181 N 0 0 0
0:00:00.00 312379 N 0 0 0
0:00:00.00 312581 N 0 0 0
0:00:00.00 312782 N 0 0 0
0:00:00.00 312979 N 0 0 0
0:00:00.00 313182 N 0 0 0
0:00:00.00 313378 N 0 0 0
0:00:00.00 313574 N 0 0 0
0:00:00.00 313763 N 0 0 0
0:00:00.00 313969 N 0 0 0
0:00:00.00 314176 N 0 0 0
0:00:00.00 314377 N 0 0 0
0:00:00.00 314575 N 0 0 0
0:00:00.00 314764 N 0 0 0
0:00:00.00 314966 N 0 0 0
0:00:00.00 315155 N 0 0 0
0:00:00.00 315364 N 0 0 0
0:00:00.00 315567 N 0 0 0
0:00:00.00 315772 N 0 0 0
0:00:00.00 315974 N 0 0 0
0:00:00.00 316174 N 0 0 0
0:00:00.00 316379 N 0 0 0
0:00:00.00 316575 N 0 0 0
0:00:00.00 316769 N 0 0 0
0:00:00.00 316971 N 0 0 0
0:00:00.00 317176 N 0 0 0
0:00:00.00 317372 N 0 0 0
0:00:00.00 317574 N 0 0 0
0:00:00.00 317765 N 0 0 0
0:00:00.00 317968 N 0 0 0
0:00:00.00 318172 N 0 0 0
0:00:00.00 318312 N 0 0 0
0:00:00.00 318454 N 0 0 0
0:00:00.00 318751 N 0 0 0
0:00:00.00 318965 N 0 0 0
0:00:00.00 319162 N 0 0 0
0:00:00.00 319360 N 0 0 0
0:00:00.00 319556 N 0 0 0
0:00:00.00 319759 N 0 0 0
0:00:00.00 319955 N 0 0 0
0:00:00.00 320164 N 0 0 0
0:00:00.00 320360 N 0 0 0
0:00:00.00 320557 N 0 0 0
0:00:00.00 320751 N 0 0 0
0:00:00.00 320951 N 0 0 0
0:00:00.00 321147 N 0 0 0
0:00:00.00 321341 N 0 0 0
0:00:00.00 321545 N 0 0 0
0:00:00.00 321736 N 0 0 0
0:00:00.00 321937 N 0 0 0
0:00:00.00 322133 N 0 0 0
0:00:00.00 322331 N 0 0 0
0:00:00.00 322513 N 0 0 0
0:00:00.00 322722 N 0 0 0
0:00:00.00 322929 N 0 0 0
0:00:00.00 323132 N 0 0 0
0:00:00.00 323327 N 0 0 0
0:00:00.00 323527 N 0 0 0
0:00:00.00 323725 N 0 0 0
0:00:00.00 323923 N 0 0 0
0:00:00.00 324121 N 0 0 0
0:00:00.00 324320 N 0 0 0
0:00:00.00 324522 N 0 0 0
0:00:00.00 324716 N 0 0 0
0:00:00.00 324922 N 0 0 0
0:00:00.00 325123 N 0 0 0
0:00:00.00 325321 N 0 0 0
0:00:00.00 325512 N 0 0 0
0:00:00.00 325715 N 0 0 0
0:00:00.00 325917 N 0 0 0
0:00:00.00 326115 N 0 0 0
0:00:00.00 326309 N 0 0 0
0:00:00.00 326518 N 0 0 0
0:00:00.00 326707 N 0 0 0
0:00:00.00 326896 N 0 0 0
0:00:00.00 327107 N 0 0 0
0:00:00.00 327305 N 0 0 0
0:00:00.00 327510 N 0 0 0
0:00:00.00 327704 N 0 0 0
0:00:00.00 327917 N 0 0 0
0:00:00.00 328109 N 0 0 0
0:00:00.00 328311 N 0 0 0
0:00:00.00 328509 N 0 0 0
0:00:00.00 328707 N 0 0 0
0:00:00.00 328914 N 0 0 0
0:00:00.00 329123 N 0 0 0
0:00:00.00 329321 N 0 0 0
0:00:00.00 329519 N 0 0 0
0:00:00.00 329717 N 0 0 0
0:00:00.00 329920 N 0 0 0
0:00:00.00 330118 N 0 0 0
0:00:00.00 330314 N 0 0 0
0:00:00.00 330520 N 0 0 0
0:00:00.00 330718 N 0 0 0
0:00:00.00 330923 N 0 0 0
0:00:00.00 331119 N 0 0 0
0:00:00.00 331319 N 0 0 0
0:00:00.00 331517 N 0 0 0
0:00:00.00 331718 N 0 0 0
0:00:00.00 331882 N 0 0 0
0:00:00.00 332122 N 0 0 0
0:00:00.00 332323 N 0 0 0
0:00:00.00 332525 N 0 0 0
0:00:00.00 332728 N 0 0 0
0:00:00.00 332869 N 0 0 0
0:00:00.00 333112 N 0 0 0
0:00:00.00 333319 N 0 0 0
0:00:00.00 333524 N 0 0 0
0:00:00.00 333727 N 0 0 0
0:00:00.00 333923 N 0 0 0
0:00:00.00 334130 N 0 0 0
0:00:00.00 334321 N 0 0 0
0:00:00.00 334517 N 0 0 0
0:00:00.00 334724 N 0 0 0
0:00:00.00 334928 N 0 0 0
0:00:00.00 335129 N 0 0 0
0:00:00.00 335331 N 0 0 0
0:00:00.00 335520 N 0 0 0
0:00:00.00 335722 N 0 0 0
0:00:00.00 335927 N 0 0 0
0:00:00.00 336123 N 0 0 0
0:00:00.00 336323 N 0 0 0
0:00:00.00 336523 N 0 0 0
0:00:00.00 336737 N 0 0 0
0:00:00.00 336933 N 0 0 0
0:00:00.00 337131 N 0 0 0
0:00:00.00 337329 N 0 0 0
0:00:00.00 337532 N 0 0 0
0:00:00.00 337738 N 0 0 0
0:00:00.00 337941 N 0 0 0
0:00:00.00 338141 N 0 0 0
0:00:00.00 338337 N 0 0 0
0:00:00.00 338535 N 0 0 0
0:00:00.00 338735 N 0 0 0
0:00:00.00 338938 N 0 0 0
0:00:00.00 339129 N 0 0 0
0:00:00.00 339334 N 0 0 0
0:00:00.00 339541 N 0 0 0
0:00:00.00 339737 N 0 0 0
0:00:00.00 339898 N 0 0 0
0:00:00.00 340135 N 0 0 0
0:00:00.00 340333 N 0 0 0
0:00:00.00 340535 N 0 0 0
0:00:00.00 340742 N 0 0 0
0:00:00.00 340947 N 0 0 0
0:00:00.00 341147 N 0 0 0
0:00:00.00 341343 N 0 0 0
0:00:00.00 341548 N 0 0 0
0:00:00.00 341744 N 0 0 0
0:00:00.00 341946 N 0 0 0
0:00:00.00 342148 N 0 0 0
0:00:00.00 342347 N 0 0 0
0:00:00.00 342553 N 0 0 0
0:00:00.00 342758 N 0 0 0
0:00:00.00 342952 N 0 0 0
0:00:00.00 343147 N 0 0 0
0:00:00.00 343348 N 0 0 0
0:00:00.00 343550 N 0 0 0
0:00:00.00 343755 N 0 0 0
0:00:00.00 343953 N 0 0 0
0:00:00.00 344153 N 0 0 0
0:00:00.00 344344 N 0 0 0
0:00:00.00 344540 N 0 0 0
0:00:00.00 344747 N 0 0 0
0:00:00.00 344941 N 0 0 0
0:00:00.00 345141 N 0 0 0
0:00:00.00 345344 N 0 0 0
0:00:00.00 345551 N 0 0 0
0:00:00.00 345749 N 0 0 0
0:00:00.00 345949 N 0 0 0
0:00:00.00 346149 N 0 0 0
0:00:00.00 346347 N 0 0 0
0:00:00.00 346550 N 0 0 0
0:00:00.00 346756 N 0 0 0
0:00:00.00 346955 N 0 0 0
0:00:00.00 347155 N 0 0 0
0:00:00.00 347350 N 0 0 0
0:00:00.00 347546 N 0 0 0
0:00:00.00 347747 N 0 0 0
0:00:00.00 347942 N 0 0 0
0:00:00.00 348145 N 0 0 0
0:00:00.00 348350 N 0 0 0
0:00:00.00 348550 N 0 0 0
0:00:00.00 348743 N 0 0 0
0:00:00.00 348939 N 0 0 0
0:00:00.00 349133 N 0 0 0
0:00:00.00 349328 N 0 0 0
0:00:00.00 349537 N 0 0 0
0:00:00.00 349745 N 0 0 0
0:00:00.00 349945 N 0 0 0
0:00:00.00 350141 N 0 0 0
0:00:00.00 350338 N 0 0 0
0:00:00.00 350536 N 0 0 0
0:00:00.00 350739 N 0 0 0
0:00:00.00 350939 N 0 0 0
0:00:00.00 351144 N 0 0 0
0:00:00.00 351342 N 0 0 0
0:00:00.00 351544 N 0 0 0
0:00:00.00 351738 N 0 0 0
0:00:00.00 351934 N 0 0 0
0:00:00.00 352123 N 0 0 0
0:00:00.00 352321 N 0 0 0
0:00:00.00 352526 N 0 0 0
0:00:00.00 352723 N 0 0 0
0:00:00.00 352921 N 0 0 0
0:00:00.00 353115 N 0 0 0
0:00:00.00 353315 N 0 0 0
0:00:00.00 353507 N 0 0 0
0:00:00.00 353704 N 0 0 0
0:00:00.00 353898 N 0 0 0
0:00:00.00 354105 N 0 0 0
0:00:00.00 354308 N 0 0 0
0:00:00.00 354503 N 0 0 0
0:00:00.00 354706 N 0 0 0
0:00:00.00 354901 N 0 0 0
0:00:00.00 355093 N 0 0 0
0:00:00.00 355295 N 0 0 0
0:00:00.00 355498 N 0 0 0
0:00:00.00 355696 N 0 0 0
0:00:00.00 355894 N 0 0 0
0:00:00.00 356087 N 0 0 0
0:00:00.00 356283 N 0 0 0
0:00:00.00 356476 N 0 0 0
0:00:00.00 356674 N 0 0 0
0:00:00.00 356872 N 0 0 0
0:00:00.00 357071 N 0 0 0
0:00:00.00 357278 N 0 0 0
0:00:00.00 357475 N 0 0 0
0:00:00.00 357674 N 0 0 0
0:00:00.00 357867 N 0 0 0
0:00:00.00 358060 N 0 0 0
0:00:00.00 358265 N 0 0 0
0:00:00.00 358452 N 0 0 0
0:00:00.00 358668 N 0 0 0
0:00:00.00 358873 N 0 0 0
0:00:00.00 359064 N 0 0 0
0:00:00.00 359260 N 0 0 0
0:00:00.00 359453 N 0 0 0
0:00:00.00 359647 N 0 0 0
0:00:00.00 359843 N 0 0 0
0:00:00.00 360045 N 0 0 0
0:00:00.00 360245 N 0 0 0
0:00:00.00 360396 N 0 0 0
0:00:00.00 360630 N 0 0 0
0:00:00.00 360823 N 0 0 0
0:00:00.00 361015 N 0 0 0
0:00:00.00 361210 N 0 0 0
0:00:00.00 361417 N 0 0 0
0:00:00.00 361613 N 0 0 0
0:00:00.00 361811 N 0 0 0
0:00:00.00 362002 N 0 0 0
0:00:00.00 362192 N 0 0 0
0:00:00.00 362389 N 0 0 0
0:00:00.00 362592 N 0 0 0
0:00:00.00 362785 N 0 0 0
0:00:00.00 362983 N 0 0 0
0:00:00.00 363188 N 0 0 0
0:00:00.00 363389 N 0 0 0
0:00:00.00 363589 N 0 0 0
0:00:00.00 363782 N 0 0 0
0:00:00.00 363980 N 0 0 0
0:00:00.00 364185 N 0 0 0
0:00:00.00 364390 N 0 0 0
0:00:00.00 364588 N 0 0 0
0:00:00.00 364793 N 0 0 0
0:00:00.00 364988 N 0 0 0
0:00:00.00 365182 N 0 0 0
0:00:00.00 365382 N 0 0 0
0:00:00.00 365582 N 0 0 0
0:00:00.00 365783 N 0 0 0
0:00:00.00 365983 N 0 0 0
0:00:00.00 366190 N 0 0 0
0:00:00.00 366394 N 0 0 0
0:00:00.00 366593 N 0 0 0
0:00:00.00 366788 N 0 0 0
0:00:00.00 366993 N 0 0 0
0:00:00.00 367205 N 0 0 0
0:00:00.00 367411 N 0 0 0
0:00:00.00 367609 N 0 0 0
0:00:00.00 367816 N 0 0 0
0:00:00.00 368012 N 0 0 0
0:00:00.00 368208 N 0 0 0
0:00:00.00 368413 N 0 0 0
0:00:00.00 368617 N 0 0 0
0:00:00.00 368820 N 0 0 0
0:00:00.00 369018 N 0 0 0
0:00:00.00 369225 N 0 0 0
0:00:00.00 369427 N 0 0 0
0:00:00.00 369625 N 0 0 0
0:00:00.00 369817 N 0 0 0
0:00:00.00 370021 N 0 0 0
0:00:00.00 370233 N 0 0 0
0:00:00.00 370433 N 0 0 0
0:00:00.00 370634 N 0 0 0
0:00:00.00 370836 N 0 0 0
0:00:00.00 371036 N 0 0 0
0:00:00.00 371236 N 0 0 0
0:00:00.00 371441 N 0 0 0
0:00:00.00 371642 N 0 0 0
0:00:00.00 371846 N 0 0 0
0:00:00.00 372055 N 0 0 0
0:00:00.00 372258 N 0 0 0
0:00:00.00 372460 N 0 0 0
0:00:00.00 372654 N 0 0 0
0:00:00.00 372856 N 0 0 0
0:00:00.00 373068 N 0 0 0
0:00:00.00 373273 N 0 0 0
0:00:00.00 373469 N 0 0 0
0:00:00.00 373680 N 0 0 0
0:00:00.00 373873 N 0 0 0
0:00:00.00 374071 N 0 0 0
0:00:00.00 374274 N 0 0 0
0:00:00.00 374476 N 0 0 0
0:00:00.00 374679 N 0 0 0
0:00:00.00 374879 N 0 0 0
0:00:00.00 375089 N 0 0 0
0:00:00.00 375286 N 0 0 0
0:00:00.00 375489 N 0 0 0
0:00:00.00 375685 N 0 0 0
0:00:00.00 375896 N 0 0 0
0:00:00.00 376101 N 0 0 0
0:00:00.00 376272 N 0 0 0
0:00:00.00 376508 N 0 0 0
0:00:00.00 376684 N 0 0 0
0:00:00.00 376911 N 0 0 0
0:00:00.00 377104 N 0 0 0
0:00:00.00 377312 N 0 0 0
0:00:00.00 377489 N 0 0 0
0:00:00.00 377717 N 0 0 0
0:00:00.00 377924 N 0 0 0
0:00:00.00 378119 N 0 0 0
0:00:00.00 378319 N 0 0 0
0:00:00.00 378517 N 0 0 0
0:00:00.00 378709 N 0 0 0
0:00:00.00 378913 N 0 0 0
0:00:00.00 379121 N 0 0 0
0:00:00.00 379481 N 0 0 0
0:00:00.00 379688 N 0 0 0
0:00:00.00 379897 N 0 0 0
0:00:00.00 380106 N 0 0 0
0:00:00.00 380295 N 0 0 0
0:00:00.00 380529 N 0 0 0
0:00:00.00 380734 N 0 0 0
0:00:00.00 380934 N 0 0 0
0:00:00.00 381130 N 0 0 0
0:00:00.00 381332 N 0 0 0
0:00:00.00 381512 N 0 0 0
0:00:00.00 381733 N 0 0 0
0:00:00.00 381933 N 0 0 0
0:00:00.00 382135 N 0 0 0
0:00:00.00 382309 N 0 0 0
0:00:00.00 382487 N 0 0 0
0:00:00.00 382720 N 0 0 0
0:00:00.00 382916 N 0 0 0
0:00:00.00 383125 N 0 0 0
0:00:00.00 383315 N 0 0 0
0:00:00.00 383517 N 0 0 0
0:00:00.00 383722 N 0 0 0
0:00:00.00 383926 N 0 0 0
0:00:00.00 384131 N 0 0 0
0:00:00.00 384331 N 0 0 0
0:00:00.00 384525 N 0 0 0
0:00:00.00 384712 N 0 0 0
0:00:00.00 384935 N 0 0 0
0:00:00.00 385139 N 0 0 0
0:00:00.00 385340 N 0 0 0
0:00:00.00 385538 N 0 0 0
0:00:00.00 385733 N 0 0 0
0:00:00.00 385934 N 0 0 0
0:00:00.00 386134 N 0 0 0
0:00:00.00 386329 N 0 0 0
0:00:00.00 386528 N 0 0 0
0:00:00.00 386739 N 0 0 0
0:00:00.00 386933 N 0 0 0
0:00:00.00 387131 N 0 0 0
0:00:00.00 387329 N 0 0 0
0:00:00.00 387531 N 0 0 0
0:00:00.00 387729 N 0 0 0
0:00:00.00 387938 N 0 0 0
0:00:00.00 388139 N 0 0 0
0:00:00.00 388336 N 0 0 0
0:00:00.00 388532 N 0 0 0
0:00:00.00 388737 N 0 0 0
0:00:00.00 388877 N 0 0 0
0:00:00.00 388998 N 0 0 0
0:00:00.00 389327 N 0 0 0
0:00:00.00 389536 N 0 0 0
0:00:00.00 389741 N 0 0 0
0:00:00.00 389941 N 0 0 0
0:00:00.00 390141 N 0 0 0
0:00:00.00 390339 N 0 0 0
0:00:00.00 390541 N 0 0 0
0:00:00.00 390737 N 0 0 0
0:00:00.00 390942 N 0 0 0
0:00:00.00 391144 N 0 0 0
0:00:00.00 391347 N 0 0 0
0:00:00.00 391534 N 0 0 0
0:00:00.00 391734 N 0 0 0
0:00:00.00 391941 N 0 0 0
0:00:00.00 392137 N 0 0 0
0:00:00.00 392337 N 0 0 0
0:00:00.00 392540 N 0 0 0
0:00:00.00 392751 N 0 0 0
0:00:00.00 392944 N 0 0 0
0:00:00.00 393145 N 0 0 0
0:00:00.00 393347 N 0 0 0
0:00:00.00 393548 N 0 0 0
0:00:00.00 393752 N 0 0 0
0:00:00.00 393959 N 0 0 0
0:00:00.00 394160 N 0 0 0
0:00:00.00 394357 N 0 0 0
0:00:00.00 394558 N 0 0 0
0:00:00.00 394756 N 0 0 0
0:00:00.00 394954 N 0 0 0
0:00:00.00 395152 N 0 0 0
0:00:00.00 395359 N 0 0 0
0:00:00.00 395559 N 0 0 0
0:00:00.00 395759 N 0 0 0
0:00:00.00 395960 N 0 0 0
0:00:00.00 396162 N 0 0 0
0:00:00.00 396355 N 0 0 0
0:00:00.00 396553 N 0 0 0
0:00:00.00 396770 N 0 0 0
0:00:00.00 396972 N 0 0 0
0:00:00.00 397177 N 0 0 0
0:00:00.00 397375 N 0 0 0
0:00:00.00 397575 N 0 0 0
0:00:00.00 397769 N 0 0 0
0:00:00.00 397975 N 0 0 0
0:00:00.00 398178 N 0 0 0
0:00:00.00 398372 N 0 0 0
0:00:00.00 398579 N 0 0 0
0:00:00.00 398779 N 0 0 0
0:00:00.00 398979 N 0 0 0
0:00:00.00 399172 N 0 0 0
0:00:00.00 399370 N 0 0 0
0:00:00.00 399578 N 0 0 0
0:00:00.00 399780 N 0 0 0
0:00:00.00 399974 N 0 0 0
0:00:00.00 400180 N 0 0 0
0:00:00.00 400379 N 0 0 0
0:00:00.00 400576 N 0 0 0
0:00:00.00 400774 N 0 0 0
0:00:00.00 400975 N 0 0 0
0:00:00.00 401175 N 0 0 0
0:00:00.00 401378 N 0 0 0
0:00:00.00 401587 N 0 0 0
0:00:00.00 401785 N 0 0 0
0:00:00.00 401989 N 0 0 0
0:00:00.00 402187 N 0 0 0
0:00:00.00 402390 N 0 0 0
0:00:00.00 402586 N 0 0 0
0:00:00.00 402795 N 0 0 0
0:00:00.00 403000 N 0 0 0
0:00:00.00 403198 N 0 0 0
0:00:00.00 403396 N 0 0 0
0:00:00.00 403594 N 0 0 0
0:00:00.00 403796 N 0 0 0
0:00:00.00 403992 N 0 0 0
0:00:00.00 404195 N 0 0 0
0:00:00.00 404401 N 0 0 0
0:00:00.00 404600 N 0 0 0
0:00:00.00 404802 N 0 0 0
0:00:00.00 405002 N 0 0 0
0:00:00.00 405196 N 0 0 0
0:00:00.00 405398 N 0 0 0
0:00:00.00 405607 N 0 0 0
0:00:00.00 405808 N 0 0 0
0:00:00.00 406010 N 0 0 0
0:00:00.00 406213 N 0 0 0
0:00:00.00 406411 N 0 0 0
0:00:00.00 406609 N 0 0 0
0:00:00.00 406809 N 0 0 0
0:00:00.00 407014 N 0 0 0
0:00:00.00 407218 N 0 0 0
0:00:00.00 407419 N 0 0 0
0:00:00.00 407619 N 0 0 0
0:00:00.00 407826 N 0 0 0
0:00:00.00 408019 N 0 0 0
0:00:00.00 408218 N 0 0 0
0:00:00.00 408424 N 0 0 0
0:00:00.00 408627 N 0 0 0
0:00:00.00 408821 N 0 0 0
0:00:00.00 409034 N 0 0 0
0:00:00.00 409225 N 0 0 0
0:00:00.00 409423 N 0 0 0
0:00:00.00 409630 N 0 0 0
0:00:00.00 409822 N 0 0 0
0:00:00.00 410027 N 0 0 0
0:00:00.00 410229 N 0 0 0
0:00:00.00 410441 N 0 0 0
0:00:00.00 410639 N 0 0 0
0:00:00.00 410837 N 0 0 0
0:00:00.00 411035 N 0 0 0
0:00:00.00 411241 N 0 0 0
0:00:00.00 411449 N 0 0 0
0:00:00.00 411651 N 0 0 0
0:00:00.00 411853 N 0 0 0
0:00:00.00 412054 N 0 0 0
0:00:00.00 412247 N 0 0 0
0:00:00.00 412454 N 0 0 0
0:00:00.00 412657 N 0 0 0
0:00:00.00 412855 N 0 0 0
0:00:00.00 413059 N 0 0 0
0:00:00.00 413258 N 0 0 0
0:00:00.00 413464 N 0 0 0
0:00:00.00 413665 N 0 0 0
0:00:00.00 413863 N 0 0 0
0:00:00.00 414058 N 0 0 0
0:00:00.00 414263 N 0 0 0
0:00:00.00 414477 N 0 0 0
0:00:00.00 414671 N 0 0 0
0:00:00.00 414877 N 0 0 0
0:00:00.00 415078 N 0 0 0
0:00:00.00 415280 N 0 0 0
0:00:00.00 415474 N 0 0 0
0:00:00.00 415674 N 0 0 0
0:00:00.00 415885 N 0 0 0
0:00:00.00 416083 N 0 0 0
0:00:00.00 416295 N 0 0 0
0:00:00.00 416491 N 0 0 0
0:00:00.00 416689 N 0 0 0
0:00:00.00 416887 N 0 0 0
0:00:00.00 417091 N 0 0 0
0:00:00.00 417296 N 0 0 0
0:00:00.00 417497 N 0 0 0
0:00:00.00 417701 N 0 0 0
0:00:00.00 417906 N 0 0 0
0:00:00.00 418095 N 0 0 0
0:00:00.00 418297 N 0 0 0
0:00:00.00 418504 N 0 0 0
0:00:00.00 418671 N 0 0 0
0:00:00.00 418900 N 0 0 0
0:00:00.00 419110 N 0 0 0
0:00:00.00 419312 N 0 0 0
0:00:00.00 419508 N 0 0 0
0:00:00.00 419710 N 0 0 0
0:00:00.00 419908 N 0 0 0
0:00:00.00 420107 N 0 0 0
0:00:00.00 420316 N 0 0 0
0:00:00.00 420518 N 0 0 0
0:00:00.00 420719 N 0 0 0
0:00:00.00 420910 N 0 0 0
0:00:00.00 421112 N 0 0 0
0:00:00.00 421312 N 0 0 0
0:00:00.00 421508 N 0 0 0
0:00:00.00 421706 N 0 0 0
0:00:00.00 421913 N 0 0 0
0:00:00.00 422116 N 0 0 0
0:00:00.00 422314 N 0 0 0
0:00:00.00 422516 N 0 0 0
0:00:00.00 422712 N 0 0 0
0:00:00.00 422906 N 0 0 0
0:00:00.00 423113 N 0 0 0
0:00:00.00 423324 N 0 0 0
0:00:00.00 423522 N 0 0 0
0:00:00.00 423727 N 0 0 0
0:00:00.00 423925 N 0 0 0
0:00:00.00 424121 N 0 0 0
0:00:00.00 424321 N 0 0 0
0:00:00.00 424525 N 0 0 0
0:00:00.00 424728 N 0 0 0
0:00:00.00 424931 N 0 0 0
0:00:00.00 425138 N 0 0 0
0:00:00.00 425331 N 0 0 0
0:00:00.00 425534 N 0 0 0
0:00:00.00 425716 N 0 0 0
0:00:00.00 425930 N 0 0 0
0:00:00.00 426134 N 0 0 0
0:00:00.00 426341 N 0 0 0
0:00:00.00 426544 N 0 0 0
0:00:00.00 426740 N 0 0 0
0:00:00.00 426935 N 0 0 0
0:00:00.00 427135 N 0 0 0
0:00:00.00 427343 N 0 0 0
0:00:00.00 427536 N 0 0 0
0:00:00.00 427739 N 0 0 0
0:00:00.00 427952 N 0 0 0
0:00:00.00 428157 N 0 0 0
0:00:00.00 428353 N 0 0 0
0:00:00.00 428551 N 0 0 0
0:00:00.00 428749 N 0 0 0
0:00:00.00 428960 N 0 0 0
0:00:00.00 429165 N 0 0 0
0:00:00.00 429370 N 0 0 0
0:00:00.00 429572 N 0 0 0
0:00:00.00 429763 N 0 0 0
0:00:00.00 429964 N 0 0 0
0:00:00.00 430166 N 0 0 0
0:00:00.00 430366 N 0 0 0
0:00:00.00 430565 N 0 0 0
0:00:00.00 430769 N 0 0 0
0:00:00.00 430978 N 0 0 0
0:00:00.00 431176 N 0 0 0
0:00:00.00 431375 N 0 0 0
0:00:00.00 431575 N 0 0 0
0:00:00.00 431782 N 0 0 0
0:00:00.00 431987 N 0 0 0
0:00:00.00 432194 N 0 0 0
0:00:00.00 432400 N 0 0 0
0:00:00.00 432605 N 0 0 0
0:00:00.00 432799 N 0 0 0
0:00:00.00 432995 N 0 0 0
0:00:00.00 433206 N 0 0 0
0:00:00.00 433402 N 0 0 0
0:00:00.00 433604 N 0 0 0
0:00:00.00 433807 N 0 0 0
0:00:00.00 434016 N 0 0 0
0:00:00.00 434210 N 0 0 0
0:00:00.00 434410 N 0 0 0
0:00:00.00 434608 N 0 0 0
0:00:00.00 434815 N 0 0 0
0:00:00.00 435020 N 0 0 0
0:00:00.00 435226 N 0 0 0
0:00:00.00 435433 N 0 0 0
0:00:00.00 435627 N 0 0 0
0:00:00.00 435825 N 0 0 0
0:00:00.00 436027 N 0 0 0
0:00:00.00 436228 N 0 0 0
0:00:00.00 436428 N 0 0 0
0:00:00.00 436633 N 0 0 0
0:00:00.00 436849 N 0 0 0
0:00:00.00 437044 N 0 0 0
0:00:00.00 437242 N 0 0 0
0:00:00.00 437443 N 0 0 0
0:00:00.00 437648 N 0 0 0
0:00:00.00 437854 N 0 0 0
0:00:00.00 438061 N 0 0 0
0:00:00.00 438264 N 0 0 0
0:00:00.00 438464 N 0 0 0
0:00:00.00 438656 N 0 0 0
0:00:00.00 438856 N 0 0 0
0:00:00.00 439063 N 0 0 0
0:00:00.00 439258 N 0 0 0
0:00:00.00 439465 N 0 0 0
0:00:00.00 439668 N 0 0 0
0:00:00.00 439871 N 0 0 0
0:00:00.00 440069 N 0 0 0
0:00:00.00 440271 N 0 0 0
0:00:00.00 440474 N 0 0 0
0:00:00.00 440678 N 0 0 0
0:00:00.00 440887 N 0 0 0
0:00:00.00 441092 N 0 0 0
0:00:00.00 441302 N 0 0 0
0:00:00.00 441495 N 0 0 0
0:00:00.00 441698 N 0 0 0
0:00:00.00 441904 N 0 0 0
0:00:00.00 442107 N 0 0 0
0:00:00.00 442303 N 0 0 0
0:00:00.00 442507 N 0 0 0
0:00:00.00 442719 N 0 0 0
0:00:00.00 442915 N 0 0 0
0:00:00.00 443115 N 0 0 0
0:00:00.00 443315 N 0 0 0
0:00:00.00 443518 N 0 0 0
0:00:00.00 443723 N 0 0 0
0:00:00.00 443927 N 0 0 0
0:00:00.00 444132 N 0 0 0
0:00:00.00 444339 N 0 0 0
0:00:00.00 444533 N 0 0 0
0:00:00.00 444737 N 0 0 0
0:00:00.00 444942 N 0 0 0
0:00:00.00 445147 N 0 0 0
0:00:00.00 445349 N 0 0 0
0:00:00.00 445556 N 0 0 0
0:00:00.00 445766 N 0 0 0
0:00:00.00 445963 N 0 0 0
0:00:00.00 446170 N 0 0 0
0:00:00.00 446369 N 0 0 0
0:00:00.00 446573 N 0 0 0
0:00:00.00 446774 N 0 0 0
0:00:00.00 446980 N 0 0 0
0:00:00.00 447187 N 0 0 0
0:00:00.00 447388 N 0 0 0
0:00:00.00 447583 N 0 0 0
0:00:00.00 447779 N 0 0 0
0:00:00.00 447991 N 0 0 0
0:00:00.00 448189 N 0 0 0
0:00:00.00 448391 N 0 0 0
0:00:00.00 448596 N 0 0 0
0:00:00.00 448807 N 0 0 0
0:00:00.00 449008 N 0 0 0
0:00:00.00 449203 N 0 0 0
0:00:00.00 449406 N 0 0 0
0:00:00.00 449618 N 0 0 0
0:00:00.00 449833 N 0 0 0
0:00:00.00 450029 N 0 0 0
0:00:00.00 450232 N 0 0 0
0:00:00.00 450432 N 0 0 0
0:00:00.00 450639 N 0 0 0
0:00:00.00 450837 N 0 0 0
0:00:00.00 451035 N 0 0 0
0:00:00.00 451242 N 0 0 0
0:00:00.00 451451 N 0 0 0
0:00:00.00 451652 N 0 0 0
0:00:00.00 451849 N 0 0 0
0:00:00.00 452056 N 0 0 0
0:00:00.00 452261 N 0 0 0
0:00:00.00 452462 N 0 0 0
0:00:00.00 452666 N 0 0 0
0:00:00.00 452875 N 0 0 0
0:00:00.00 453080 N 0 0 0
0:00:00.00 453281 N 0 0 0
0:00:00.00 453481 N 0 0 0
0:00:00.00 453690 N 0 0 0
0:00:00.00 453893 N 0 0 0
0:00:00.00 454090 N 0 0 0
0:00:00.00 454298 N 0 0 0
0:00:00.00 454511 N 0 0 0
0:00:00.00 454720 N 0 0 0
0:00:00.00 454916 N 0 0 0
0:00:00.00 455114 N 0 0 0
0:00:00.00 455321 N 0 0 0
0:00:00.00 455528 N 0 0 0
0:00:00.00 455737 N 0 0 0
0:00:00.00 455933 N 0 0 0
0:00:00.00 456138 N 0 0 0
0:00:00.00 456341 N 0 0 0
0:00:00.00 456543 N 0 0 0
0:00:00.00 456745 N 0 0 0
0:00:00.00 456944 N 0 0 0
0:00:00.00 457157 N 0 0 0
0:00:00.00 457360 N 0 0 0
0:00:00.00 457565 N 0 0 0
0:00:00.00 457762 N 0 0 0
0:00:00.00 457972 N 0 0 0
0:00:00.00 458176 N 0 0 0
0:00:00.00 458379 N 0 0 0
0:00:00.00 458591 N 0 0 0
0:00:00.00 458798 N 0 0 0
0:00:00.00 458998 N 0 0 0
0:00:00.00 459196 N 0 0 0
0:00:00.00 459394 N 0 0 0
0:00:00.00 459605 N 0 0 0
0:00:00.00 459808 N 0 0 0
0:00:00.00 460006 N 0 0 0
0:00:00.00 460206 N 0 0 0
0:00:00.00 460420 N 0 0 0
0:00:00.00 460624 N 0 0 0
0:00:00.00 460825 N 0 0 0
0:00:00.00 461023 N 0 0 0
0:00:00.00 461230 N 0 0 0
0:00:00.00 461439 N 0 0 0
0:00:00.00 461644 N 0 0 0
0:00:00.00 461846 N 0 0 0
0:00:00.00 462056 N 0 0 0
0:00:00.00 462258 N 0 0 0
0:00:00.00 462458 N 0 0 0
0:00:00.00 462661 N 0 0 0
0:00:00.00 462868 N 0 0 0
0:00:00.00 463073 N 0 0 0
0:00:00.00 463277 N 0 0 0
0:00:00.00 463487 N 0 0 0
0:00:00.00 463691 N 0 0 0
0:00:00.00 463892 N 0 0 0
0:00:00.00 464089 N 0 0 0
0:00:00.00 464301 N 0 0 0
0:00:00.00 464512 N 0 0 0
0:00:00.00 464708 N 0 0 0
0:00:00.00 464915 N 0 0 0
0:00:00.00 465116 N 0 0 0
0:00:00.00 465320 N 0 0 0
0:00:00.00 465516 N 0 0 0
0:00:00.00 465719 N 0 0 0
0:00:00.00 465930 N 0 0 0
0:00:00.00 466133 N 0 0 0
0:00:00.00 466339 N 0 0 0
0:00:00.00 466538 N 0 0 0
0:00:00.00 466753 N 0 0 0
0:00:00.00 466952 N 0 0 0
0:00:00.00 467152 N 0 0 0
0:00:00.00 467357 N 0 0 0
0:00:00.00 467573 N 0 0 0
0:00:00.00 467779 N 0 0 0
0:00:00.00 467977 N 0 0 0
0:00:00.00 468180 N 0 0 0
0:00:00.00 468374 N 0 0 0
0:00:00.00 468581 N 0 0 0
0:00:00.00 468785 N 0 0 0
0:00:00.00 468985 N 0 0 0
0:00:00.00 469190 N 0 0 0
0:00:00.00 469397 N 0 0 0
0:00:00.00 469604 N 0 0 0
0:00:00.00 469798 N 0 0 0
0:00:00.00 469996 N 0 0 0
0:00:00.00 470207 N 0 0 0
0:00:00.00 470425 N 0 0 0
0:00:00.00 470624 N 0 0 0
0:00:00.00 470822 N 0 0 0
0:00:00.00 471022 N 0 0 0
0:00:00.00 471236 N 0 0 0
0:00:00.00 471440 N 0 0 0
0:00:00.00 471634 N 0 0 0
0:00:00.00 471841 N 0 0 0
0:00:00.00 472055 N 0 0 0
0:00:00.00 472261 N 0 0 0
0:00:00.00 472459 N 0 0 0
0:00:00.00 472666 N 0 0 0
0:00:00.00 472865 N 0 0 0
0:00:00.00 473069 N 0 0 0
0:00:00.00 473270 N 0 0 0
0:00:00.00 473479 N 0 0 0
0:00:00.00 473688 N 0 0 0
0:00:00.00 473884 N 0 0 0
0:00:00.00 474077 N 0 0 0
0:00:00.00 474287 N 0 0 0
0:00:00.00 474493 N 0 0 0
0:00:00.00 474692 N 0 0 0
0:00:00.00 474899 N 0 0 0
0:00:00.00 475114 N 0 0 0
0:00:00.00 475315 N 0 0 0
0:00:00.00 475515 N 0 0 0
0:00:00.00 475709 N 0 0 0
0:00:00.00 475920 N 0 0 0
0:00:00.00 476131 N 0 0 0
0:00:00.00 476341 N 0 0 0
0:00:00.00 476539 N 0 0 0
0:00:00.00 476750 N 0 0 0
0:00:00.00 476951 N 0 0 0
0:00:00.00 477149 N 0 0 0
0:00:00.00 477351 N 0 0 0
0:00:00.00 477551 N 0 0 0
0:00:00.00 477761 N 0 0 0
0:00:00.00 477972 N 0 0 0
0:00:00.00 478172 N 0 0 0
0:00:00.00 478373 N 0 0 0
0:00:00.00 478577 N 0 0 0
0:00:00.00 478780 N 0 0 0
0:00:00.00 478978 N 0 0 0
0:00:00.00 479192 N 0 0 0
0:00:00.00 479399 N 0 0 0
0:00:00.00 479605 N 0 0 0
0:00:00.00 479799 N 0 0 0
0:00:00.00 480006 N 0 0 0
0:00:00.00 480211 N 0 0 0
0:00:00.00 480411 N 0 0 0
0:00:00.00 480614 N 0 0 0
0:00:00.00 480816 N 0 0 0
0:00:00.00 481036 N 0 0 0
0:00:00.00 481232 N 0 0 0
0:00:00.00 481437 N 0 0 0
0:00:00.00 481639 N 0 0 0
0:00:00.00 481831 N 0 0 0
0:00:00.00 482038 N 0 0 0
0:00:00.00 482249 N 0 0 0
0:00:00.00 482458 N 0 0 0
0:00:00.00 482654 N 0 0 0
0:00:00.00 482850 N 0 0 0
0:00:00.00 483046 N 0 0 0
0:00:00.00 483253 N 0 0 0
0:00:00.00 483462 N 0 0 0
0:00:00.00 483665 N 0 0 0
0:00:00.00 483869 N 0 0 0
0:00:00.00 484083 N 0 0 0
0:00:00.00 484285 N 0 0 0
0:00:00.00 484484 N 0 0 0
0:00:00.00 484681 N 0 0 0
0:00:00.00 484891 N 0 0 0
0:00:00.00 485102 N 0 0 0
0:00:00.00 485296 N 0 0 0
0:00:00.00 485500 N 0 0 0
0:00:00.00 485701 N 0 0 0
0:00:00.00 485905 N 0 0 0
0:00:00.00 486101 N 0 0 0
0:00:00.00 486295 N 0 0 0
0:00:00.00 486499 N 0 0 0
0:00:00.00 486711 N 0 0 0
0:00:00.00 486918 N 0 0 0
0:00:00.00 487114 N 0 0 0
0:00:00.00 487325 N 0 0 0
0:00:00.00 487519 N 0 0 0
0:00:00.00 487717 N 0 0 0
0:00:00.00 487922 N 0 0 0
0:00:00.00 488137 N 0 0 0
0:00:00.00 488338 N 0 0 0
0:00:00.00 488540 N 0 0 0
0:00:00.00 488736 N 0 0 0
0:00:00.00 488943 N 0 0 0
0:00:00.00 489141 N 0 0 0
0:00:00.00 489341 N 0 0 0
0:00:00.00 489548 N 0 0 0
0:00:00.00 489758 N 0 0 0
0:00:00.00 489947 N 0 0 0
0:00:00.00 490153 N 0 0 0
0:00:00.00 490361 N 0 0 0
0:00:00.00 490556 N 0 0 0
0:00:00.00 490757 N 0 0 0
0:00:00.00 490966 N 0 0 0
0:00:00.00 491175 N 0 0 0
0:00:00.00 491371 N 0 0 0
0:00:00.00 491569 N 0 0 0
0:00:00.00 491778 N 0 0 0
0:00:00.00 491980 N 0 0 0
0:00:00.00 492179 N 0 0 0
0:00:00.00 492379 N 0 0 0
0:00:00.00 492593 N 0 0 0
0:00:00.00 492800 N 0 0 0
0:00:00.00 492997 N 0 0 0
0:00:00.00 493204 N 0 0 0
0:00:00.00 493403 N 0 0 0
0:00:00.00 493601 N 0 0 0
0:00:00.00 493805 N 0 0 0
0:00:00.00 494019 N 0 0 0
0:00:00.00 494221 N 0 0 0
0:00:00.00 494420 N 0 0 0
0:00:00.00 494615 N 0 0 0
0:00:00.00 494815 N 0 0 0
0:00:00.00 495025 N 0 0 0
0:00:00.00 495218 N 0 0 0
0:00:00.00 495421 N 0 0 0
0:00:00.00 495625 N 0 0 0
0:00:00.00 495828 N 0 0 0
0:00:00.00 496031 N 0 0 0
0:00:00.00 496235 N 0 0 0
0:00:00.00 496429 N 0 0 0
0:00:00.00 496642 N 0 0 0
0:00:00.00 496847 N 0 0 0
0:00:00.00 497054 N 0 0 0
0:00:00.00 497259 N 0 0 0
0:00:00.00 497462 N 0 0 0
0:00:00.00 497657 N 0 0 0
0:00:00.00 497858 N 0 0 0
0:00:00.00 498064 N 0 0 0
0:00:00.00 498265 N 0 0 0
0:00:00.00 498469 N 0 0 0
0:00:00.00 498676 N 0 0 0
0:00:00.00 498881 N 0 0 0
0:00:00.00 499073 N 0 0 0
0:00:00.00 499270 N 0 0 0
0:00:00.00 499477 N 0 0 0
0:00:00.00 499678 N 0 0 0
0:00:00.00 499889 N 0 0 0
0:00:00.00 500092 N 0 0 0
0:00:00.00 500296 N 0 0 0
0:00:00.00 500492 N 0 0 0
0:00:00.00 500690 N 0 0 0
0:00:00.00 500899 N 0 0 0
0:00:00.00 501109 N 0 0 0
0:00:00.00 501313 N 0 0 0
0:00:00.00 501514 N 0 0 0
0:00:00.00 501718 N 0 0 0
0:00:00.00 501923 N 0 0 0
0:00:00.00 502126 N 0 0 0
0:00:00.00 502321 N 0 0 0
0:00:00.00 502524 N 0 0 0
0:00:00.00 502738 N 0 0 0
0:00:00.00 502945 N 0 0 0
0:00:00.00 503143 N 0 0 0
0:00:00.00 503336 N 0 0 0
0:00:00.00 503541 N 0 0 0
0:00:00.00 503744 N 0 0 0
0:00:00.00 503942 N 0 0 0
0:00:00.00 504160 N 0 0 0
0:00:00.00 504335 N 0 0 0
0:00:00.00 504562 N 0 0 0
0:00:00.00 504761 N 0 0 0
0:00:00.00 504981 N 0 0 0
0:00:00.00 505166 N 0 0 0
0:00:00.00 505368 N 0 0 0
0:00:00.00 505575 N 0 0 0
0:00:00.00 505782 N 0 0 0
0:00:00.00 505989 N 0 0 0
0:00:00.00 506191 N 0 0 0
0:00:00.00 506387 N 0 0 0
0:00:00.00 506588 N 0 0 0
0:00:00.00 506797 N 0 0 0
0:00:00.00 506990 N 0 0 0
0:00:00.00 507197 N 0 0 0
0:00:00.00 507404 N 0 0 0
0:00:00.00 507614 N 0 0 0
0:00:00.00 507805 N 0 0 0
0:00:00.00 508009 N 0 0 0
0:00:00.00 508208 N 0 0 0
0:00:00.00 508415 N 0 0 0
0:00:00.00 508626 N 0 0 0
0:00:00.00 508824 N 0 0 0
0:00:00.00 509027 N 0 0 0
0:00:00.00 509220 N 0 0 0
0:00:00.00 509429 N 0 0 0
0:00:00.00 509630 N 0 0 0
0:00:00.00 509836 N 0 0 0
0:00:00.00 510046 N 0 0 0
0:00:00.00 510242 N 0 0 0
0:00:00.00 510449 N 0 0 0
0:00:00.00 510653 N 0 0 0
0:00:00.00 510863 N 0 0 0
0:00:00.00 511052 N 0 0 0
0:00:00.00 511254 N 0 0 0
0:00:00.00 511463 N 0 0 0
0:00:00.00 511675 N 0 0 0
0:00:00.00 511870 N 0 0 0
0:00:00.00 512069 N 0 0 0
0:00:00.00 512266 N 0 0 0
0:00:00.00 512473 N 0 0 0
0:00:00.00 512680 N 0 0 0
0:00:00.00 512888 N 0 0 0
0:00:00.00 513076 N 0 0 0
0:00:00.00 513284 N 0 0 0
0:00:00.00 513491 N 0 0 0
0:00:00.00 513689 N 0 0 0
0:00:00.00 513909 N 0 0 0
0:00:00.00 514069 N 0 0 0
0:00:00.00 514303 N 0 0 0
0:00:00.00 514508 N 0 0 0
0:00:00.00 514712 N 0 0 0
0:00:00.00 514924 N 0 0 0
0:00:00.00 515115 N 0 0 0
0:00:00.00 515317 N 0 0 0
0:00:00.00 515518 N 0 0 0
0:00:00.00 515722 N 0 0 0
0:00:00.00 515923 N 0 0 0
0:00:00.00 516127 N 0 0 0
0:00:00.00 516335 N 0 0 0
0:00:00.00 516533 N 0 0 0
0:00:00.00 516735 N 0 0 0
0:00:00.00 516935 N 0 0 0
0:00:00.00 517133 N 0 0 0
0:00:00.00 517338 N 0 0 0
0:00:00.00 517550 N 0 0 0
0:00:00.00 517757 N 0 0 0
0:00:00.00 517952 N 0 0 0
0:00:00.00 518150 N 0 0 0
0:00:00.00 518292 N 0 0 0
0:00:00.00 518544 N 0 0 0
0:00:00.00 518746 N 0 0 0
0:00:00.00 518960 N 0 0 0
0:00:00.00 519170 N 0 0 0
0:00:00.00 519370 N 0 0 0
0:00:00.00 519568 N 0 0 0
0:00:00.00 519770 N 0 0 0
0:00:00.00 519971 N 0 0 0
0:00:00.00 520175 N 0 0 0
0:00:00.00 520385 N 0 0 0
0:00:00.00 520583 N 0 0 0
0:00:00.00 520794 N 0 0 0
0:00:00.00 520987 N 0 0 0
0:00:00.00 521188 N 0 0 0
0:00:00.00 521395 N 0 0 0
0:00:00.00 521593 N 0 0 0
0:00:00.00 521795 N 0 0 0
0:00:00.00 522004 N 0 0 0
0:00:00.00 522209 N 0 0 0
0:00:00.00 522405 N 0 0 0
0:00:00.00 522610 N 0 0 0
0:00:00.00 522817 N 0 0 0
0:00:00.00 523019 N 0 0 0
0:00:00.00 523224 N 0 0 0
0:00:00.00 523438 N 0 0 0
0:00:00.00 523636 N 0 0 0
0:00:00.00 523840 N 0 0 0
0:00:00.00 524039 N 0 0 0
0:00:00.00 524248 N 0 0 0
0:00:00.00 524450 N 0 0 0
0:00:00.00 524648 N 0 0 0
0:00:00.00 524855 N 0 0 0
0:00:00.00 525004 N 0 0 0
0:00:00.00 525253 N 0 0 0
0:00:00.00 525461 N 0 0 0
0:00:00.00 525665 N 0 0 0
0:00:00.00 525868 N 0 0 0
0:00:00.00 526066 N 0 0 0
0:00:00.00 526279 N 0 0 0
0:00:00.00 526487 N 0 0 0
0:00:00.00 526687 N 0 0 0
0:00:00.00 526885 N 0 0 0
0:00:00.00 527092 N 0 0 0
0:00:00.00 527299 N 0 0 0
0:00:00.00 527495 N 0 0 0
0:00:00.00 527699 N 0 0 0
0:00:00.00 527908 N 0 0 0
0:00:00.00 528124 N 0 0 0
0:00:00.00 528318 N 0 0 0
0:00:00.00 528527 N 0 0 0
0:00:00.00 528730 N 0 0 0
0:00:00.00 528926 N 0 0 0
0:00:00.00 529133 N 0 0 0
0:00:00.00 529340 N 0 0 0
0:00:00.00 529549 N 0 0 0
0:00:00.00 529751 N 0 0 0
0:00:00.00 529945 N 0 0 0
0:00:00.00 530140 N 0 0 0
0:00:00.00 530347 N 0 0 0
0:00:00.00 530554 N 0 0 0
0:00:00.00 530764 N 0 0 0
0:00:00.00 530964 N 0 0 0
0:00:00.00 531171 N 0 0 0
0:00:00.00 531376 N 0 0 0
0:00:00.00 531585 N 0 0 0
0:00:00.00 531781 N 0 0 0
0:00:00.00 531986 N 0 0 0
0:00:00.00 532202 N 0 0 0
0:00:00.00 532411 N 0 0 0
0:00:00.00 532615 N 0 0 0
0:00:00.00 532809 N 0 0 0
0:00:00.00 533014 N 0 0 0
0:00:00.00 533223 N 0 0 0
0:00:00.00 533419 N 0 0 0
0:00:00.00 533619 N 0 0 0
0:00:00.00 533830 N 0 0 0
0:00:00.00 534044 N 0 0 0
0:00:00.00 534236 N 0 0 0
0:00:00.00 534436 N 0 0 0
0:00:00.00 534640 N 0 0 0
0:00:00.00 534850 N 0 0 0
0:00:00.00 535052 N 0 0 0
0:00:00.00 535257 N 0 0 0
0:00:00.00 535462 N 0 0 0
0:00:00.00 535660 N 0 0 0
0:00:00.00 535874 N 0 0 0
0:00:00.00 536011 N 0 0 0
0:00:00.00 536159 N 0 0 0
0:00:00.00 536470 N 0 0 0
0:00:00.00 536684 N 0 0 0
0:00:00.00 536888 N 0 0 0
0:00:00.00 537093 N 0 0 0
0:00:00.00 537300 N 0 0 0
0:00:00.00 537496 N 0 0 0
0:00:00.00 537689 N 0 0 0
0:00:00.00 537896 N 0 0 0
0:00:00.00 538108 N 0 0 0
0:00:00.00 538308 N 0 0 0
0:00:00.00 538510 N 0 0 0
0:00:00.00 538708 N 0 0 0
0:00:00.00 538911 N 0 0 0
0:00:00.00 539111 N 0 0 0
0:00:00.00 539309 N 0 0 0
0:00:00.00 539519 N 0 0 0
0:00:00.00 539726 N 0 0 0
0:00:00.00 539933 N 0 0 0
0:00:00.00 540135 N 0 0 0
0:00:00.00 540342 N 0 0 0
0:00:00.00 540538 N 0 0 0
0:00:00.00 540747 N 0 0 0
0:00:00.00 540965 N 0 0 0
0:00:00.00 541163 N 0 0 0
0:00:00.00 541366 N 0 0 0
0:00:00.00 541573 N 0 0 0
0:00:00.00 541775 N 0 0 0
0:00:00.00 541971 N 0 0 0
0:00:00.00 542178 N 0 0 0
0:00:00.00 542376 N 0 0 0
0:00:00.00 542581 N 0 0 0
0:00:00.00 542790 N 0 0 0
0:00:00.00 542990 N 0 0 0
0:00:00.00 543197 N 0 0 0
0:00:00.00 543391 N 0 0 0
0:00:00.00 543595 N 0 0 0
0:00:00.00 543802 N 0 0 0
0:00:00.00 544010 N 0 0 0
0:00:00.00 544217 N 0 0 0
0:00:00.00 544421 N 0 0 0
0:00:00.00 544622 N 0 0 0
0:00:00.00 544828 N 0 0 0
0:00:00.00 545036 N 0 0 0
0:00:00.00 545231 N 0 0 0
0:00:00.00 545438 N 0 0 0
0:00:00.00 545650 N 0 0 0
0:00:00.00 545855 N 0 0 0
0:00:00.00 546059 N 0 0 0
0:00:00.00 546260 N 0 0 0
0:00:00.00 546462 N 0 0 0
0:00:00.00 546662 N 0 0 0
0:00:00.00 546876 N 0 0 0
0:00:00.00 547081 N 0 0 0
0:00:00.00 547283 N 0 0 0
0:00:00.00 547479 N 0 0 0
0:00:00.00 547684 N 0 0 0
0:00:00.00 547895 N 0 0 0
0:00:00.00 548089 N 0 0 0
0:00:00.00 548296 N 0 0 0
0:00:00.00 548509 N 0 0 0
0:00:00.00 548723 N 0 0 0
0:00:00.00 548919 N 0 0 0
0:00:00.00 549124 N 0 0 0
0:00:00.00 549333 N 0 0 0
0:00:00.00 549536 N 0 0 0
0:00:00.00 549743 N 0 0 0
0:00:00.00 549952 N 0 0 0
0:00:00.00 550163 N 0 0 0
0:00:00.00 550361 N 0 0 0
0:00:00.00 550559 N 0 0 0
0:00:00.00 550755 N 0 0 0
0:00:00.00 550967 N 0 0 0
0:00:00.00 551174 N 0 0 0
0:00:00.00 551372 N 0 0 0
0:00:00.00 551579 N 0 0 0
0:00:00.00 551785 N 0 0 0
0:00:00.00 551995 N 0 0 0
0:00:00.00 552188 N 0 0 0
0:00:00.00 552388 N 0 0 0
0:00:00.00 552595 N 0 0 0
0:00:00.00 552812 N 0 0 0
0:00:00.00 553019 N 0 0 0
0:00:00.00 553221 N 0 0 0
0:00:00.00 553417 N 0 0 0
0:00:00.00 553617 N 0 0 0
0:00:00.00 553835 N 0 0 0
0:00:00.00 554038 N 0 0 0
0:00:00.00 554240 N 0 0 0
0:00:00.00 554447 N 0 0 0
0:00:00.00 554656 N 0 0 0
0:00:00.00 554864 N 0 0 0
0:00:00.00 555062 N 0 0 0
0:00:00.00 555259 N 0 0 0
0:00:00.00 555469 N 0 0 0
0:00:00.00 555682 N 0 0 0
0:00:00.00 555880 N 0 0 0
0:00:00.00 556083 N 0 0 0
0:00:00.00 556285 N 0 0 0
0:00:00.00 556493 N 0 0 0
0:00:00.00 556691 N 0 0 0
0:00:00.00 556897 N 0 0 0
0:00:00.00 557105 N 0 0 0
0:00:00.00 557309 N 0 0 0
0:00:00.00 557521 N 0 0 0
0:00:00.00 557728 N 0 0 0
0:00:00.00 557930 N 0 0 0
0:00:00.00 558126 N 0 0 0
0:00:00.00 558333 N 0 0 0
0:00:00.00 558551 N 0 0 0
0:00:00.00 558754 N 0 0 0
0:00:00.00 558959 N 0 0 0
0:00:00.00 559159 N 0 0 0
0:00:00.00 559364 N 0 0 0
0:00:00.00 559566 N 0 0 0
0:00:00.00 559768 N 0 0 0
0:00:00.00 559966 N 0 0 0
0:00:00.00 560174 N 0 0 0
0:00:00.00 560389 N 0 0 0
0:00:00.00 560585 N 0 0 0
0:00:00.00 560786 N 0 0 0
0:00:00.00 560986 N 0 0 0
0:00:00.00 561197 N 0 0 0
0:00:00.00 561411 N 0 0 0
0:00:00.00 561618 N 0 0 0
0:00:00.00 561823 N 0 0 0
0:00:00.00 562034 N 0 0 0
0:00:00.00 562228 N 0 0 0
0:00:00.00 562428 N 0 0 0
0:00:00.00 562633 N 0 0 0
0:00:00.00 562838 N 0 0 0
0:00:00.00 563047 N 0 0 0
0:00:00.00 563188 N 0 0 0
0:00:00.00 563324 N 0 0 0
0:00:00.00 563560 N 0 0 0
0:00:00.00 563800 N 0 0 0
0:00:00.00 563998 N 0 0 0
0:00:00.00 564201 N 0 0 0
0:00:00.00 564415 N 0 0 0
0:00:00.00 564626 N 0 0 0
0:00:00.00 564827 N 0 0 0
0:00:00.00 565025 N 0 0 0
0:00:00.00 565222 N 0 0 0
0:00:00.00 565423 N 0 0 0
0:00:00.00 565636 N 0 0 0
0:00:00.00 565837 N 0 0 0
0:00:00.00 566039 N 0 0 0
0:00:00.00 566246 N 0 0 0
0:00:00.00 566455 N 0 0 0
0:00:00.00 566656 N 0 0 0
0:00:00.00 566860 N 0 0 0
0:00:00.00 567056 N 0 0 0
0:00:00.00 567268 N 0 0 0
0:00:00.00 567484 N 0 0 0
0:00:00.00 567684 N 0 0 0
0:00:00.00 567886 N 0 0 0
0:00:00.00 568085 N 0 0 0
0:00:00.00 568287 N 0 0 0
0:00:00.00 568490 N 0 0 0
0:00:00.00 568692 N 0 0 0
0:00:00.00 568899 N 0 0 0
0:00:00.00 569101 N 0 0 0
0:00:00.00 569309 N 0 0 0
0:00:00.00 569513 N 0 0 0
0:00:00.00 569722 N 0 0 0
0:00:00.00 569918 N 0 0 0
0:00:00.00 570119 N 0 0 0
0:00:00.00 570335 N 0 0 0
0:00:00.00 570548 N 0 0 0
0:00:00.00 570748 N 0 0 0
0:00:00.00 570947 N 0 0 0
0:00:00.00 571151 N 0 0 0
0:00:00.00 571356 N 0 0 0
0:00:00.00 571559 N 0 0 0
0:00:00.00 571763 N 0 0 0
0:00:00.00 571975 N 0 0 0
0:00:00.00 572166 N 0 0 0
0:00:00.00 572378 N 0 0 0
0:00:00.00 572580 N 0 0 0
0:00:00.00 572787 N 0 0 0
0:00:00.00 572989 N 0 0 0
0:00:00.00 573190 N 0 0 0
0:00:00.00 573401 N 0 0 0
0:00:00.00 573604 N 0 0 0
0:00:00.00 573817 N 0 0 0
0:00:00.00 574015 N 0 0 0
0:00:00.00 574213 N 0 0 0
0:00:00.00 574416 N 0 0 0
0:00:00.00 574625 N 0 0 0
0:00:00.00 574837 N 0 0 0
0:00:00.00 575039 N 0 0 0
0:00:00.00 575246 N 0 0 0
0:00:00.00 575444 N 0 0 0
0:00:00.00 575649 N 0 0 0
0:00:00.00 575854 N 0 0 0
0:00:00.00 576063 N 0 0 0
0:00:00.00 576268 N 0 0 0
0:00:00.00 576468 N 0 0 0
0:00:00.00 576679 N 0 0 0
0:00:00.00 576884 N 0 0 0
0:00:00.00 577082 N 0 0 0
0:00:00.00 577283 N 0 0 0
0:00:00.00 577487 N 0 0 0
0:00:00.00 577701 N 0 0 0
0:00:00.00 577901 N 0 0 0
0:00:00.00 578106 N 0 0 0
0:00:00.00 578306 N 0 0 0
0:00:00.00 578511 N 0 0 0
0:00:00.00 578725 N 0 0 0
0:00:00.00 578925 N 0 0 0
0:00:00.00 579130 N 0 0 0
0:00:00.00 579346 N 0 0 0
0:00:00.00 579555 N 0 0 0
0:00:00.00 579753 N 0 0 0
0:00:00.00 579951 N 0 0 0
0:00:00.00 580158 N 0 0 0
0:00:00.00 580367 N 0 0 0
0:00:00.00 580565 N 0 0 0
0:00:00.00 580766 N 0 0 0
0:00:00.00 580975 N 0 0 0
0:00:00.00 581182 N 0 0 0
0:00:00.00 581391 N 0 0 0
0:00:00.00 581584 N 0 0 0
0:00:00.00 581783 N 0 0 0
0:00:00.00 582001 N 0 0 0
0:00:00.00 582214 N 0 0 0
0:00:00.00 582410 N 0 0 0
0:00:00.00 582617 N 0 0 0
0:00:00.00 582817 N 0 0 0
0:00:00.00 583018 N 0 0 0
0:00:00.00 583225 N 0 0 0
0:00:00.00 583427 N 0 0 0
0:00:00.00 583630 N 0 0 0
0:00:00.00 583843 N 0 0 0
0:00:00.00 584050 N 0 0 0
0:00:00.00 584246 N 0 0 0
0:00:00.00 584446 N 0 0 0
0:00:00.00 584645 N 0 0 0
0:00:00.00 584768 N 0 0 0
0:00:00.00 585072 N 0 0 0
0:00:00.00 585274 N 0 0 0
0:00:00.00 585473 N 0 0 0
0:00:00.00 585680 N 0 0 0
0:00:00.00 585884 N 0 0 0
0:00:00.00 586082 N 0 0 0
0:00:00.00 586283 N 0 0 0
0:00:00.00 586498 N 0 0 0
0:00:00.00 586699 N 0 0 0
0:00:00.00 586904 N 0 0 0
0:00:00.00 587099 N 0 0 0
0:00:00.00 587317 N 0 0 0
0:00:00.00 587515 N 0 0 0
0:00:00.00 587718 N 0 0 0
0:00:00.00 587930 N 0 0 0
0:00:00.00 588139 N 0 0 0
0:00:00.00 588339 N 0 0 0
0:00:00.00 588535 N 0 0 0
0:00:00.00 588735 N 0 0 0
0:00:00.00 588944 N 0 0 0
0:00:00.00 589151 N 0 0 0
0:00:00.00 589343 N 0 0 0
0:00:00.00 589545 N 0 0 0
0:00:00.00 589754 N 0 0 0
0:00:00.00 589964 N 0 0 0
0:00:00.00 590173 N 0 0 0
0:00:00.00 590364 N 0 0 0
0:00:00.00 590566 N 0 0 0
0:00:00.00 590778 N 0 0 0
0:00:00.00 590989 N 0 0 0
0:00:00.00 591172 N 0 0 0
0:00:00.00 591390 N 0 0 0
0:00:00.00 591593 N 0 0 0
0:00:00.00 591791 N 0 0 0
0:00:00.00 591991 N 0 0 0
0:00:00.00 592195 N 0 0 0
0:00:00.00 592405 N 0 0 0
0:00:00.00 592603 N 0 0 0
0:00:00.00 592812 N 0 0 0
0:00:00.00 593017 N 0 0 0
0:00:00.00 593215 N 0 0 0
0:00:00.00 593411 N 0 0 0
0:00:00.00 593622 N 0 0 0
0:00:00.00 593829 N 0 0 0
0:00:00.00 594029 N 0 0 0
0:00:00.00 594230 N 0 0 0
0:00:00.00 594434 N 0 0 0
0:00:00.00 594630 N 0 0 0
0:00:00.00 594830 N 0 0 0
0:00:00.00 595039 N 0 0 0
0:00:00.00 595238 N 0 0 0
0:00:00.00 595438 N 0 0 0
0:00:00.00 595649 N 0 0 0
0:00:00.00 595854 N 0 0 0
0:00:00.00 596056 N 0 0 0
0:00:00.00 596254 N 0 0 0
0:00:00.00 596461 N 0 0 0
0:00:00.00 596668 N 0 0 0
0:00:00.00 596876 N 0 0 0
0:00:00.00 597074 N 0 0 0
0:00:00.00 597278 N 0 0 0
0:00:00.00 597481 N 0 0 0
0:00:00.00 597688 N 0 0 0
0:00:00.00 597886 N 0 0 0
0:00:00.00 598082 N 0 0 0
0:00:00.00 598295 N 0 0 0
0:00:00.00 598502 N 0 0 0
0:00:00.00 598703 N 0 0 0
0:00:00.00 598855 N 0 0 0
0:00:00.00 599096 N 0 0 0
0:00:00.00 599305 N 0 0 0
0:00:00.00 599503 N 0 0 0
0:00:00.00 599720 N 0 0 0
0:00:00.00 599924 N 0 0 0
0:00:00.00 600127 N 0 0 0
0:00:00.00 600325 N 0 0 0
0:00:00.00 600536 N 0 0 0
0:00:00.00 600736 N 0 0 0
0:00:00.00 600937 N 0 0 0
0:00:00.00 601141 N 0 0 0
0:00:00.00 601351 N 0 0 0
0:00:00.00 601562 N 0 0 0
0:00:00.00 601760 N 0 0 0
0:00:00.00 601965 N 0 0 0
0:00:00.00 602170 N 0 0 0
0:00:00.00 602366 N 0 0 0
0:00:00.00 602573 N 0 0 0
0:00:00.00 602784 N 0 0 0
0:00:00.00 602989 N 0 0 0
0:00:00.00 603189 N 0 0 0
0:00:00.00 603380 N 0 0 0
0:00:00.00 603581 N 0 0 0
0:00:00.00 603790 N 0 0 0
0:00:00.00 603995 N 0 0 0
0:00:00.00 604202 N 0 0 0
0:00:00.00 604404 N 0 0 0
0:00:00.00 604609 N 0 0 0
0:00:00.00 604813 N 0 0 0
0:00:00.00 605021 N 0 0 0
0:00:00.00 605223 N 0 0 0
0:00:00.00 605426 N 0 0 0
0:00:00.00 605641 N 0 0 0
0:00:00.00 605848 N 0 0 0
0:00:00.00 606053 N 0 0 0
0:00:00.00 606247 N 0 0 0
0:00:00.00 606460 N 0 0 0
0:00:00.00 606656 N 0 0 0
0:00:00.00 606861 N 0 0 0
0:00:00.00 607075 N 0 0 0
0:00:00.00 607275 N 0 0 0
0:00:00.00 607480 N 0 0 0
0:00:00.00 607680 N 0 0 0
0:00:00.00 607891 N 0 0 0
0:00:00.00 608085 N 0 0 0
0:00:00.00 608292 N 0 0 0
0:00:00.00 608504 N 0 0 0
0:00:00.00 608706 N 0 0 0
0:00:00.00 608911 N 0 0 0
0:00:00.00 609106 N 0 0 0
0:00:00.00 609323 N 0 0 0
0:00:00.00 609523 N 0 0 0
0:00:00.00 609730 N 0 0 0
0:00:00.00 609926 N 0 0 0
0:00:00.00 610141 N 0 0 0
0:00:00.00 610346 N 0 0 0
0:00:00.00 610553 N 0 0 0
0:00:00.00 610760 N 0 0 0
0:00:00.00 610952 N 0 0 0
0:00:00.00 611152 N 0 0 0
0:00:00.00 611363 N 0 0 0
0:00:00.00 611575 N 0 0 0
0:00:00.00 611770 N 0 0 0
0:00:00.00 611973 N 0 0 0
0:00:00.00 612175 N 0 0 0
0:00:00.00 612383 N 0 0 0
0:00:00.00 612581 N 0 0 0
0:00:00.00 612779 N 0 0 0
0:00:00.00 612988 N 0 0 0
0:00:00.00 613202 N 0 0 0
0:00:00.00 613411 N 0 0 0
0:00:00.00 613609 N 0 0 0
0:00:00.00 613791 N 0 0 0
0:00:00.00 614023 N 0 0 0
0:00:00.00 614225 N 0 0 0
0:00:00.00 614435 N 0 0 0
0:00:00.00 614644 N 0 0 0
0:00:00.00 614846 N 0 0 0
0:00:00.00 615047 N 0 0 0
0:00:00.00 615251 N 0 0 0
0:00:00.00 615447 N 0 0 0
0:00:00.00 615652 N 0 0 0
0:00:00.00 615856 N 0 0 0
0:00:00.00 616064 N 0 0 0
0:00:00.00 616264 N 0 0 0
0:00:00.00 616464 N 0 0 0
0:00:00.00 616673 N 0 0 0
0:00:00.00 616876 N 0 0 0
0:00:00.00 617074 N 0 0 0
0:00:00.00 617285 N 0 0 0
0:00:00.00 617499 N 0 0 0
0:00:00.00 617697 N 0 0 0
0:00:00.00 617904 N 0 0 0
0:00:00.00 618106 N 0 0 0
0:00:00.00 618305 N 0 0 0
0:00:00.00 618509 N 0 0 0
0:00:00.00 618710 N 0 0 0
0:00:00.00 618923 N 0 0 0
0:00:00.00 619124 N 0 0 0
0:00:00.00 619331 N 0 0 0
0:00:00.00 619537 N 0 0 0
0:00:00.00 619738 N 0 0 0
0:00:00.00 619933 N 0 0 0
0:00:00.00 620136 N 0 0 0
0:00:00.00 620356 N 0 0 0
0:00:00.00 620555 N 0 0 0
0:00:00.00 620761 N 0 0 0
0:00:00.00 620962 N 0 0 0
0:00:00.00 621167 N 0 0 0
0:00:00.00 621369 N 0 0 0
0:00:00.00 621565 N 0 0 0
0:00:00.00 621774 N 0 0 0
0:00:00.00 621985 N 0 0 0
0:00:00.00 622193 N 0 0 0
0:00:00.00 622391 N 0 0 0
0:00:00.00 622597 N 0 0 0
0:00:00.00 622800 N 0 0 0
0:00:00.00 622973 N 0 0 0
0:00:00.00 623214 N 0 0 0
0:00:00.00 623423 N 0 0 0
0:00:00.00 623626 N 0 0 0
0:00:00.00 623835 N 0 0 0
0:00:00.00 624029 N 0 0 0
0:00:00.00 624226 N 0 0 0
0:00:00.00 624433 N 0 0 0
0:00:00.00 624638 N 0 0 0
0:00:00.00 624839 N 0 0 0
0:00:00.00 625045 N 0 0 0
0:00:00.00 625252 N 0 0 0
0:00:00.00 625450 N 0 0 0
0:00:00.00 625651 N 0 0 0
0:00:00.00 625853 N 0 0 0
0:00:00.00 626060 N 0 0 0
0:00:00.00 626276 N 0 0 0
0:00:00.00 626476 N 0 0 0
0:00:00.00 626683 N 0 0 0
0:00:00.00 626886 N 0 0 0
0:00:00.00 627091 N 0 0 0
0:00:00.00 627295 N 0 0 0
0:00:00.00 627493 N 0 0 0
0:00:00.00 627709 N 0 0 0
0:00:00.00 627916 N 0 0 0
0:00:00.00 628121 N 0 0 0
0:00:00.00 628324 N 0 0 0
0:00:00.00 628524 N 0 0 0
0:00:00.00 628726 N 0 0 0
0:00:00.00 628934 N 0 0 0
0:00:00.00 629141 N 0 0 0
0:00:00.00 629350 N 0 0 0
0:00:00.00 629557 N 0 0 0
0:00:00.00 629750 N 0 0 0
0:00:00.00 629959 N 0 0 0
0:00:00.00 630162 N 0 0 0
0:00:00.00 630319 N 0 0 0
0:00:00.00 630565 N 0 0 0
0:00:00.00 630776 N 0 0 0
0:00:00.00 630983 N 0 0 0
0:00:00.00 631183 N 0 0 0
0:00:00.00 631393 N 0 0 0
0:00:00.00 631597 N 0 0 0
0:00:00.00 631796 N 0 0 0
0:00:00.00 632009 N 0 0 0
0:00:00.00 632218 N 0 0 0
0:00:00.00 632419 N 0 0 0
0:00:00.00 632624 N 0 0 0
0:00:00.00 632831 N 0 0 0
0:00:00.00 633028 N 0 0 0
0:00:00.00 633231 N 0 0 0
0:00:00.00 633442 N 0 0 0
0:00:00.00 633649 N 0 0 0
0:00:00.00 633852 N 0 0 0
0:00:00.00 634057 N 0 0 0
0:00:00.00 634266 N 0 0 0
0:00:00.00 634459 N 0 0 0
0:00:00.00 634666 N 0 0 0
0:00:00.00 634873 N 0 0 0
0:00:00.00 635080 N 0 0 0
0:00:00.00 635283 N 0 0 0
0:00:00.00 635499 N 0 0 0
0:00:00.00 635702 N 0 0 0
0:00:00.00 635897 N 0 0 0
0:00:00.00 636097 N 0 0 0
0:00:00.00 636307 N 0 0 0
0:00:00.00 636520 N 0 0 0
0:00:00.00 636723 N 0 0 0
0:00:00.00 636926 N 0 0 0
0:00:00.00 637132 N 0 0 0
0:00:00.00 637331 N 0 0 0
0:00:00.00 637529 N 0 0 0
0:00:00.00 637733 N 0 0 0
0:00:00.00 637947 N 0 0 0
0:00:00.00 638150 N 0 0 0
0:00:00.00 638354 N 0 0 0
0:00:00.00 638541 N 0 0 0
0:00:00.00 638761 N 0 0 0
0:00:00.00 638968 N 0 0 0
0:00:00.00 639164 N 0 0 0
0:00:00.00 639373 N 0 0 0
0:00:00.00 639585 N 0 0 0
0:00:00.00 639797 N 0 0 0
0:00:00.00 639995 N 0 0 0
0:00:00.00 640202 N 0 0 0
0:00:00.00 640404 N 0 0 0
0:00:00.00 640607 N 0 0 0
0:00:00.00 640813 N 0 0 0
0:00:00.00 641027 N 0 0 0
0:00:00.00 641234 N 0 0 0
0:00:00.00 641430 N 0 0 0
0:00:00.00 641633 N 0 0 0
0:00:00.00 641835 N 0 0 0
0:00:00.00 642037 N 0 0 0
0:00:00.00 642235 N 0 0 0
0:00:00.00 642445 N 0 0 0
0:00:00.00 642658 N 0 0 0
0:00:00.00 642857 N 0 0 0
0:00:00.00 643057 N 0 0 0
0:00:00.00 643257 N 0 0 0
0:00:00.00 643462 N 0 0 0
0:00:00.00 643673 N 0 0 0
0:00:00.00 643883 N 0 0 0
0:00:00.00 644089 N 0 0 0
0:00:00.00 644296 N 0 0 0
0:00:00.00 644490 N 0 0 0
0:00:00.00 644688 N 0 0 0
0:00:00.00 644902 N 0 0 0
0:00:00.00 645106 N 0 0 0
0:00:00.00 645313 N 0 0 0
0:00:00.00 645514 N 0 0 0
0:00:00.00 645723 N 0 0 0
0:00:00.00 645925 N 0 0 0
0:00:00.00 646123 N 0 0 0
0:00:00.00 646321 N 0 0 0
0:00:00.00 646529 N 0 0 0
0:00:00.00 646742 N 0 0 0
0:00:00.00 646942 N 0 0 0
0:00:00.00 647149 N 0 0 0
0:00:00.00 647348 N 0 0 0
0:00:00.00 647548 N 0 0 0
0:00:00.00 647752 N 0 0 0
0:00:00.00 647953 N 0 0 0
0:00:00.00 648164 N 0 0 0
0:00:00.00 648367 N 0 0 0
0:00:00.00 648520 N 0 0 0
0:00:00.00 648765 N 0 0 0
0:00:00.00 648976 N 0 0 0
0:00:00.00 649177 N 0 0 0
0:00:00.00 649377 N 0 0 0
0:00:00.00 649580 N 0 0 0
0:00:00.00 649793 N 0 0 0
