0:00:00.00 14 N 0 0 0
0:00:00.00 90 N 0 0 0
0:00:00.00 349 N 0 0 0
0:00:00.00 662 N 0 0 0
0:00:00.00 977 N 0 0 0
0:00:00.00 1292 N 0 0 0
0:00:00.00 1609 N 0 0 0
0:00:00.00 1908 N 0 0 0
0:00:00.00 2140 N 0 0 0
0:00:00.00 2480 N 0 0 0
0:00:00.00 2759 N 0 0 0
0:00:00.00 3078 N 0 0 0
0:00:00.00 3240 N 0 0 0
0:00:00.00 3695 N 0 0 0
0:00:00.00 3974 N 0 0 0
0:00:00.00 4232 N 0 0 0
0:00:00.00 4496 N 0 0 0
0:00:00.00 4770 N 0 0 0
0:00:00.00 5045 N 0 0 0
0:00:00.00 5324 N 0 0 0
0:00:00.00 5641 N 0 0 0
0:00:00.00 5962 N 0 0 0
0:00:00.00 6232 N 0 0 0
0:00:00.00 6491 N 0 0 0
0:00:00.00 6752 N 0 0 0
0:00:00.00 7036 N 0 0 0
0:00:00.00 7330 N 0 0 0
0:00:00.00 7623 N 0 0 0
0:00:00.00 7911 N 0 0 0
0:00:00.00 8213 N 0 0 0
0:00:00.00 8489 N 0 0 0
0:00:00.00 8744 N 0 0 0
0:00:00.00 9014 N 0 0 0
0:00:00.00 9295 N 0 0 0
0:00:00.00 9594 N 0 0 0
0:00:00.00 9904 N 0 0 0
0:00:00.00 10199 N 0 0 0
0:00:00.00 10476 N 0 0 0
0:00:00.00 10755 N 0 0 0
0:00:00.00 11021 N 0 0 0
0:00:00.00 11293 N 0 0 0
0:00:00.00 11574 N 0 0 0
0:00:00.00 11867 N 0 0 0
0:00:00.00 12170 N 0 0 0
0:00:00.00 12469 N 0 0 0
0:00:00.00 12656 N 0 0 0
0:00:00.00 13009 N 0 0 0
0:00:00.00 13277 N 0 0 0
0:00:00.00 13558 N 0 0 0
0:00:00.00 13842 N 0 0 0
0:00:00.00 14132 N 0 0 0
0:00:00.00 14429 N 0 0 0
0:00:00.00 14715 N 0 0 0
0:00:00.00 14994 N 0 0 0
0:00:00.00 15264 N 0 0 0
0:00:00.00 15530 N 0 0 0
0:00:00.00 15824 N 0 0 0
0:00:00.00 16132 N 0 0 0
0:00:00.00 16436 N 0 0 0
0:00:00.00 16735 N 0 0 0
0:00:00.00 17012 N 0 0 0
0:00:00.00 17282 N 0 0 0
0:00:00.00 17545 N 0 0 0
0:00:00.00 17813 N 0 0 0
0:00:00.00 18088 N 0 0 0
0:00:00.00 18392 N 0 0 0
0:00:00.00 18697 N 0 0 0
0:00:00.00 18992 N 0 0 0
0:00:00.00 19274 N 0 0 0
0:00:00.00 19544 N 0 0 0
0:00:00.00 19829 N 0 0 0
0:00:00.00 20120 N 0 0 0
0:00:00.00 20412 N 0 0 0
0:00:00.00 20709 N 0 0 0
0:00:00.00 21015 N 0 0 0
0:00:00.00 21290 N 0 0 0
0:00:00.00 21550 N 0 0 0
0:00:00.00 21812 N 0 0 0
0:00:00.00 22081 N 0 0 0
0:00:00.00 22376 N 0 0 0
0:00:00.00 22682 N 0 0 0
0:00:00.00 22981 N 0 0 0
0:00:00.00 23261 N 0 0 0
0:00:00.00 23535 N 0 0 0
0:00:00.00 23794 N 0 0 0
0:00:00.00 24046 N 0 0 0
0:00:00.00 24314 N 0 0 0
0:00:00.00 24593 N 0 0 0
0:00:00.00 24899 N 0 0 0
0:00:00.00 25263 N 0 0 0
0:00:00.00 25546 N 0 0 0
0:00:00.00 25808 N 0 0 0
0:00:00.00 26082 N 0 0 0
0:00:00.00 26348 N 0 0 0
0:00:00.00 26620 N 0 0 0
0:00:00.00 26901 N 0 0 0
0:00:00.00 27194 N 0 0 0
0:00:00.00 27499 N 0 0 0
0:00:00.00 27779 N 0 0 0
0:00:00.00 28039 N 0 0 0
0:00:00.00 28193 N 0 0 0
0:00:00.00 28303 N 0 0 0
0:00:00.00 28379 N 0 0 0
0:00:00.00 28458 N 0 0 0
0:00:00.00 28573 N 0 0 0
0:00:00.00 28645 N 0 0 0
0:00:00.00 28859 N 0 0 0
0:00:00.00 29086 N 0 0 0
0:00:00.00 29437 N 0 0 0
0:00:00.00 29714 N 0 0 0
0:00:00.00 29871 N 0 0 0
0:00:00.00 30238 N 0 0 0
0:00:00.00 30479 N 0 0 0
0:00:00.00 30650 N 0 0 0
0:00:00.00 31007 N 0 0 0
0:00:00.00 31295 N 0 0 0
0:00:00.00 31491 N 0 0 0
0:00:00.00 31847 N 0 0 0
0:00:00.00 32096 N 0 0 0
0:00:00.00 32333 N 0 0 0
0:00:00.00 32571 N 0 0 0
0:00:00.00 32816 N 0 0 0
0:00:00.00 33073 N 0 0 0
0:00:00.00 33331 N 0 0 0
0:00:00.00 33541 N 0 0 0
0:00:00.00 33961 N 0 0 0
0:00:00.00 34220 N 0 0 0
0:00:00.00 34483 N 0 0 0
0:00:00.00 34744 N 0 0 0
0:00:00.00 35023 N 0 0 0
0:00:00.00 35305 N 0 0 0
0:00:00.00 35597 N 0 0 0
0:00:00.00 35879 N 0 0 0
0:00:00.00 36175 N 0 0 0
0:00:00.00 36454 N 0 0 0
0:00:00.00 36716 N 0 0 0
0:00:00.00 36976 N 0 0 0
0:00:00.00 37240 N 0 0 0
0:00:00.00 37525 N 0 0 0
0:00:00.00 37814 N 0 0 0
0:00:00.00 38097 N 0 0 0
0:00:00.00 38363 N 0 0 0
0:00:00.00 38630 N 0 0 0
0:00:00.00 38878 N 0 0 0
0:00:00.00 39127 N 0 0 0
0:00:00.00 39384 N 0 0 0
0:00:00.00 39652 N 0 0 0
0:00:00.00 39940 N 0 0 0
0:00:00.00 40248 N 0 0 0
0:00:00.00 40403 N 0 0 0
0:00:00.00 40817 N 0 0 0
0:00:00.00 41085 N 0 0 0
0:00:00.00 41366 N 0 0 0
0:00:00.00 41645 N 0 0 0
0:00:00.00 41929 N 0 0 0
0:00:00.00 42237 N 0 0 0
0:00:00.00 42392 N 0 0 0
0:00:00.00 42869 N 0 0 0
0:00:00.00 43141 N 0 0 0
0:00:00.00 43412 N 0 0 0
0:00:00.00 43711 N 0 0 0
0:00:00.00 44010 N 0 0 0
0:00:00.00 44314 N 0 0 0
0:00:00.00 44627 N 0 0 0
0:00:00.00 44782 N 0 0 0
0:00:00.00 45218 N 0 0 0
0:00:00.00 45488 N 0 0 0
0:00:00.00 45763 N 0 0 0
0:00:00.00 45902 N 0 0 0
0:00:00.00 46375 N 0 0 0
0:00:00.00 46685 N 0 0 0
0:00:00.00 46987 N 0 0 0
0:00:00.00 47137 N 0 0 0
0:00:00.00 47538 N 0 0 0
0:00:00.00 47810 N 0 0 0
0:00:00.00 48085 N 0 0 0
0:00:00.00 48368 N 0 0 0
0:00:00.00 48661 N 0 0 0
0:00:00.00 48976 N 0 0 0
0:00:00.00 49257 N 0 0 0
0:00:00.00 49511 N 0 0 0
0:00:00.00 49757 N 0 0 0
0:00:00.00 50020 N 0 0 0
0:00:00.00 50290 N 0 0 0
0:00:00.00 50585 N 0 0 0
0:00:00.00 50884 N 0 0 0
0:00:00.00 51179 N 0 0 0
0:00:00.00 51475 N 0 0 0
0:00:00.00 51619 N 0 0 0
0:00:00.00 52015 N 0 0 0
0:00:00.00 52274 N 0 0 0
0:00:00.00 52538 N 0 0 0
0:00:00.00 52828 N 0 0 0
0:00:00.00 53111 N 0 0 0
0:00:00.00 53325 N 0 0 0
0:00:00.00 53669 N 0 0 0
0:00:00.00 53928 N 0 0 0
0:00:00.00 54189 N 0 0 0
0:00:00.00 54441 N 0 0 0
0:00:00.00 54711 N 0 0 0
0:00:00.00 54990 N 0 0 0
0:00:00.00 55283 N 0 0 0
0:00:00.00 55584 N 0 0 0
0:00:00.00 55872 N 0 0 0
0:00:00.00 56007 N 0 0 0
0:00:00.00 56439 N 0 0 0
0:00:00.00 56723 N 0 0 0
0:00:00.00 56932 N 0 0 0
0:00:00.00 57344 N 0 0 0
0:00:00.00 57645 N 0 0 0
0:00:00.00 57938 N 0 0 0
0:00:00.00 58086 N 0 0 0
0:00:00.00 58248 N 0 0 0
0:00:00.00 58702 N 0 0 0
0:00:00.00 58993 N 0 0 0
0:00:00.00 59287 N 0 0 0
0:00:00.00 59571 N 0 0 0
0:00:00.00 59859 N 0 0 0
0:00:00.00 60129 N 0 0 0
0:00:00.00 60395 N 0 0 0
0:00:00.00 60658 N 0 0 0
0:00:00.00 60838 N 0 0 0
0:00:00.00 61240 N 0 0 0
0:00:00.00 61547 N 0 0 0
0:00:00.00 61866 N 0 0 0
0:00:00.00 62100 N 0 0 0
0:00:00.00 62455 N 0 0 0
0:00:00.00 62723 N 0 0 0
0:00:00.00 62915 N 0 0 0
0:00:00.00 63297 N 0 0 0
0:00:00.00 63583 N 0 0 0
0:00:00.00 63893 N 0 0 0
0:00:00.00 64210 N 0 0 0
0:00:00.00 64492 N 0 0 0
0:00:00.00 64768 N 0 0 0
0:00:00.00 65039 N 0 0 0
0:00:00.00 65331 N 0 0 0
0:00:00.00 65641 N 0 0 0
0:00:00.00 65952 N 0 0 0
0:00:00.00 66280 N 0 0 0
0:00:00.00 66593 N 0 0 0
0:00:00.00 66881 N 0 0 0
0:00:00.00 67154 N 0 0 0
0:00:00.00 67435 N 0 0 0
0:00:00.00 67588 N 0 0 0
0:00:00.00 68063 N 0 0 0
0:00:00.00 68368 N 0 0 0
0:00:00.00 68657 N 0 0 0
0:00:00.00 68940 N 0 0 0
0:00:00.00 69203 N 0 0 0
0:00:00.00 69345 N 0 0 0
0:00:00.00 69734 N 0 0 0
0:00:00.00 70013 N 0 0 0
0:00:00.00 70299 N 0 0 0
0:00:00.00 70587 N 0 0 0
0:00:00.00 70853 N 0 0 0
0:00:00.00 71104 N 0 0 0
0:00:00.00 71357 N 0 0 0
0:00:00.00 71505 N 0 0 0
0:00:00.00 71865 N 0 0 0
0:00:00.00 72121 N 0 0 0
0:00:00.00 72392 N 0 0 0
0:00:00.00 72666 N 0 0 0
0:00:00.00 72929 N 0 0 0
0:00:00.00 73102 N 0 0 0
0:00:00.00 73415 N 0 0 0
0:00:00.00 73647 N 0 0 0
0:00:00.00 73901 N 0 0 0
0:00:00.00 74149 N 0 0 0
0:00:00.00 74410 N 0 0 0
0:00:00.00 74664 N 0 0 0
0:00:00.00 74929 N 0 0 0
0:00:00.00 75177 N 0 0 0
0:00:00.00 75425 N 0 0 0
0:00:00.00 75663 N 0 0 0
0:00:00.00 76343 N 0 0 0
0:00:00.00 76759 N 0 0 0
0:00:00.00 77051 N 0 0 0
0:00:00.00 77344 N 0 0 0
0:00:00.00 77620 N 0 0 0
0:00:00.00 77888 N 0 0 0
0:00:00.00 78161 N 0 0 0
0:00:00.00 78392 N 0 0 0
0:00:00.00 78728 N 0 0 0
0:00:00.00 79031 N 0 0 0
0:00:00.00 79328 N 0 0 0
0:00:00.00 79508 N 0 0 0
0:00:00.00 79870 N 0 0 0
0:00:00.00 80123 N 0 0 0
0:00:00.00 80401 N 0 0 0
0:00:00.00 80681 N 0 0 0
0:00:00.00 80833 N 0 0 0
0:00:00.00 81263 N 0 0 0
0:00:00.00 81562 N 0 0 0
0:00:00.00 81837 N 0 0 0
0:00:00.00 82093 N 0 0 0
0:00:00.00 82350 N 0 0 0
0:00:00.00 82498 N 0 0 0
0:00:00.00 82910 N 0 0 0
0:00:00.00 83210 N 0 0 0
0:00:00.00 83506 N 0 0 0
0:00:00.00 83785 N 0 0 0
0:00:00.00 84060 N 0 0 0
0:00:00.00 84326 N 0 0 0
0:00:00.00 84598 N 0 0 0
0:00:00.00 84874 N 0 0 0
0:00:00.00 85171 N 0 0 0
0:00:00.00 85486 N 0 0 0
0:00:00.00 85810 N 0 0 0
0:00:00.00 86103 N 0 0 0
0:00:00.00 86245 N 0 0 0
0:00:00.00 86418 N 0 0 0
0:00:00.00 86926 N 0 0 0
0:00:00.00 87221 N 0 0 0
0:00:00.00 87512 N 0 0 0
0:00:00.00 87806 N 0 0 0
0:00:00.00 88101 N 0 0 0
0:00:00.00 88378 N 0 0 0
0:00:00.00 88643 N 0 0 0
0:00:00.00 88907 N 0 0 0
0:00:00.00 89197 N 0 0 0
0:00:00.00 89474 N 0 0 0
0:00:00.00 89777 N 0 0 0
0:00:00.00 90063 N 0 0 0
0:00:00.00 90340 N 0 0 0
0:00:00.00 90599 N 0 0 0
0:00:00.00 90855 N 0 0 0
0:00:00.00 91107 N 0 0 0
0:00:00.00 91251 N 0 0 0
0:00:00.00 91629 N 0 0 0
0:00:00.00 91913 N 0 0 0
0:00:00.00 92066 N 0 0 0
0:00:00.00 92455 N 0 0 0
0:00:00.00 92704 N 0 0 0
0:00:00.00 92835 N 0 0 0
0:00:00.00 93200 N 0 0 0
0:00:00.00 93465 N 0 0 0
0:00:00.00 93614 N 0 0 0
0:00:00.00 94030 N 0 0 0
0:00:00.00 94338 N 0 0 0
0:00:00.00 94635 N 0 0 0
0:00:00.00 94898 N 0 0 0
0:00:00.00 95166 N 0 0 0
0:00:00.00 95436 N 0 0 0
0:00:00.00 95731 N 0 0 0
0:00:00.00 96043 N 0 0 0
0:00:00.00 96350 N 0 0 0
0:00:00.00 96511 N 0 0 0
0:00:00.00 96975 N 0 0 0
0:00:00.00 97258 N 0 0 0
0:00:00.00 97542 N 0 0 0
0:00:00.00 97717 N 0 0 0
0:00:00.00 98168 N 0 0 0
0:00:00.00 98491 N 0 0 0
0:00:00.00 98804 N 0 0 0
0:00:00.00 99094 N 0 0 0
0:00:00.00 99239 N 0 0 0
0:00:00.00 99670 N 0 0 0
0:00:00.00 99952 N 0 0 0
0:00:00.00 100249 N 0 0 0
0:00:00.00 100548 N 0 0 0
0:00:00.00 100870 N 0 0 0
0:00:00.00 101165 N 0 0 0
0:00:00.00 101444 N 0 0 0
0:00:00.00 101729 N 0 0 0
0:00:00.00 102022 N 0 0 0
0:00:00.00 102323 N 0 0 0
0:00:00.00 102627 N 0 0 0
0:00:00.00 102933 N 0 0 0
0:00:00.00 103244 N 0 0 0
0:00:00.00 103529 N 0 0 0
0:00:00.00 103784 N 0 0 0
0:00:00.00 104051 N 0 0 0
0:00:00.00 104342 N 0 0 0
0:00:00.00 104638 N 0 0 0
0:00:00.00 104942 N 0 0 0
0:00:00.00 105248 N 0 0 0
0:00:00.00 105530 N 0 0 0
0:00:00.00 105818 N 0 0 0
0:00:00.00 106099 N 0 0 0
0:00:00.00 106384 N 0 0 0
0:00:00.00 106567 N 0 0 0
0:00:00.00 106753 N 0 0 0
0:00:00.00 107307 N 0 0 0
0:00:00.00 107611 N 0 0 0
0:00:00.00 108151 N 0 0 0
0:00:00.00 108448 N 0 0 0
0:00:00.00 108720 N 0 0 0
0:00:00.00 108997 N 0 0 0
0:00:00.00 109289 N 0 0 0
0:00:00.00 109586 N 0 0 0
0:00:00.00 109858 N 0 0 0
0:00:00.00 110110 N 0 0 0
0:00:00.00 110371 N 0 0 0
0:00:00.00 110639 N 0 0 0
0:00:00.00 110936 N 0 0 0
0:00:00.00 111244 N 0 0 0
0:00:00.00 111548 N 0 0 0
0:00:00.00 111863 N 0 0 0
0:00:00.00 112162 N 0 0 0
0:00:00.00 112437 N 0 0 0
0:00:00.00 112579 N 0 0 0
0:00:00.00 113054 N 0 0 0
0:00:00.00 113605 N 0 0 0
0:00:00.00 114079 N 0 0 0
0:00:00.00 114363 N 0 0 0
0:00:00.00 114649 N 0 0 0
0:00:00.00 114955 N 0 0 0
0:00:00.00 115276 N 0 0 0
0:00:00.00 115421 N 0 0 0
0:00:00.00 115898 N 0 0 0
0:00:00.00 116199 N 0 0 0
0:00:00.00 116487 N 0 0 0
0:00:00.00 116624 N 0 0 0
0:00:00.00 117029 N 0 0 0
0:00:00.00 117313 N 0 0 0
0:00:00.00 117617 N 0 0 0
0:00:00.00 117911 N 0 0 0
0:00:00.00 118197 N 0 0 0
0:00:00.00 118480 N 0 0 0
0:00:00.00 118757 N 0 0 0
0:00:00.00 119027 N 0 0 0
0:00:00.00 119306 N 0 0 0
0:00:00.00 119480 N 0 0 0
0:00:00.00 119902 N 0 0 0
0:00:00.00 120209 N 0 0 0
0:00:00.00 120510 N 0 0 0
0:00:00.00 120780 N 0 0 0
0:00:00.00 121052 N 0 0 0
0:00:00.00 121329 N 0 0 0
0:00:00.00 121617 N 0 0 0
0:00:00.00 121910 N 0 0 0
0:00:00.00 122209 N 0 0 0
0:00:00.00 122526 N 0 0 0
0:00:00.00 122827 N 0 0 0
0:00:00.00 123100 N 0 0 0
0:00:00.00 123239 N 0 0 0
0:00:00.00 123410 N 0 0 0
0:00:00.00 123536 N 0 0 0
0:00:00.00 124074 N 0 0 0
0:00:00.00 124380 N 0 0 0
0:00:00.00 124675 N 0 0 0
0:00:00.00 124956 N 0 0 0
0:00:00.00 125226 N 0 0 0
0:00:00.00 125393 N 0 0 0
0:00:00.00 125750 N 0 0 0
0:00:00.00 126027 N 0 0 0
0:00:00.00 126236 N 0 0 0
0:00:00.00 126616 N 0 0 0
0:00:00.00 126902 N 0 0 0
0:00:00.00 127080 N 0 0 0
0:00:00.00 127427 N 0 0 0
0:00:00.00 127687 N 0 0 0
0:00:00.00 127949 N 0 0 0
0:00:00.00 128207 N 0 0 0
0:00:00.00 128486 N 0 0 0
0:00:00.00 128759 N 0 0 0
0:00:00.00 128936 N 0 0 0
0:00:00.00 129337 N 0 0 0
0:00:00.00 129586 N 0 0 0
0:00:00.00 129717 N 0 0 0
0:00:00.00 130133 N 0 0 0
0:00:00.00 130419 N 0 0 0
0:00:00.00 130712 N 0 0 0
0:00:00.00 131002 N 0 0 0
0:00:00.00 131294 N 0 0 0
0:00:00.00 131576 N 0 0 0
0:00:00.00 131859 N 0 0 0
0:00:00.00 132138 N 0 0 0
0:00:00.00 132422 N 0 0 0
0:00:00.00 132755 N 0 0 0
0:00:00.00 133088 N 0 0 0
0:00:00.00 133403 N 0 0 0
0:00:00.00 133706 N 0 0 0
0:00:00.00 133985 N 0 0 0
0:00:00.00 134131 N 0 0 0
0:00:00.00 134609 N 0 0 0
0:00:00.00 134923 N 0 0 0
0:00:00.00 135270 N 0 0 0
0:00:00.00 135590 N 0 0 0
0:00:00.00 135873 N 0 0 0
0:00:00.00 136143 N 0 0 0
0:00:00.00 136408 N 0 0 0
0:00:00.00 136683 N 0 0 0
0:00:00.00 136964 N 0 0 0
0:00:00.00 137250 N 0 0 0
0:00:00.00 137538 N 0 0 0
0:00:00.00 137833 N 0 0 0
0:00:00.00 138098 N 0 0 0
0:00:00.00 138346 N 0 0 0
0:00:00.00 138607 N 0 0 0
0:00:00.00 138879 N 0 0 0
0:00:00.00 139180 N 0 0 0
0:00:00.00 139493 N 0 0 0
0:00:00.00 139799 N 0 0 0
0:00:00.00 140099 N 0 0 0
0:00:00.00 140393 N 0 0 0
0:00:00.00 140535 N 0 0 0
0:00:00.00 140974 N 0 0 0
0:00:00.00 141282 N 0 0 0
0:00:00.00 141610 N 0 0 0
0:00:00.00 141818 N 0 0 0
0:00:00.00 142256 N 0 0 0
0:00:00.00 142551 N 0 0 0
0:00:00.00 142839 N 0 0 0
0:00:00.00 143136 N 0 0 0
0:00:00.00 143440 N 0 0 0
0:00:00.00 143753 N 0 0 0
0:00:00.00 144083 N 0 0 0
0:00:00.00 144403 N 0 0 0
0:00:00.00 144684 N 0 0 0
0:00:00.00 144823 N 0 0 0
0:00:00.00 145289 N 0 0 0
0:00:00.00 145602 N 0 0 0
0:00:00.00 145919 N 0 0 0
0:00:00.00 146230 N 0 0 0
0:00:00.00 146531 N 0 0 0
0:00:00.00 146819 N 0 0 0
0:00:00.00 147092 N 0 0 0
0:00:00.00 147375 N 0 0 0
0:00:00.00 147575 N 0 0 0
0:00:00.00 148018 N 0 0 0
0:00:00.00 148329 N 0 0 0
0:00:00.00 148628 N 0 0 0
0:00:00.00 148784 N 0 0 0
0:00:00.00 149184 N 0 0 0
0:00:00.00 149472 N 0 0 0
0:00:00.00 149753 N 0 0 0
0:00:00.00 150044 N 0 0 0
0:00:00.00 150367 N 0 0 0
0:00:00.00 150680 N 0 0 0
0:00:00.00 150968 N 0 0 0
0:00:00.00 151252 N 0 0 0
0:00:00.00 151542 N 0 0 0
0:00:00.00 151850 N 0 0 0
0:00:00.00 152167 N 0 0 0
0:00:00.00 152469 N 0 0 0
0:00:00.00 152791 N 0 0 0
0:00:00.00 153088 N 0 0 0
0:00:00.00 153236 N 0 0 0
0:00:00.00 153643 N 0 0 0
0:00:00.00 153929 N 0 0 0
0:00:00.00 154224 N 0 0 0
0:00:00.00 154530 N 0 0 0
0:00:00.00 154827 N 0 0 0
0:00:00.00 155101 N 0 0 0
0:00:00.00 155365 N 0 0 0
0:00:00.00 155619 N 0 0 0
0:00:00.00 155869 N 0 0 0
0:00:00.00 156038 N 0 0 0
0:00:00.00 156375 N 0 0 0
0:00:00.00 156632 N 0 0 0
0:00:00.00 156910 N 0 0 0
0:00:00.00 157190 N 0 0 0
0:00:00.00 157450 N 0 0 0
0:00:00.00 157698 N 0 0 0
0:00:00.00 157964 N 0 0 0
0:00:00.00 158245 N 0 0 0
0:00:00.00 158540 N 0 0 0
0:00:00.00 158846 N 0 0 0
0:00:00.00 159156 N 0 0 0
0:00:00.00 159466 N 0 0 0
0:00:00.00 159619 N 0 0 0
0:00:00.00 160051 N 0 0 0
0:00:00.00 160344 N 0 0 0
0:00:00.00 160664 N 0 0 0
0:00:00.00 160834 N 0 0 0
0:00:00.00 161293 N 0 0 0
0:00:00.00 161593 N 0 0 0
0:00:00.00 161874 N 0 0 0
0:00:00.00 162140 N 0 0 0
0:00:00.00 162403 N 0 0 0
0:00:00.00 162673 N 0 0 0
0:00:00.00 162877 N 0 0 0
0:00:00.00 163307 N 0 0 0
0:00:00.00 163624 N 0 0 0
0:00:00.00 163926 N 0 0 0
0:00:00.00 164214 N 0 0 0
0:00:00.00 164498 N 0 0 0
0:00:00.00 164803 N 0 0 0
0:00:00.00 164959 N 0 0 0
0:00:00.00 165413 N 0 0 0
0:00:00.00 165742 N 0 0 0
0:00:00.00 166036 N 0 0 0
0:00:00.00 166297 N 0 0 0
0:00:00.00 166558 N 0 0 0
0:00:00.00 166723 N 0 0 0
0:00:00.00 167130 N 0 0 0
0:00:00.00 167443 N 0 0 0
0:00:00.00 167738 N 0 0 0
0:00:00.00 168035 N 0 0 0
0:00:00.00 168311 N 0 0 0
0:00:00.00 168577 N 0 0 0
0:00:00.00 168763 N 0 0 0
0:00:00.00 169124 N 0 0 0
0:00:00.00 169416 N 0 0 0
0:00:00.00 169715 N 0 0 0
0:00:00.00 170003 N 0 0 0
0:00:00.00 170269 N 0 0 0
0:00:00.00 170528 N 0 0 0
0:00:00.00 170780 N 0 0 0
0:00:00.00 171036 N 0 0 0
0:00:00.00 171295 N 0 0 0
0:00:00.00 171488 N 0 0 0
0:00:00.00 171850 N 0 0 0
0:00:00.00 172143 N 0 0 0
0:00:00.00 172427 N 0 0 0
0:00:00.00 172687 N 0 0 0
0:00:00.00 172823 N 0 0 0
0:00:00.00 173232 N 0 0 0
0:00:00.00 173509 N 0 0 0
0:00:00.00 173801 N 0 0 0
0:00:00.00 174100 N 0 0 0
0:00:00.00 174400 N 0 0 0
0:00:00.00 174692 N 0 0 0
0:00:00.00 174965 N 0 0 0
0:00:00.00 175230 N 0 0 0
0:00:00.00 175525 N 0 0 0
0:00:00.00 175844 N 0 0 0
0:00:00.00 176164 N 0 0 0
0:00:00.00 176472 N 0 0 0
0:00:00.00 176789 N 0 0 0
0:00:00.00 177080 N 0 0 0
0:00:00.00 177377 N 0 0 0
0:00:00.00 177680 N 0 0 0
0:00:00.00 177991 N 0 0 0
0:00:00.00 178160 N 0 0 0
0:00:00.00 178659 N 0 0 0
0:00:00.00 178859 N 0 0 0
0:00:00.00 179233 N 0 0 0
0:00:00.00 179501 N 0 0 0
0:00:00.00 179780 N 0 0 0
0:00:00.00 180061 N 0 0 0
0:00:00.00 180344 N 0 0 0
0:00:00.00 180643 N 0 0 0
0:00:00.00 180936 N 0 0 0
0:00:00.00 181211 N 0 0 0
0:00:00.00 181352 N 0 0 0
0:00:00.00 181733 N 0 0 0
0:00:00.00 182007 N 0 0 0
0:00:00.00 182293 N 0 0 0
0:00:00.00 182574 N 0 0 0
0:00:00.00 182846 N 0 0 0
0:00:00.00 183127 N 0 0 0
0:00:00.00 183388 N 0 0 0
0:00:00.00 183636 N 0 0 0
0:00:00.00 183874 N 0 0 0
0:00:00.00 184052 N 0 0 0
0:00:00.00 184392 N 0 0 0
0:00:00.00 184669 N 0 0 0
0:00:00.00 184945 N 0 0 0
0:00:00.00 185211 N 0 0 0
0:00:00.00 185467 N 0 0 0
0:00:00.00 185722 N 0 0 0
0:00:00.00 185967 N 0 0 0
0:00:00.00 186230 N 0 0 0
0:00:00.00 186507 N 0 0 0
0:00:00.00 186797 N 0 0 0
0:00:00.00 187110 N 0 0 0
0:00:00.00 187423 N 0 0 0
0:00:00.00 187700 N 0 0 0
0:00:00.00 187967 N 0 0 0
0:00:00.00 188248 N 0 0 0
0:00:00.00 188523 N 0 0 0
0:00:00.00 188804 N 0 0 0
0:00:00.00 189090 N 0 0 0
0:00:00.00 189374 N 0 0 0
0:00:00.00 189653 N 0 0 0
0:00:00.00 189920 N 0 0 0
0:00:00.00 190165 N 0 0 0
0:00:00.00 190328 N 0 0 0
0:00:00.00 190676 N 0 0 0
0:00:00.00 190958 N 0 0 0
0:00:00.00 191241 N 0 0 0
0:00:00.00 191516 N 0 0 0
0:00:00.00 191788 N 0 0 0
0:00:00.00 191956 N 0 0 0
0:00:00.00 192303 N 0 0 0
0:00:00.00 192560 N 0 0 0
0:00:00.00 192825 N 0 0 0
0:00:00.00 193095 N 0 0 0
0:00:00.00 193399 N 0 0 0
0:00:00.00 193581 N 0 0 0
0:00:00.00 193990 N 0 0 0
0:00:00.00 194256 N 0 0 0
0:00:00.00 194526 N 0 0 0
0:00:00.00 194803 N 0 0 0
0:00:00.00 195093 N 0 0 0
0:00:00.00 195273 N 0 0 0
0:00:00.00 195674 N 0 0 0
0:00:00.00 195991 N 0 0 0
0:00:00.00 196180 N 0 0 0
0:00:00.00 196537 N 0 0 0
0:00:00.00 196798 N 0 0 0
0:00:00.00 196976 N 0 0 0
0:00:00.00 197348 N 0 0 0
0:00:00.00 197629 N 0 0 0
0:00:00.00 197825 N 0 0 0
0:00:00.00 198182 N 0 0 0
0:00:00.00 198455 N 0 0 0
0:00:00.00 198704 N 0 0 0
0:00:00.00 198945 N 0 0 0
0:00:00.00 199197 N 0 0 0
0:00:00.00 199377 N 0 0 0
0:00:00.00 199726 N 0 0 0
0:00:00.00 200009 N 0 0 0
0:00:00.00 200277 N 0 0 0
0:00:00.00 200525 N 0 0 0
0:00:00.00 200767 N 0 0 0
0:00:00.00 200941 N 0 0 0
0:00:00.00 201269 N 0 0 0
0:00:00.00 201514 N 0 0 0
0:00:00.00 201778 N 0 0 0
0:00:00.00 202046 N 0 0 0
0:00:00.00 202329 N 0 0 0
0:00:00.00 202525 N 0 0 0
0:00:00.00 202867 N 0 0 0
0:00:00.00 203110 N 0 0 0
0:00:00.00 203252 N 0 0 0
0:00:00.00 203656 N 0 0 0
0:00:00.00 203938 N 0 0 0
0:00:00.00 204228 N 0 0 0
0:00:00.00 204520 N 0 0 0
0:00:00.00 204813 N 0 0 0
0:00:00.00 205081 N 0 0 0
0:00:00.00 205337 N 0 0 0
0:00:00.00 205594 N 0 0 0
0:00:00.00 205873 N 0 0 0
0:00:00.00 206170 N 0 0 0
0:00:00.00 206473 N 0 0 0
0:00:00.00 206755 N 0 0 0
0:00:00.00 207023 N 0 0 0
0:00:00.00 207277 N 0 0 0
0:00:00.00 207529 N 0 0 0
0:00:00.00 207778 N 0 0 0
0:00:00.00 208028 N 0 0 0
0:00:00.00 208294 N 0 0 0
0:00:00.00 208582 N 0 0 0
0:00:00.00 208858 N 0 0 0
0:00:00.00 209111 N 0 0 0
0:00:00.00 209353 N 0 0 0
0:00:00.00 209581 N 0 0 0
0:00:00.00 209824 N 0 0 0
0:00:00.00 210089 N 0 0 0
0:00:00.00 210346 N 0 0 0
0:00:00.00 210609 N 0 0 0
0:00:00.00 210895 N 0 0 0
0:00:00.00 211185 N 0 0 0
0:00:00.00 211451 N 0 0 0
0:00:00.00 211698 N 0 0 0
0:00:00.00 211961 N 0 0 0
0:00:00.00 212227 N 0 0 0
0:00:00.00 212402 N 0 0 0
0:00:00.00 212830 N 0 0 0
0:00:00.00 213111 N 0 0 0
0:00:00.00 213415 N 0 0 0
0:00:00.00 213692 N 0 0 0
0:00:00.00 213955 N 0 0 0
0:00:00.00 214225 N 0 0 0
0:00:00.00 214504 N 0 0 0
0:00:00.00 214807 N 0 0 0
0:00:00.00 215118 N 0 0 0
0:00:00.00 215413 N 0 0 0
0:00:00.00 215692 N 0 0 0
0:00:00.00 215971 N 0 0 0
0:00:00.00 216245 N 0 0 0
0:00:00.00 216517 N 0 0 0
0:00:00.00 216801 N 0 0 0
0:00:00.00 217094 N 0 0 0
0:00:00.00 217395 N 0 0 0
0:00:00.00 217696 N 0 0 0
0:00:00.00 217969 N 0 0 0
0:00:00.00 218228 N 0 0 0
0:00:00.00 218513 N 0 0 0
0:00:00.00 218714 N 0 0 0
0:00:00.00 219091 N 0 0 0
0:00:00.00 219386 N 0 0 0
0:00:00.00 219677 N 0 0 0
0:00:00.00 219969 N 0 0 0
0:00:00.00 220239 N 0 0 0
0:00:00.00 220504 N 0 0 0
0:00:00.00 220779 N 0 0 0
0:00:00.00 221080 N 0 0 0
0:00:00.00 221391 N 0 0 0
0:00:00.00 221688 N 0 0 0
0:00:00.00 221998 N 0 0 0
0:00:00.00 222289 N 0 0 0
0:00:00.00 222574 N 0 0 0
0:00:00.00 222858 N 0 0 0
0:00:00.00 223148 N 0 0 0
0:00:00.00 223465 N 0 0 0
0:00:00.00 223632 N 0 0 0
0:00:00.00 224120 N 0 0 0
0:00:00.00 224415 N 0 0 0
0:00:00.00 224692 N 0 0 0
0:00:00.00 224984 N 0 0 0
0:00:00.00 225283 N 0 0 0
0:00:00.00 225432 N 0 0 0
0:00:00.00 225911 N 0 0 0
0:00:00.00 226237 N 0 0 0
0:00:00.00 226534 N 0 0 0
0:00:00.00 226669 N 0 0 0
0:00:00.00 227097 N 0 0 0
0:00:00.00 227378 N 0 0 0
0:00:00.00 227696 N 0 0 0
0:00:00.00 228001 N 0 0 0
0:00:00.00 228312 N 0 0 0
0:00:00.00 228620 N 0 0 0
0:00:00.00 228901 N 0 0 0
0:00:00.00 229183 N 0 0 0
0:00:00.00 229466 N 0 0 0
0:00:00.00 229768 N 0 0 0
0:00:00.00 230083 N 0 0 0
0:00:00.00 230405 N 0 0 0
0:00:00.00 230711 N 0 0 0
0:00:00.00 230992 N 0 0 0
0:00:00.00 231284 N 0 0 0
0:00:00.00 231422 N 0 0 0
0:00:00.00 231865 N 0 0 0
0:00:00.00 232169 N 0 0 0
0:00:00.00 232461 N 0 0 0
0:00:00.00 232648 N 0 0 0
0:00:00.00 233059 N 0 0 0
0:00:00.00 233314 N 0 0 0
0:00:00.00 233509 N 0 0 0
0:00:00.00 233872 N 0 0 0
0:00:00.00 234157 N 0 0 0
0:00:00.00 234344 N 0 0 0
0:00:00.00 234743 N 0 0 0
0:00:00.00 235024 N 0 0 0
0:00:00.00 235197 N 0 0 0
0:00:00.00 235562 N 0 0 0
0:00:00.00 235814 N 0 0 0
0:00:00.00 235985 N 0 0 0
0:00:00.00 236380 N 0 0 0
0:00:00.00 236677 N 0 0 0
0:00:00.00 236961 N 0 0 0
0:00:00.00 237242 N 0 0 0
0:00:00.00 237501 N 0 0 0
0:00:00.00 237760 N 0 0 0
0:00:00.00 238027 N 0 0 0
0:00:00.00 238289 N 0 0 0
0:00:00.00 238581 N 0 0 0
0:00:00.00 238783 N 0 0 0
0:00:00.00 239218 N 0 0 0
0:00:00.00 239492 N 0 0 0
0:00:00.00 239771 N 0 0 0
0:00:00.00 240041 N 0 0 0
0:00:00.00 240340 N 0 0 0
0:00:00.00 240640 N 0 0 0
0:00:00.00 240948 N 0 0 0
0:00:00.00 241276 N 0 0 0
0:00:00.00 241592 N 0 0 0
0:00:00.00 241882 N 0 0 0
0:00:00.00 242017 N 0 0 0
0:00:00.00 242483 N 0 0 0
0:00:00.00 242813 N 0 0 0
0:00:00.00 243149 N 0 0 0
0:00:00.00 243479 N 0 0 0
0:00:00.00 243805 N 0 0 0
0:00:00.00 244102 N 0 0 0
0:00:00.00 244390 N 0 0 0
0:00:00.00 244690 N 0 0 0
0:00:00.00 244836 N 0 0 0
0:00:00.00 245349 N 0 0 0
0:00:00.00 245664 N 0 0 0
0:00:00.00 245956 N 0 0 0
0:00:00.00 246231 N 0 0 0
0:00:00.00 246505 N 0 0 0
0:00:00.00 246789 N 0 0 0
0:00:00.00 247081 N 0 0 0
0:00:00.00 247244 N 0 0 0
0:00:00.00 247714 N 0 0 0
0:00:00.00 248015 N 0 0 0
0:00:00.00 248296 N 0 0 0
0:00:00.00 248566 N 0 0 0
0:00:00.00 248857 N 0 0 0
0:00:00.00 249028 N 0 0 0
0:00:00.00 249444 N 0 0 0
0:00:00.00 249736 N 0 0 0
0:00:00.00 250031 N 0 0 0
0:00:00.00 250313 N 0 0 0
0:00:00.00 250576 N 0 0 0
0:00:00.00 250835 N 0 0 0
0:00:00.00 251109 N 0 0 0
0:00:00.00 251415 N 0 0 0
0:00:00.00 251719 N 0 0 0
0:00:00.00 252011 N 0 0 0
0:00:00.00 252315 N 0 0 0
0:00:00.00 252594 N 0 0 0
0:00:00.00 252877 N 0 0 0
0:00:00.00 253017 N 0 0 0
0:00:00.00 253454 N 0 0 0
0:00:00.00 253768 N 0 0 0
0:00:00.00 254084 N 0 0 0
0:00:00.00 254248 N 0 0 0
0:00:00.00 254668 N 0 0 0
0:00:00.00 254936 N 0 0 0
0:00:00.00 255204 N 0 0 0
0:00:00.00 255483 N 0 0 0
0:00:00.00 255757 N 0 0 0
0:00:00.00 255904 N 0 0 0
0:00:00.00 256333 N 0 0 0
0:00:00.00 256617 N 0 0 0
0:00:00.00 256876 N 0 0 0
0:00:00.00 257130 N 0 0 0
0:00:00.00 257389 N 0 0 0
0:00:00.00 257661 N 0 0 0
0:00:00.00 257954 N 0 0 0
0:00:00.00 258248 N 0 0 0
0:00:00.00 258536 N 0 0 0
0:00:00.00 258696 N 0 0 0
0:00:00.00 259130 N 0 0 0
0:00:00.00 259396 N 0 0 0
0:00:00.00 259672 N 0 0 0
0:00:00.00 259958 N 0 0 0
0:00:00.00 260258 N 0 0 0
0:00:00.00 260570 N 0 0 0
0:00:00.00 260872 N 0 0 0
0:00:00.00 261157 N 0 0 0
0:00:00.00 261441 N 0 0 0
0:00:00.00 261716 N 0 0 0
0:00:00.00 262003 N 0 0 0
0:00:00.00 262298 N 0 0 0
0:00:00.00 262602 N 0 0 0
0:00:00.00 262913 N 0 0 0
0:00:00.00 263207 N 0 0 0
0:00:00.00 263473 N 0 0 0
0:00:00.00 263738 N 0 0 0
0:00:00.00 263887 N 0 0 0
0:00:00.00 264316 N 0 0 0
0:00:00.00 264600 N 0 0 0
0:00:00.00 264892 N 0 0 0
0:00:00.00 265183 N 0 0 0
0:00:00.00 265466 N 0 0 0
0:00:00.00 265729 N 0 0 0
0:00:00.00 265993 N 0 0 0
0:00:00.00 266270 N 0 0 0
0:00:00.00 266576 N 0 0 0
0:00:00.00 266893 N 0 0 0
0:00:00.00 267197 N 0 0 0
0:00:00.00 267503 N 0 0 0
0:00:00.00 267784 N 0 0 0
0:00:00.00 268069 N 0 0 0
0:00:00.00 268358 N 0 0 0
0:00:00.00 268652 N 0 0 0
0:00:00.00 268978 N 0 0 0
0:00:00.00 269309 N 0 0 0
0:00:00.00 269622 N 0 0 0
0:00:00.00 269921 N 0 0 0
0:00:00.00 270202 N 0 0 0
0:00:00.00 270513 N 0 0 0
0:00:00.00 270833 N 0 0 0
0:00:00.00 271154 N 0 0 0
0:00:00.00 271483 N 0 0 0
0:00:00.00 271816 N 0 0 0
0:00:00.00 272111 N 0 0 0
0:00:00.00 272401 N 0 0 0
0:00:00.00 272704 N 0 0 0
0:00:00.00 272891 N 0 0 0
0:00:00.00 273382 N 0 0 0
0:00:00.00 273697 N 0 0 0
0:00:00.00 274014 N 0 0 0
0:00:00.00 274307 N 0 0 0
0:00:00.00 274453 N 0 0 0
0:00:00.00 274876 N 0 0 0
0:00:00.00 275175 N 0 0 0
0:00:00.00 275474 N 0 0 0
0:00:00.00 275782 N 0 0 0
0:00:00.00 276070 N 0 0 0
0:00:00.00 276332 N 0 0 0
0:00:00.00 276608 N 0 0 0
0:00:00.00 276883 N 0 0 0
0:00:00.00 277150 N 0 0 0
0:00:00.00 277441 N 0 0 0
0:00:00.00 277736 N 0 0 0
0:00:00.00 277898 N 0 0 0
0:00:00.00 278330 N 0 0 0
0:00:00.00 278591 N 0 0 0
0:00:00.00 278852 N 0 0 0
0:00:00.00 279135 N 0 0 0
0:00:00.00 279418 N 0 0 0
0:00:00.00 279704 N 0 0 0
0:00:00.00 280001 N 0 0 0
0:00:00.00 280294 N 0 0 0
0:00:00.00 280586 N 0 0 0
0:00:00.00 280724 N 0 0 0
0:00:00.00 281137 N 0 0 0
0:00:00.00 281423 N 0 0 0
0:00:00.00 281612 N 0 0 0
0:00:00.00 282049 N 0 0 0
0:00:00.00 282341 N 0 0 0
0:00:00.00 282632 N 0 0 0
0:00:00.00 282911 N 0 0 0
0:00:00.00 283187 N 0 0 0
0:00:00.00 283471 N 0 0 0
0:00:00.00 283610 N 0 0 0
0:00:00.00 284099 N 0 0 0
0:00:00.00 284413 N 0 0 0
0:00:00.00 284719 N 0 0 0
0:00:00.00 285005 N 0 0 0
0:00:00.00 285282 N 0 0 0
0:00:00.00 285453 N 0 0 0
0:00:00.00 285881 N 0 0 0
0:00:00.00 286178 N 0 0 0
0:00:00.00 286510 N 0 0 0
0:00:00.00 286823 N 0 0 0
0:00:00.00 287113 N 0 0 0
0:00:00.00 287393 N 0 0 0
0:00:00.00 287680 N 0 0 0
0:00:00.00 287858 N 0 0 0
0:00:00.00 288322 N 0 0 0
0:00:00.00 288634 N 0 0 0
0:00:00.00 288950 N 0 0 0
0:00:00.00 289251 N 0 0 0
0:00:00.00 289528 N 0 0 0
0:00:00.00 289807 N 0 0 0
0:00:00.00 290097 N 0 0 0
0:00:00.00 290255 N 0 0 0
0:00:00.00 290727 N 0 0 0
0:00:00.00 291031 N 0 0 0
0:00:00.00 291308 N 0 0 0
0:00:00.00 291591 N 0 0 0
0:00:00.00 291857 N 0 0 0
0:00:00.00 292001 N 0 0 0
0:00:00.00 292396 N 0 0 0
0:00:00.00 292675 N 0 0 0
0:00:00.00 292961 N 0 0 0
0:00:00.00 293245 N 0 0 0
0:00:00.00 293512 N 0 0 0
0:00:00.00 293765 N 0 0 0
0:00:00.00 294028 N 0 0 0
0:00:00.00 294305 N 0 0 0
0:00:00.00 294581 N 0 0 0
0:00:00.00 294867 N 0 0 0
0:00:00.00 295166 N 0 0 0
0:00:00.00 295463 N 0 0 0
0:00:00.00 295756 N 0 0 0
0:00:00.00 295898 N 0 0 0
0:00:00.00 296332 N 0 0 0
0:00:00.00 296633 N 0 0 0
0:00:00.00 296944 N 0 0 0
0:00:00.00 297243 N 0 0 0
0:00:00.00 297551 N 0 0 0
0:00:00.00 297724 N 0 0 0
0:00:00.00 298147 N 0 0 0
0:00:00.00 298429 N 0 0 0
0:00:00.00 298715 N 0 0 0
0:00:00.00 299021 N 0 0 0
0:00:00.00 299191 N 0 0 0
0:00:00.00 299664 N 0 0 0
0:00:00.00 299948 N 0 0 0
0:00:00.00 300231 N 0 0 0
0:00:00.00 300514 N 0 0 0
0:00:00.00 300803 N 0 0 0
0:00:00.00 301099 N 0 0 0
0:00:00.00 301401 N 0 0 0
0:00:00.00 301561 N 0 0 0
0:00:00.00 301775 N 0 0 0
0:00:00.00 301916 N 0 0 0
0:00:00.00 302404 N 0 0 0
0:00:00.00 302674 N 0 0 0
0:00:00.00 302951 N 0 0 0
0:00:00.00 303242 N 0 0 0
0:00:00.00 303527 N 0 0 0
0:00:00.00 303719 N 0 0 0
0:00:00.00 304097 N 0 0 0
0:00:00.00 304364 N 0 0 0
0:00:00.00 304628 N 0 0 0
0:00:00.00 304877 N 0 0 0
0:00:00.00 305143 N 0 0 0
0:00:00.00 305413 N 0 0 0
0:00:00.00 305705 N 0 0 0
0:00:00.00 305993 N 0 0 0
0:00:00.00 306284 N 0 0 0
0:00:00.00 306562 N 0 0 0
0:00:00.00 306707 N 0 0 0
0:00:00.00 306869 N 0 0 0
0:00:00.00 307346 N 0 0 0
0:00:00.00 307638 N 0 0 0
0:00:00.00 307942 N 0 0 0
0:00:00.00 308255 N 0 0 0
0:00:00.00 308547 N 0 0 0
0:00:00.00 308822 N 0 0 0
0:00:00.00 309002 N 0 0 0
0:00:00.00 309427 N 0 0 0
0:00:00.00 309722 N 0 0 0
0:00:00.00 310039 N 0 0 0
0:00:00.00 310352 N 0 0 0
0:00:00.00 310514 N 0 0 0
0:00:00.00 310981 N 0 0 0
0:00:00.00 311260 N 0 0 0
0:00:00.00 311560 N 0 0 0
0:00:00.00 311877 N 0 0 0
0:00:00.00 312199 N 0 0 0
0:00:00.00 312512 N 0 0 0
0:00:00.00 312829 N 0 0 0
0:00:00.00 313124 N 0 0 0
0:00:00.00 313416 N 0 0 0
0:00:00.00 313709 N 0 0 0
0:00:00.00 313853 N 0 0 0
0:00:00.00 314347 N 0 0 0
0:00:00.00 314653 N 0 0 0
0:00:00.00 314941 N 0 0 0
0:00:00.00 315211 N 0 0 0
0:00:00.00 315481 N 0 0 0
0:00:00.00 315760 N 0 0 0
0:00:00.00 316040 N 0 0 0
0:00:00.00 316220 N 0 0 0
0:00:00.00 316647 N 0 0 0
0:00:00.00 316953 N 0 0 0
0:00:00.00 317133 N 0 0 0
0:00:00.00 317500 N 0 0 0
0:00:00.00 317763 N 0 0 0
0:00:00.00 318035 N 0 0 0
0:00:00.00 318307 N 0 0 0
0:00:00.00 318591 N 0 0 0
0:00:00.00 318877 N 0 0 0
0:00:00.00 319174 N 0 0 0
0:00:00.00 319450 N 0 0 0
0:00:00.00 319707 N 0 0 0
0:00:00.00 319844 N 0 0 0
0:00:00.00 320240 N 0 0 0
0:00:00.00 320526 N 0 0 0
0:00:00.00 320823 N 0 0 0
0:00:00.00 321116 N 0 0 0
0:00:00.00 321415 N 0 0 0
0:00:00.00 321703 N 0 0 0
0:00:00.00 321988 N 0 0 0
0:00:00.00 322277 N 0 0 0
0:00:00.00 322583 N 0 0 0
0:00:00.00 322900 N 0 0 0
0:00:00.00 323239 N 0 0 0
0:00:00.00 323563 N 0 0 0
0:00:00.00 323865 N 0 0 0
0:00:00.00 324036 N 0 0 0
0:00:00.00 324504 N 0 0 0
0:00:00.00 324815 N 0 0 0
0:00:00.00 325148 N 0 0 0
0:00:00.00 325346 N 0 0 0
0:00:00.00 325829 N 0 0 0
0:00:00.00 326117 N 0 0 0
0:00:00.00 326407 N 0 0 0
0:00:00.00 326723 N 0 0 0
0:00:00.00 327035 N 0 0 0
0:00:00.00 327344 N 0 0 0
0:00:00.00 327665 N 0 0 0
0:00:00.00 327809 N 0 0 0
0:00:00.00 328262 N 0 0 0
0:00:00.00 328534 N 0 0 0
0:00:00.00 328813 N 0 0 0
0:00:00.00 328964 N 0 0 0
0:00:00.00 329425 N 0 0 0
0:00:00.00 329717 N 0 0 0
0:00:00.00 330012 N 0 0 0
0:00:00.00 330293 N 0 0 0
0:00:00.00 330566 N 0 0 0
0:00:00.00 330845 N 0 0 0
0:00:00.00 331121 N 0 0 0
0:00:00.00 331393 N 0 0 0
0:00:00.00 331684 N 0 0 0
0:00:00.00 331976 N 0 0 0
0:00:00.00 332248 N 0 0 0
0:00:00.00 332509 N 0 0 0
0:00:00.00 332766 N 0 0 0
0:00:00.00 333025 N 0 0 0
0:00:00.00 333304 N 0 0 0
0:00:00.00 333598 N 0 0 0
0:00:00.00 333752 N 0 0 0
0:00:00.00 334202 N 0 0 0
0:00:00.00 334498 N 0 0 0
0:00:00.00 334775 N 0 0 0
0:00:00.00 335045 N 0 0 0
0:00:00.00 335335 N 0 0 0
0:00:00.00 335538 N 0 0 0
0:00:00.00 335954 N 0 0 0
0:00:00.00 336267 N 0 0 0
0:00:00.00 336569 N 0 0 0
0:00:00.00 336870 N 0 0 0
0:00:00.00 337158 N 0 0 0
0:00:00.00 337450 N 0 0 0
0:00:00.00 337757 N 0 0 0
0:00:00.00 338087 N 0 0 0
0:00:00.00 338429 N 0 0 0
0:00:00.00 338614 N 0 0 0
0:00:00.00 339077 N 0 0 0
0:00:00.00 339383 N 0 0 0
0:00:00.00 339701 N 0 0 0
0:00:00.00 340013 N 0 0 0
0:00:00.00 340196 N 0 0 0
0:00:00.00 340690 N 0 0 0
0:00:00.00 341008 N 0 0 0
0:00:00.00 341294 N 0 0 0
0:00:00.00 341579 N 0 0 0
0:00:00.00 341881 N 0 0 0
0:00:00.00 342184 N 0 0 0
0:00:00.00 342488 N 0 0 0
0:00:00.00 342797 N 0 0 0
0:00:00.00 343098 N 0 0 0
0:00:00.00 343388 N 0 0 0
0:00:00.00 343658 N 0 0 0
0:00:00.00 343935 N 0 0 0
0:00:00.00 344124 N 0 0 0
0:00:00.00 344565 N 0 0 0
0:00:00.00 344867 N 0 0 0
0:00:00.00 345166 N 0 0 0
0:00:00.00 345434 N 0 0 0
0:00:00.00 345699 N 0 0 0
0:00:00.00 345969 N 0 0 0
0:00:00.00 346244 N 0 0 0
0:00:00.00 346525 N 0 0 0
0:00:00.00 346840 N 0 0 0
0:00:00.00 347141 N 0 0 0
0:00:00.00 347425 N 0 0 0
0:00:00.00 347693 N 0 0 0
0:00:00.00 347956 N 0 0 0
0:00:00.00 348106 N 0 0 0
0:00:00.00 348541 N 0 0 0
0:00:00.00 348835 N 0 0 0
0:00:00.00 349141 N 0 0 0
0:00:00.00 349459 N 0 0 0
0:00:00.00 349742 N 0 0 0
0:00:00.00 350008 N 0 0 0
0:00:00.00 350285 N 0 0 0
0:00:00.00 350577 N 0 0 0
0:00:00.00 350897 N 0 0 0
0:00:00.00 351052 N 0 0 0
0:00:00.00 351551 N 0 0 0
0:00:00.00 351862 N 0 0 0
0:00:00.00 352156 N 0 0 0
0:00:00.00 352433 N 0 0 0
0:00:00.00 352732 N 0 0 0
0:00:00.00 353048 N 0 0 0
0:00:00.00 353378 N 0 0 0
0:00:00.00 353707 N 0 0 0
0:00:00.00 354008 N 0 0 0
0:00:00.00 354154 N 0 0 0
0:00:00.00 354609 N 0 0 0
0:00:00.00 354890 N 0 0 0
0:00:00.00 355196 N 0 0 0
0:00:00.00 355345 N 0 0 0
0:00:00.00 355536 N 0 0 0
0:00:00.00 356060 N 0 0 0
0:00:00.00 356333 N 0 0 0
0:00:00.00 356602 N 0 0 0
0:00:00.00 356872 N 0 0 0
0:00:00.00 357143 N 0 0 0
0:00:00.00 357417 N 0 0 0
0:00:00.00 357698 N 0 0 0
0:00:00.00 357979 N 0 0 0
0:00:00.00 358261 N 0 0 0
0:00:00.00 358520 N 0 0 0
0:00:00.00 358778 N 0 0 0
0:00:00.00 359042 N 0 0 0
0:00:00.00 359332 N 0 0 0
0:00:00.00 359622 N 0 0 0
0:00:00.00 359910 N 0 0 0
0:00:00.00 360205 N 0 0 0
0:00:00.00 360486 N 0 0 0
0:00:00.00 360763 N 0 0 0
0:00:00.00 361037 N 0 0 0
0:00:00.00 361319 N 0 0 0
0:00:00.00 361618 N 0 0 0
0:00:00.00 361796 N 0 0 0
0:00:00.00 362282 N 0 0 0
0:00:00.00 362578 N 0 0 0
0:00:00.00 362860 N 0 0 0
0:00:00.00 363137 N 0 0 0
0:00:00.00 363436 N 0 0 0
0:00:00.00 363737 N 0 0 0
0:00:00.00 364039 N 0 0 0
0:00:00.00 364370 N 0 0 0
0:00:00.00 364684 N 0 0 0
0:00:00.00 364966 N 0 0 0
0:00:00.00 365252 N 0 0 0
0:00:00.00 365535 N 0 0 0
0:00:00.00 365837 N 0 0 0
0:00:00.00 366032 N 0 0 0
0:00:00.00 366476 N 0 0 0
0:00:00.00 366777 N 0 0 0
0:00:00.00 366959 N 0 0 0
0:00:00.00 367353 N 0 0 0
0:00:00.00 367616 N 0 0 0
0:00:00.00 367900 N 0 0 0
0:00:00.00 368185 N 0 0 0
0:00:00.00 368491 N 0 0 0
0:00:00.00 368653 N 0 0 0
0:00:00.00 369099 N 0 0 0
0:00:00.00 369376 N 0 0 0
0:00:00.00 369653 N 0 0 0
0:00:00.00 369932 N 0 0 0
0:00:00.00 370206 N 0 0 0
0:00:00.00 370395 N 0 0 0
0:00:00.00 370805 N 0 0 0
0:00:00.00 371097 N 0 0 0
0:00:00.00 371371 N 0 0 0
0:00:00.00 371621 N 0 0 0
0:00:00.00 371891 N 0 0 0
0:00:00.00 372170 N 0 0 0
0:00:00.00 372452 N 0 0 0
0:00:00.00 372737 N 0 0 0
0:00:00.00 373032 N 0 0 0
0:00:00.00 373324 N 0 0 0
0:00:00.00 373603 N 0 0 0
0:00:00.00 373871 N 0 0 0
0:00:00.00 374150 N 0 0 0
0:00:00.00 374294 N 0 0 0
0:00:00.00 374767 N 0 0 0
0:00:00.00 375091 N 0 0 0
0:00:00.00 375408 N 0 0 0
0:00:00.00 375700 N 0 0 0
0:00:00.00 376000 N 0 0 0
0:00:00.00 376191 N 0 0 0
0:00:00.00 376628 N 0 0 0
0:00:00.00 376956 N 0 0 0
0:00:00.00 377302 N 0 0 0
0:00:00.00 377627 N 0 0 0
0:00:00.00 377924 N 0 0 0
0:00:00.00 378221 N 0 0 0
0:00:00.00 378540 N 0 0 0
0:00:00.00 378862 N 0 0 0
0:00:00.00 379188 N 0 0 0
0:00:00.00 379543 N 0 0 0
0:00:00.00 379784 N 0 0 0
0:00:00.00 380189 N 0 0 0
0:00:00.00 380489 N 0 0 0
0:00:00.00 380788 N 0 0 0
0:00:00.00 381101 N 0 0 0
0:00:00.00 381418 N 0 0 0
0:00:00.00 381569 N 0 0 0
0:00:00.00 382059 N 0 0 0
0:00:00.00 382336 N 0 0 0
0:00:00.00 382601 N 0 0 0
0:00:00.00 382880 N 0 0 0
0:00:00.00 383170 N 0 0 0
0:00:00.00 383476 N 0 0 0
0:00:00.00 383789 N 0 0 0
0:00:00.00 384088 N 0 0 0
0:00:00.00 384370 N 0 0 0
0:00:00.00 384644 N 0 0 0
0:00:00.00 384908 N 0 0 0
0:00:00.00 385178 N 0 0 0
0:00:00.00 385465 N 0 0 0
0:00:00.00 385751 N 0 0 0
0:00:00.00 386048 N 0 0 0
0:00:00.00 386325 N 0 0 0
0:00:00.00 386572 N 0 0 0
0:00:00.00 386820 N 0 0 0
0:00:00.00 387085 N 0 0 0
0:00:00.00 387349 N 0 0 0
0:00:00.00 387603 N 0 0 0
0:00:00.00 387868 N 0 0 0
0:00:00.00 388134 N 0 0 0
0:00:00.00 388399 N 0 0 0
0:00:00.00 388649 N 0 0 0
0:00:00.00 388888 N 0 0 0
0:00:00.00 389117 N 0 0 0
0:00:00.00 389376 N 0 0 0
0:00:00.00 389646 N 0 0 0
0:00:00.00 389929 N 0 0 0
0:00:00.00 390204 N 0 0 0
0:00:00.00 390488 N 0 0 0
0:00:00.00 390757 N 0 0 0
0:00:00.00 391019 N 0 0 0
0:00:00.00 391268 N 0 0 0
0:00:00.00 391522 N 0 0 0
0:00:00.00 391792 N 0 0 0
0:00:00.00 392083 N 0 0 0
0:00:00.00 392375 N 0 0 0
0:00:00.00 392656 N 0 0 0
0:00:00.00 392927 N 0 0 0
0:00:00.00 393192 N 0 0 0
0:00:00.00 393421 N 0 0 0
0:00:00.00 393745 N 0 0 0
0:00:00.00 394022 N 0 0 0
0:00:00.00 394321 N 0 0 0
0:00:00.00 394630 N 0 0 0
0:00:00.00 394931 N 0 0 0
0:00:00.00 395208 N 0 0 0
0:00:00.00 395347 N 0 0 0
0:00:00.00 395782 N 0 0 0
0:00:00.00 396081 N 0 0 0
0:00:00.00 396385 N 0 0 0
0:00:00.00 396689 N 0 0 0
0:00:00.00 397012 N 0 0 0
0:00:00.00 397166 N 0 0 0
0:00:00.00 397591 N 0 0 0
0:00:00.00 397861 N 0 0 0
0:00:00.00 398153 N 0 0 0
0:00:00.00 398470 N 0 0 0
0:00:00.00 398779 N 0 0 0
0:00:00.00 398963 N 0 0 0
0:00:00.00 399404 N 0 0 0
0:00:00.00 399686 N 0 0 0
0:00:00.00 399856 N 0 0 0
0:00:00.00 400255 N 0 0 0
0:00:00.00 400545 N 0 0 0
0:00:00.00 400745 N 0 0 0
0:00:00.00 401161 N 0 0 0
0:00:00.00 401445 N 0 0 0
0:00:00.00 401708 N 0 0 0
0:00:00.00 401974 N 0 0 0
0:00:00.00 402250 N 0 0 0
0:00:00.00 402401 N 0 0 0
0:00:00.00 402824 N 0 0 0
0:00:00.00 403110 N 0 0 0
0:00:00.00 403411 N 0 0 0
0:00:00.00 403699 N 0 0 0
0:00:00.00 403961 N 0 0 0
0:00:00.00 404217 N 0 0 0
0:00:00.00 404505 N 0 0 0
0:00:00.00 404806 N 0 0 0
0:00:00.00 404995 N 0 0 0
0:00:00.00 405414 N 0 0 0
0:00:00.00 405715 N 0 0 0
0:00:00.00 406003 N 0 0 0
0:00:00.00 406280 N 0 0 0
0:00:00.00 406570 N 0 0 0
0:00:00.00 406858 N 0 0 0
0:00:00.00 407052 N 0 0 0
0:00:00.00 407518 N 0 0 0
0:00:00.00 407821 N 0 0 0
0:00:00.00 408123 N 0 0 0
0:00:00.00 408407 N 0 0 0
0:00:00.00 408706 N 0 0 0
0:00:00.00 409012 N 0 0 0
0:00:00.00 409324 N 0 0 0
0:00:00.00 409662 N 0 0 0
0:00:00.00 409995 N 0 0 0
0:00:00.00 410299 N 0 0 0
0:00:00.00 410602 N 0 0 0
0:00:00.00 410913 N 0 0 0
0:00:00.00 411242 N 0 0 0
0:00:00.00 411577 N 0 0 0
0:00:00.00 411908 N 0 0 0
0:00:00.00 412252 N 0 0 0
0:00:00.00 412461 N 0 0 0
0:00:00.00 412596 N 0 0 0
0:00:00.00 413093 N 0 0 0
0:00:00.00 413399 N 0 0 0
0:00:00.00 413721 N 0 0 0
0:00:00.00 414018 N 0 0 0
0:00:00.00 414311 N 0 0 0
0:00:00.00 414599 N 0 0 0
0:00:00.00 414871 N 0 0 0
0:00:00.00 415138 N 0 0 0
0:00:00.00 415404 N 0 0 0
0:00:00.00 415683 N 0 0 0
0:00:00.00 415975 N 0 0 0
0:00:00.00 416268 N 0 0 0
0:00:00.00 416538 N 0 0 0
0:00:00.00 416790 N 0 0 0
0:00:00.00 417051 N 0 0 0
0:00:00.00 417222 N 0 0 0
0:00:00.00 417591 N 0 0 0
0:00:00.00 417872 N 0 0 0
0:00:00.00 418162 N 0 0 0
0:00:00.00 418455 N 0 0 0
0:00:00.00 418750 N 0 0 0
0:00:00.00 418918 N 0 0 0
0:00:00.00 419272 N 0 0 0
0:00:00.00 419557 N 0 0 0
0:00:00.00 419845 N 0 0 0
0:00:00.00 420138 N 0 0 0
0:00:00.00 420435 N 0 0 0
0:00:00.00 420719 N 0 0 0
0:00:00.00 420991 N 0 0 0
0:00:00.00 421252 N 0 0 0
0:00:00.00 421506 N 0 0 0
0:00:00.00 421760 N 0 0 0
0:00:00.00 422039 N 0 0 0
0:00:00.00 422321 N 0 0 0
0:00:00.00 422593 N 0 0 0
0:00:00.00 422860 N 0 0 0
0:00:00.00 423119 N 0 0 0
0:00:00.00 423362 N 0 0 0
0:00:00.00 423603 N 0 0 0
0:00:00.00 423848 N 0 0 0
0:00:00.00 424067 N 0 0 0
0:00:00.00 424339 N 0 0 0
0:00:00.00 424616 N 0 0 0
0:00:00.00 424879 N 0 0 0
0:00:00.00 425128 N 0 0 0
0:00:00.00 425363 N 0 0 0
0:00:00.00 425597 N 0 0 0
0:00:00.00 425830 N 0 0 0
0:00:00.00 426011 N 0 0 0
0:00:00.00 426328 N 0 0 0
0:00:00.00 426584 N 0 0 0
0:00:00.00 426848 N 0 0 0
0:00:00.00 427131 N 0 0 0
0:00:00.00 427397 N 0 0 0
0:00:00.00 427644 N 0 0 0
0:00:00.00 427819 N 0 0 0
0:00:00.00 428148 N 0 0 0
0:00:00.00 428416 N 0 0 0
0:00:00.00 428701 N 0 0 0
0:00:00.00 428980 N 0 0 0
0:00:00.00 429259 N 0 0 0
0:00:00.00 429548 N 0 0 0
0:00:00.00 429721 N 0 0 0
0:00:00.00 430114 N 0 0 0
0:00:00.00 430384 N 0 0 0
0:00:00.00 430679 N 0 0 0
0:00:00.00 430843 N 0 0 0
0:00:00.00 431323 N 0 0 0
0:00:00.00 431635 N 0 0 0
0:00:00.00 431928 N 0 0 0
0:00:00.00 432218 N 0 0 0
0:00:00.00 432517 N 0 0 0
0:00:00.00 432718 N 0 0 0
0:00:00.00 433136 N 0 0 0
0:00:00.00 433463 N 0 0 0
0:00:00.00 433782 N 0 0 0
0:00:00.00 434077 N 0 0 0
0:00:00.00 434353 N 0 0 0
0:00:00.00 434660 N 0 0 0
0:00:00.00 434830 N 0 0 0
0:00:00.00 435283 N 0 0 0
0:00:00.00 435600 N 0 0 0
0:00:00.00 435910 N 0 0 0
0:00:00.00 436214 N 0 0 0
0:00:00.00 436495 N 0 0 0
0:00:00.00 436779 N 0 0 0
0:00:00.00 437098 N 0 0 0
0:00:00.00 437423 N 0 0 0
0:00:00.00 437751 N 0 0 0
0:00:00.00 437935 N 0 0 0
0:00:00.00 438404 N 0 0 0
0:00:00.00 438710 N 0 0 0
0:00:00.00 439016 N 0 0 0
0:00:00.00 439321 N 0 0 0
0:00:00.00 439659 N 0 0 0
0:00:00.00 440003 N 0 0 0
0:00:00.00 440179 N 0 0 0
0:00:00.00 440638 N 0 0 0
0:00:00.00 440926 N 0 0 0
0:00:00.00 441243 N 0 0 0
0:00:00.00 441558 N 0 0 0
0:00:00.00 441868 N 0 0 0
0:00:00.00 442211 N 0 0 0
0:00:00.00 442526 N 0 0 0
0:00:00.00 442816 N 0 0 0
0:00:00.00 443115 N 0 0 0
0:00:00.00 443410 N 0 0 0
0:00:00.00 443736 N 0 0 0
0:00:00.00 443941 N 0 0 0
0:00:00.00 444379 N 0 0 0
0:00:00.00 444564 N 0 0 0
0:00:00.00 444983 N 0 0 0
0:00:00.00 445253 N 0 0 0
0:00:00.00 445532 N 0 0 0
0:00:00.00 445813 N 0 0 0
0:00:00.00 446112 N 0 0 0
0:00:00.00 446281 N 0 0 0
0:00:00.00 446719 N 0 0 0
0:00:00.00 446983 N 0 0 0
0:00:00.00 447248 N 0 0 0
0:00:00.00 447512 N 0 0 0
0:00:00.00 447775 N 0 0 0
0:00:00.00 448052 N 0 0 0
0:00:00.00 448339 N 0 0 0
0:00:00.00 448634 N 0 0 0
0:00:00.00 448924 N 0 0 0
0:00:00.00 449183 N 0 0 0
0:00:00.00 449429 N 0 0 0
0:00:00.00 449698 N 0 0 0
0:00:00.00 449883 N 0 0 0
0:00:00.00 450259 N 0 0 0
0:00:00.00 450547 N 0 0 0
0:00:00.00 450846 N 0 0 0
0:00:00.00 451145 N 0 0 0
0:00:00.00 451327 N 0 0 0
0:00:00.00 451690 N 0 0 0
0:00:00.00 451966 N 0 0 0
0:00:00.00 452151 N 0 0 0
0:00:00.00 452576 N 0 0 0
0:00:00.00 452869 N 0 0 0
0:00:00.00 453049 N 0 0 0
0:00:00.00 453434 N 0 0 0
0:00:00.00 453697 N 0 0 0
0:00:00.00 453949 N 0 0 0
0:00:00.00 454210 N 0 0 0
0:00:00.00 454477 N 0 0 0
0:00:00.00 454671 N 0 0 0
0:00:00.00 455060 N 0 0 0
0:00:00.00 455330 N 0 0 0
0:00:00.00 455587 N 0 0 0
0:00:00.00 455832 N 0 0 0
0:00:00.00 456080 N 0 0 0
0:00:00.00 456262 N 0 0 0
0:00:00.00 456408 N 0 0 0
0:00:00.00 456858 N 0 0 0
0:00:00.00 457151 N 0 0 0
0:00:00.00 457317 N 0 0 0
0:00:00.00 457724 N 0 0 0
0:00:00.00 457969 N 0 0 0
0:00:00.00 458113 N 0 0 0
0:00:00.00 458489 N 0 0 0
0:00:00.00 458762 N 0 0 0
0:00:00.00 458912 N 0 0 0
0:00:00.00 459313 N 0 0 0
0:00:00.00 459598 N 0 0 0
0:00:00.00 459866 N 0 0 0
0:00:00.00 460116 N 0 0 0
0:00:00.00 460357 N 0 0 0
0:00:00.00 460618 N 0 0 0
0:00:00.00 460890 N 0 0 0
0:00:00.00 461183 N 0 0 0
0:00:00.00 461480 N 0 0 0
0:00:00.00 461776 N 0 0 0
0:00:00.00 462074 N 0 0 0
0:00:00.00 462353 N 0 0 0
0:00:00.00 462636 N 0 0 0
0:00:00.00 462926 N 0 0 0
0:00:00.00 463223 N 0 0 0
0:00:00.00 463552 N 0 0 0
0:00:00.00 463876 N 0 0 0
0:00:00.00 464184 N 0 0 0
0:00:00.00 464479 N 0 0 0
0:00:00.00 464780 N 0 0 0
0:00:00.00 465088 N 0 0 0
0:00:00.00 465399 N 0 0 0
0:00:00.00 465723 N 0 0 0
0:00:00.00 466060 N 0 0 0
0:00:00.00 466382 N 0 0 0
0:00:00.00 466673 N 0 0 0
0:00:00.00 466961 N 0 0 0
0:00:00.00 467273 N 0 0 0
0:00:00.00 467428 N 0 0 0
0:00:00.00 467901 N 0 0 0
0:00:00.00 468200 N 0 0 0
0:00:00.00 468488 N 0 0 0
0:00:00.00 468761 N 0 0 0
0:00:00.00 469024 N 0 0 0
0:00:00.00 469168 N 0 0 0
0:00:00.00 469584 N 0 0 0
0:00:00.00 469879 N 0 0 0
0:00:00.00 470171 N 0 0 0
0:00:00.00 470455 N 0 0 0
0:00:00.00 470731 N 0 0 0
0:00:00.00 470995 N 0 0 0
0:00:00.00 471267 N 0 0 0
0:00:00.00 471542 N 0 0 0
0:00:00.00 471823 N 0 0 0
0:00:00.00 472117 N 0 0 0
0:00:00.00 472318 N 0 0 0
0:00:00.00 472712 N 0 0 0
0:00:00.00 472970 N 0 0 0
0:00:00.00 473114 N 0 0 0
0:00:00.00 473470 N 0 0 0
0:00:00.00 473726 N 0 0 0
0:00:00.00 473998 N 0 0 0
0:00:00.00 474266 N 0 0 0
0:00:00.00 474530 N 0 0 0
0:00:00.00 474820 N 0 0 0
0:00:00.00 475081 N 0 0 0
0:00:00.00 475331 N 0 0 0
0:00:00.00 475592 N 0 0 0
0:00:00.00 475868 N 0 0 0
0:00:00.00 476172 N 0 0 0
0:00:00.00 476494 N 0 0 0
0:00:00.00 476815 N 0 0 0
0:00:00.00 477122 N 0 0 0
0:00:00.00 477432 N 0 0 0
0:00:00.00 477724 N 0 0 0
0:00:00.00 478030 N 0 0 0
0:00:00.00 478357 N 0 0 0
0:00:00.00 478573 N 0 0 0
0:00:00.00 479054 N 0 0 0
0:00:00.00 479363 N 0 0 0
0:00:00.00 479673 N 0 0 0
0:00:00.00 479990 N 0 0 0
0:00:00.00 480312 N 0 0 0
0:00:00.00 480634 N 0 0 0
0:00:00.00 480978 N 0 0 0
0:00:00.00 481327 N 0 0 0
0:00:00.00 481642 N 0 0 0
0:00:00.00 481945 N 0 0 0
0:00:00.00 482269 N 0 0 0
0:00:00.00 482611 N 0 0 0
0:00:00.00 482947 N 0 0 0
0:00:00.00 483298 N 0 0 0
0:00:00.00 483631 N 0 0 0
0:00:00.00 483952 N 0 0 0
0:00:00.00 484256 N 0 0 0
0:00:00.00 484574 N 0 0 0
0:00:00.00 484940 N 0 0 0
0:00:00.00 485300 N 0 0 0
0:00:00.00 485631 N 0 0 0
0:00:00.00 485948 N 0 0 0
0:00:00.00 486254 N 0 0 0
0:00:00.00 486562 N 0 0 0
0:00:00.00 486878 N 0 0 0
0:00:00.00 487210 N 0 0 0
0:00:00.00 487550 N 0 0 0
0:00:00.00 487874 N 0 0 0
0:00:00.00 488156 N 0 0 0
0:00:00.00 488425 N 0 0 0
0:00:00.00 488713 N 0 0 0
0:00:00.00 489010 N 0 0 0
0:00:00.00 489166 N 0 0 0
0:00:00.00 489602 N 0 0 0
0:00:00.00 489915 N 0 0 0
0:00:00.00 490192 N 0 0 0
0:00:00.00 490455 N 0 0 0
0:00:00.00 490725 N 0 0 0
0:00:00.00 491004 N 0 0 0
0:00:00.00 491315 N 0 0 0
0:00:00.00 491632 N 0 0 0
0:00:00.00 491944 N 0 0 0
0:00:00.00 492268 N 0 0 0
0:00:00.00 492570 N 0 0 0
0:00:00.00 492860 N 0 0 0
0:00:00.00 493177 N 0 0 0
0:00:00.00 493513 N 0 0 0
0:00:00.00 493862 N 0 0 0
0:00:00.00 494201 N 0 0 0
0:00:00.00 494518 N 0 0 0
0:00:00.00 494840 N 0 0 0
0:00:00.00 495148 N 0 0 0
0:00:00.00 495466 N 0 0 0
0:00:00.00 495803 N 0 0 0
0:00:00.00 496139 N 0 0 0
0:00:00.00 496481 N 0 0 0
0:00:00.00 496786 N 0 0 0
0:00:00.00 497075 N 0 0 0
0:00:00.00 497225 N 0 0 0
0:00:00.00 497677 N 0 0 0
0:00:00.00 497966 N 0 0 0
0:00:00.00 498258 N 0 0 0
0:00:00.00 498551 N 0 0 0
0:00:00.00 498829 N 0 0 0
0:00:00.00 499086 N 0 0 0
0:00:00.00 499345 N 0 0 0
0:00:00.00 499615 N 0 0 0
0:00:00.00 499903 N 0 0 0
0:00:00.00 500200 N 0 0 0
0:00:00.00 500479 N 0 0 0
0:00:00.00 500765 N 0 0 0
0:00:00.00 500931 N 0 0 0
0:00:00.00 501289 N 0 0 0
0:00:00.00 501547 N 0 0 0
0:00:00.00 501692 N 0 0 0
0:00:00.00 502076 N 0 0 0
0:00:00.00 502373 N 0 0 0
0:00:00.00 502652 N 0 0 0
0:00:00.00 502913 N 0 0 0
0:00:00.00 503163 N 0 0 0
0:00:00.00 503404 N 0 0 0
0:00:00.00 503649 N 0 0 0
0:00:00.00 503915 N 0 0 0
0:00:00.00 504182 N 0 0 0
0:00:00.00 504464 N 0 0 0
0:00:00.00 504778 N 0 0 0
0:00:00.00 504979 N 0 0 0
0:00:00.00 505206 N 0 0 0
0:00:00.00 505636 N 0 0 0
0:00:00.00 505903 N 0 0 0
0:00:00.00 506182 N 0 0 0
0:00:00.00 506484 N 0 0 0
0:00:00.00 506777 N 0 0 0
0:00:00.00 507076 N 0 0 0
0:00:00.00 507388 N 0 0 0
0:00:00.00 507670 N 0 0 0
0:00:00.00 507955 N 0 0 0
0:00:00.00 508261 N 0 0 0
0:00:00.00 508572 N 0 0 0
0:00:00.00 508901 N 0 0 0
0:00:00.00 509238 N 0 0 0
0:00:00.00 509548 N 0 0 0
0:00:00.00 509852 N 0 0 0
0:00:00.00 510152 N 0 0 0
0:00:00.00 510440 N 0 0 0
0:00:00.00 510736 N 0 0 0
0:00:00.00 511036 N 0 0 0
0:00:00.00 511349 N 0 0 0
0:00:00.00 511659 N 0 0 0
0:00:00.00 511936 N 0 0 0
0:00:00.00 512206 N 0 0 0
0:00:00.00 512498 N 0 0 0
0:00:00.00 512644 N 0 0 0
0:00:00.00 513070 N 0 0 0
0:00:00.00 513360 N 0 0 0
0:00:00.00 513540 N 0 0 0
0:00:00.00 513898 N 0 0 0
0:00:00.00 514145 N 0 0 0
0:00:00.00 514386 N 0 0 0
0:00:00.00 514624 N 0 0 0
0:00:00.00 514879 N 0 0 0
0:00:00.00 515151 N 0 0 0
0:00:00.00 515432 N 0 0 0
0:00:00.00 515709 N 0 0 0
0:00:00.00 515992 N 0 0 0
0:00:00.00 516258 N 0 0 0
0:00:00.00 516524 N 0 0 0
0:00:00.00 516690 N 0 0 0
0:00:00.00 517064 N 0 0 0
0:00:00.00 517351 N 0 0 0
0:00:00.00 517644 N 0 0 0
0:00:00.00 517932 N 0 0 0
0:00:00.00 518195 N 0 0 0
0:00:00.00 518360 N 0 0 0
0:00:00.00 518740 N 0 0 0
0:00:00.00 519025 N 0 0 0
0:00:00.00 519302 N 0 0 0
0:00:00.00 519575 N 0 0 0
0:00:00.00 519880 N 0 0 0
0:00:00.00 520076 N 0 0 0
0:00:00.00 520470 N 0 0 0
0:00:00.00 520731 N 0 0 0
0:00:00.00 520915 N 0 0 0
0:00:00.00 521336 N 0 0 0
0:00:00.00 521654 N 0 0 0
0:00:00.00 521966 N 0 0 0
0:00:00.00 522292 N 0 0 0
0:00:00.00 522605 N 0 0 0
0:00:00.00 522797 N 0 0 0
0:00:00.00 523188 N 0 0 0
0:00:00.00 523478 N 0 0 0
0:00:00.00 523802 N 0 0 0
0:00:00.00 524122 N 0 0 0
0:00:00.00 524293 N 0 0 0
0:00:00.00 524725 N 0 0 0
0:00:00.00 525001 N 0 0 0
0:00:00.00 525276 N 0 0 0
0:00:00.00 525548 N 0 0 0
0:00:00.00 525838 N 0 0 0
0:00:00.00 526138 N 0 0 0
0:00:00.00 526451 N 0 0 0
0:00:00.00 526738 N 0 0 0
0:00:00.00 527009 N 0 0 0
0:00:00.00 527279 N 0 0 0
0:00:00.00 527580 N 0 0 0
0:00:00.00 527866 N 0 0 0
0:00:00.00 528165 N 0 0 0
0:00:00.00 528476 N 0 0 0
0:00:00.00 528788 N 0 0 0
0:00:00.00 529099 N 0 0 0
0:00:00.00 529376 N 0 0 0
0:00:00.00 529664 N 0 0 0
0:00:00.00 529988 N 0 0 0
0:00:00.00 530311 N 0 0 0
0:00:00.00 530613 N 0 0 0
0:00:00.00 530771 N 0 0 0
0:00:00.00 531229 N 0 0 0
0:00:00.00 531506 N 0 0 0
0:00:00.00 531783 N 0 0 0
0:00:00.00 532062 N 0 0 0
0:00:00.00 532366 N 0 0 0
0:00:00.00 532526 N 0 0 0
0:00:00.00 532985 N 0 0 0
0:00:00.00 533272 N 0 0 0
0:00:00.00 533551 N 0 0 0
0:00:00.00 533826 N 0 0 0
0:00:00.00 534103 N 0 0 0
0:00:00.00 534253 N 0 0 0
0:00:00.00 534679 N 0 0 0
0:00:00.00 534983 N 0 0 0
0:00:00.00 535284 N 0 0 0
0:00:00.00 535558 N 0 0 0
0:00:00.00 535822 N 0 0 0
0:00:00.00 536090 N 0 0 0
0:00:00.00 536377 N 0 0 0
0:00:00.00 536668 N 0 0 0
0:00:00.00 536954 N 0 0 0
0:00:00.00 537257 N 0 0 0
0:00:00.00 537554 N 0 0 0
0:00:00.00 537818 N 0 0 0
0:00:00.00 538076 N 0 0 0
0:00:00.00 538344 N 0 0 0
0:00:00.00 538623 N 0 0 0
0:00:00.00 538927 N 0 0 0
0:00:00.00 539233 N 0 0 0
0:00:00.00 539530 N 0 0 0
0:00:00.00 539836 N 0 0 0
0:00:00.00 540124 N 0 0 0
0:00:00.00 540265 N 0 0 0
0:00:00.00 540698 N 0 0 0
0:00:00.00 541006 N 0 0 0
0:00:00.00 541310 N 0 0 0
0:00:00.00 541629 N 0 0 0
0:00:00.00 541922 N 0 0 0
0:00:00.00 542059 N 0 0 0
0:00:00.00 542455 N 0 0 0
0:00:00.00 542718 N 0 0 0
0:00:00.00 542977 N 0 0 0
0:00:00.00 543247 N 0 0 0
0:00:00.00 543523 N 0 0 0
0:00:00.00 543800 N 0 0 0
0:00:00.00 544082 N 0 0 0
0:00:00.00 544333 N 0 0 0
0:00:00.00 544576 N 0 0 0
0:00:00.00 544831 N 0 0 0
0:00:00.00 545108 N 0 0 0
0:00:00.00 545396 N 0 0 0
0:00:00.00 545688 N 0 0 0
0:00:00.00 546001 N 0 0 0
0:00:00.00 546304 N 0 0 0
0:00:00.00 546592 N 0 0 0
0:00:00.00 546734 N 0 0 0
0:00:00.00 547175 N 0 0 0
0:00:00.00 547488 N 0 0 0
0:00:00.00 547812 N 0 0 0
0:00:00.00 547972 N 0 0 0
0:00:00.00 548444 N 0 0 0
0:00:00.00 548723 N 0 0 0
0:00:00.00 549004 N 0 0 0
0:00:00.00 549158 N 0 0 0
0:00:00.00 549594 N 0 0 0
0:00:00.00 549889 N 0 0 0
0:00:00.00 550105 N 0 0 0
0:00:00.00 550517 N 0 0 0
0:00:00.00 550784 N 0 0 0
0:00:00.00 551054 N 0 0 0
0:00:00.00 551340 N 0 0 0
0:00:00.00 551644 N 0 0 0
0:00:00.00 551959 N 0 0 0
0:00:00.00 552112 N 0 0 0
0:00:00.00 552614 N 0 0 0
0:00:00.00 552904 N 0 0 0
0:00:00.00 553185 N 0 0 0
0:00:00.00 553478 N 0 0 0
0:00:00.00 553783 N 0 0 0
0:00:00.00 554119 N 0 0 0
0:00:00.00 554450 N 0 0 0
0:00:00.00 554769 N 0 0 0
0:00:00.00 555089 N 0 0 0
0:00:00.00 555390 N 0 0 0
0:00:00.00 555696 N 0 0 0
0:00:00.00 556022 N 0 0 0
0:00:00.00 556358 N 0 0 0
0:00:00.00 556709 N 0 0 0
0:00:00.00 557006 N 0 0 0
0:00:00.00 557282 N 0 0 0
0:00:00.00 557563 N 0 0 0
0:00:00.00 557842 N 0 0 0
0:00:00.00 558117 N 0 0 0
0:00:00.00 558414 N 0 0 0
0:00:00.00 558571 N 0 0 0
0:00:00.00 559015 N 0 0 0
0:00:00.00 559294 N 0 0 0
0:00:00.00 559550 N 0 0 0
0:00:00.00 559793 N 0 0 0
0:00:00.00 560079 N 0 0 0
0:00:00.00 560360 N 0 0 0
0:00:00.00 560639 N 0 0 0
0:00:00.00 560934 N 0 0 0
0:00:00.00 561222 N 0 0 0
0:00:00.00 561496 N 0 0 0
0:00:00.00 561755 N 0 0 0
0:00:00.00 562010 N 0 0 0
0:00:00.00 562273 N 0 0 0
0:00:00.00 562559 N 0 0 0
0:00:00.00 562741 N 0 0 0
0:00:00.00 563112 N 0 0 0
0:00:00.00 563378 N 0 0 0
0:00:00.00 563636 N 0 0 0
0:00:00.00 563881 N 0 0 0
0:00:00.00 564120 N 0 0 0
0:00:00.00 564295 N 0 0 0
0:00:00.00 564610 N 0 0 0
0:00:00.00 564874 N 0 0 0
0:00:00.00 565151 N 0 0 0
0:00:00.00 565414 N 0 0 0
0:00:00.00 565663 N 0 0 0
0:00:00.00 565826 N 0 0 0
0:00:00.00 566138 N 0 0 0
0:00:00.00 566383 N 0 0 0
0:00:00.00 566644 N 0 0 0
0:00:00.00 566912 N 0 0 0
0:00:00.00 567191 N 0 0 0
0:00:00.00 567383 N 0 0 0
0:00:00.00 567790 N 0 0 0
0:00:00.00 568049 N 0 0 0
0:00:00.00 568222 N 0 0 0
0:00:00.00 568575 N 0 0 0
0:00:00.00 568850 N 0 0 0
0:00:00.00 569036 N 0 0 0
0:00:00.00 569439 N 0 0 0
0:00:00.00 569709 N 0 0 0
0:00:00.00 570001 N 0 0 0
0:00:00.00 570258 N 0 0 0
0:00:00.00 570497 N 0 0 0
0:00:00.00 570744 N 0 0 0
0:00:00.00 571000 N 0 0 0
0:00:00.00 571266 N 0 0 0
0:00:00.00 571459 N 0 0 0
0:00:00.00 571819 N 0 0 0
0:00:00.00 572078 N 0 0 0
0:00:00.00 572224 N 0 0 0
0:00:00.00 572616 N 0 0 0
0:00:00.00 572879 N 0 0 0
0:00:00.00 573149 N 0 0 0
0:00:00.00 573431 N 0 0 0
0:00:00.00 573718 N 0 0 0
0:00:00.00 573934 N 0 0 0
0:00:00.00 574328 N 0 0 0
0:00:00.00 574592 N 0 0 0
0:00:00.00 574870 N 0 0 0
0:00:00.00 575161 N 0 0 0
0:00:00.00 575465 N 0 0 0
0:00:00.00 575775 N 0 0 0
0:00:00.00 576097 N 0 0 0
0:00:00.00 576419 N 0 0 0
0:00:00.00 576733 N 0 0 0
0:00:00.00 577026 N 0 0 0
0:00:00.00 577336 N 0 0 0
0:00:00.00 577674 N 0 0 0
0:00:00.00 578012 N 0 0 0
0:00:00.00 578345 N 0 0 0
0:00:00.00 578574 N 0 0 0
0:00:00.00 579004 N 0 0 0
0:00:00.00 579314 N 0 0 0
0:00:00.00 579514 N 0 0 0
0:00:00.00 579971 N 0 0 0
0:00:00.00 580313 N 0 0 0
0:00:00.00 580640 N 0 0 0
0:00:00.00 580945 N 0 0 0
0:00:00.00 581224 N 0 0 0
0:00:00.00 581506 N 0 0 0
0:00:00.00 581798 N 0 0 0
0:00:00.00 582016 N 0 0 0
0:00:00.00 582415 N 0 0 0
0:00:00.00 582732 N 0 0 0
0:00:00.00 583031 N 0 0 0
0:00:00.00 583171 N 0 0 0
0:00:00.00 583585 N 0 0 0
0:00:00.00 583871 N 0 0 0
0:00:00.00 584174 N 0 0 0
0:00:00.00 584476 N 0 0 0
0:00:00.00 584779 N 0 0 0
0:00:00.00 585094 N 0 0 0
0:00:00.00 585394 N 0 0 0
0:00:00.00 585679 N 0 0 0
0:00:00.00 585889 N 0 0 0
0:00:00.00 586296 N 0 0 0
0:00:00.00 586615 N 0 0 0
0:00:00.00 586942 N 0 0 0
0:00:00.00 587252 N 0 0 0
0:00:00.00 587549 N 0 0 0
0:00:00.00 587835 N 0 0 0
0:00:00.00 588128 N 0 0 0
0:00:00.00 588278 N 0 0 0
0:00:00.00 588751 N 0 0 0
0:00:00.00 589075 N 0 0 0
0:00:00.00 589390 N 0 0 0
0:00:00.00 589671 N 0 0 0
0:00:00.00 589955 N 0 0 0
0:00:00.00 590249 N 0 0 0
0:00:00.00 590555 N 0 0 0
0:00:00.00 590864 N 0 0 0
0:00:00.00 591179 N 0 0 0
0:00:00.00 591349 N 0 0 0
0:00:00.00 591815 N 0 0 0
0:00:00.00 592081 N 0 0 0
0:00:00.00 592382 N 0 0 0
0:00:00.00 592688 N 0 0 0
0:00:00.00 592994 N 0 0 0
0:00:00.00 593293 N 0 0 0
0:00:00.00 593600 N 0 0 0
0:00:00.00 593888 N 0 0 0
0:00:00.00 594173 N 0 0 0
0:00:00.00 594452 N 0 0 0
0:00:00.00 594734 N 0 0 0
0:00:00.00 595060 N 0 0 0
0:00:00.00 595386 N 0 0 0
0:00:00.00 595699 N 0 0 0
0:00:00.00 596003 N 0 0 0
0:00:00.00 596288 N 0 0 0
0:00:00.00 596579 N 0 0 0
0:00:00.00 596869 N 0 0 0
0:00:00.00 597170 N 0 0 0
0:00:00.00 597488 N 0 0 0
0:00:00.00 597805 N 0 0 0
0:00:00.00 598099 N 0 0 0
0:00:00.00 598370 N 0 0 0
0:00:00.00 598646 N 0 0 0
0:00:00.00 598937 N 0 0 0
0:00:00.00 599233 N 0 0 0
0:00:00.00 599535 N 0 0 0
0:00:00.00 599852 N 0 0 0
0:00:00.00 600176 N 0 0 0
0:00:00.00 600458 N 0 0 0
0:00:00.00 600728 N 0 0 0
0:00:00.00 601007 N 0 0 0
0:00:00.00 601304 N 0 0 0
0:00:00.00 601618 N 0 0 0
0:00:00.00 601915 N 0 0 0
0:00:00.00 602206 N 0 0 0
0:00:00.00 602496 N 0 0 0
0:00:00.00 602764 N 0 0 0
0:00:00.00 603031 N 0 0 0
0:00:00.00 603320 N 0 0 0
0:00:00.00 603493 N 0 0 0
0:00:00.00 603673 N 0 0 0
0:00:00.00 604183 N 0 0 0
0:00:00.00 604480 N 0 0 0
0:00:00.00 604751 N 0 0 0
0:00:00.00 605021 N 0 0 0
0:00:00.00 605282 N 0 0 0
0:00:00.00 605543 N 0 0 0
0:00:00.00 605813 N 0 0 0
0:00:00.00 606091 N 0 0 0
0:00:00.00 606379 N 0 0 0
0:00:00.00 606661 N 0 0 0
0:00:00.00 606917 N 0 0 0
0:00:00.00 607156 N 0 0 0
0:00:00.00 607417 N 0 0 0
0:00:00.00 607676 N 0 0 0
0:00:00.00 607939 N 0 0 0
0:00:00.00 608200 N 0 0 0
0:00:00.00 608463 N 0 0 0
0:00:00.00 608722 N 0 0 0
0:00:00.00 608978 N 0 0 0
0:00:00.00 609221 N 0 0 0
0:00:00.00 609388 N 0 0 0
0:00:00.00 609705 N 0 0 0
0:00:00.00 609977 N 0 0 0
0:00:00.00 610258 N 0 0 0
0:00:00.00 610526 N 0 0 0
0:00:00.00 610799 N 0 0 0
0:00:00.00 611075 N 0 0 0
0:00:00.00 611327 N 0 0 0
0:00:00.00 611588 N 0 0 0
0:00:00.00 611845 N 0 0 0
0:00:00.00 612106 N 0 0 0
0:00:00.00 612389 N 0 0 0
0:00:00.00 612682 N 0 0 0
0:00:00.00 612965 N 0 0 0
0:00:00.00 613222 N 0 0 0
0:00:00.00 613472 N 0 0 0
0:00:00.00 613714 N 0 0 0
0:00:00.00 613966 N 0 0 0
0:00:00.00 614223 N 0 0 0
0:00:00.00 614405 N 0 0 0
0:00:00.00 614741 N 0 0 0
0:00:00.00 615011 N 0 0 0
0:00:00.00 615274 N 0 0 0
0:00:00.00 615517 N 0 0 0
0:00:00.00 615746 N 0 0 0
0:00:00.00 615985 N 0 0 0
0:00:00.00 616151 N 0 0 0
0:00:00.00 616502 N 0 0 0
0:00:00.00 616775 N 0 0 0
0:00:00.00 617054 N 0 0 0
0:00:00.00 617326 N 0 0 0
0:00:00.00 617477 N 0 0 0
0:00:00.00 617852 N 0 0 0
0:00:00.00 618089 N 0 0 0
0:00:00.00 618338 N 0 0 0
0:00:00.00 618599 N 0 0 0
0:00:00.00 618874 N 0 0 0
0:00:00.00 619060 N 0 0 0
0:00:00.00 619475 N 0 0 0
0:00:00.00 619749 N 0 0 0
0:00:00.00 620032 N 0 0 0
0:00:00.00 620312 N 0 0 0
0:00:00.00 620599 N 0 0 0
0:00:00.00 620773 N 0 0 0
0:00:00.00 621214 N 0 0 0
0:00:00.00 621527 N 0 0 0
0:00:00.00 621823 N 0 0 0
0:00:00.00 622096 N 0 0 0
0:00:00.00 622354 N 0 0 0
0:00:00.00 622530 N 0 0 0
0:00:00.00 622928 N 0 0 0
0:00:00.00 623216 N 0 0 0
0:00:00.00 623524 N 0 0 0
0:00:00.00 623821 N 0 0 0
0:00:00.00 624103 N 0 0 0
0:00:00.00 624370 N 0 0 0
0:00:00.00 624532 N 0 0 0
0:00:00.00 624924 N 0 0 0
0:00:00.00 625219 N 0 0 0
0:00:00.00 625529 N 0 0 0
0:00:00.00 625813 N 0 0 0
0:00:00.00 626004 N 0 0 0
0:00:00.00 626384 N 0 0 0
0:00:00.00 626656 N 0 0 0
0:00:00.00 626936 N 0 0 0
0:00:00.00 627075 N 0 0 0
0:00:00.00 627520 N 0 0 0
0:00:00.00 627815 N 0 0 0
0:00:00.00 628108 N 0 0 0
0:00:00.00 628384 N 0 0 0
0:00:00.00 628645 N 0 0 0
0:00:00.00 628906 N 0 0 0
0:00:00.00 629185 N 0 0 0
0:00:00.00 629456 N 0 0 0
0:00:00.00 629737 N 0 0 0
0:00:00.00 630034 N 0 0 0
0:00:00.00 630329 N 0 0 0
0:00:00.00 630596 N 0 0 0
0:00:00.00 630860 N 0 0 0
0:00:00.00 631121 N 0 0 0
0:00:00.00 631404 N 0 0 0
0:00:00.00 631705 N 0 0 0
0:00:00.00 632005 N 0 0 0
0:00:00.00 632306 N 0 0 0
0:00:00.00 632619 N 0 0 0
0:00:00.00 632893 N 0 0 0
0:00:00.00 633155 N 0 0 0
0:00:00.00 633424 N 0 0 0
0:00:00.00 633704 N 0 0 0
0:00:00.00 634000 N 0 0 0
0:00:00.00 634282 N 0 0 0
0:00:00.00 634563 N 0 0 0
0:00:00.00 634846 N 0 0 0
0:00:00.00 635112 N 0 0 0
0:00:00.00 635375 N 0 0 0
0:00:00.00 635645 N 0 0 0
0:00:00.00 635929 N 0 0 0
0:00:00.00 636223 N 0 0 0
0:00:00.00 636530 N 0 0 0
0:00:00.00 636818 N 0 0 0
0:00:00.00 637087 N 0 0 0
0:00:00.00 637355 N 0 0 0
0:00:00.00 637609 N 0 0 0
0:00:00.00 637873 N 0 0 0
0:00:00.00 638053 N 0 0 0
0:00:00.00 638424 N 0 0 0
0:00:00.00 638705 N 0 0 0
0:00:00.00 639004 N 0 0 0
0:00:00.00 639266 N 0 0 0
0:00:00.00 639509 N 0 0 0
0:00:00.00 639673 N 0 0 0
0:00:00.00 640044 N 0 0 0
0:00:00.00 640318 N 0 0 0
0:00:00.00 640589 N 0 0 0
0:00:00.00 640872 N 0 0 0
0:00:00.00 641151 N 0 0 0
0:00:00.00 641428 N 0 0 0
0:00:00.00 641569 N 0 0 0
0:00:00.00 641954 N 0 0 0
0:00:00.00 642217 N 0 0 0
0:00:00.00 642521 N 0 0 0
0:00:00.00 642814 N 0 0 0
0:00:00.00 643108 N 0 0 0
0:00:00.00 643284 N 0 0 0
0:00:00.00 643675 N 0 0 0
0:00:00.00 643945 N 0 0 0
0:00:00.00 644216 N 0 0 0
0:00:00.00 644488 N 0 0 0
0:00:00.00 644778 N 0 0 0
0:00:00.00 645080 N 0 0 0
0:00:00.00 645268 N 0 0 0
0:00:00.00 645644 N 0 0 0
0:00:00.00 645901 N 0 0 0
0:00:00.00 646155 N 0 0 0
0:00:00.00 646423 N 0 0 0
0:00:00.00 646699 N 0 0 0
0:00:00.00 646888 N 0 0 0
0:00:00.00 647262 N 0 0 0
0:00:00.00 647559 N 0 0 0
0:00:00.00 647743 N 0 0 0
0:00:00.00 648079 N 0 0 0
0:00:00.00 648324 N 0 0 0
0:00:00.00 648499 N 0 0 0
0:00:00.00 648835 N 0 0 0
0:00:00.00 649114 N 0 0 0
0:00:00.00 649382 N 0 0 0
0:00:00.00 649629 N 0 0 0
0:00:00.00 649894 N 0 0 0
