0:00:00.00 13 N 0 0 0
0:00:00.00 85 N 0 0 0
0:00:00.00 157 N 0 0 0
0:00:00.00 313 N 0 0 0
0:00:00.00 504 N 0 0 0
0:00:00.00 706 N 0 0 0
0:00:00.00 902 N 0 0 0
0:00:00.00 1098 N 0 0 0
0:00:00.00 1294 N 0 0 0
0:00:00.00 1481 N 0 0 0
0:00:00.00 1669 N 0 0 0
0:00:00.00 1856 N 0 0 0
0:00:00.00 2043 N 0 0 0
0:00:00.00 2221 N 0 0 0
0:00:00.00 2407 N 0 0 0
0:00:00.00 2594 N 0 0 0
0:00:00.00 2786 N 0 0 0
0:00:00.00 2992 N 0 0 0
0:00:00.00 3200 N 0 0 0
0:00:00.00 3398 N 0 0 0
0:00:00.00 3605 N 0 0 0
0:00:00.00 3789 N 0 0 0
0:00:00.00 3973 N 0 0 0
0:00:00.00 4154 N 0 0 0
0:00:00.00 4340 N 0 0 0
0:00:00.00 4522 N 0 0 0
0:00:00.00 4711 N 0 0 0
0:00:00.00 4910 N 0 0 0
0:00:00.00 5112 N 0 0 0
0:00:00.00 5310 N 0 0 0
0:00:00.00 5504 N 0 0 0
0:00:00.00 5690 N 0 0 0
0:00:00.00 5877 N 0 0 0
0:00:00.00 6070 N 0 0 0
0:00:00.00 6259 N 0 0 0
0:00:00.00 6431 N 0 0 0
0:00:00.00 6631 N 0 0 0
0:00:00.00 6818 N 0 0 0
0:00:00.00 7013 N 0 0 0
0:00:00.00 7216 N 0 0 0
0:00:00.00 7414 N 0 0 0
0:00:00.00 7618 N 0 0 0
0:00:00.00 7817 N 0 0 0
0:00:00.00 8019 N 0 0 0
0:00:00.00 8204 N 0 0 0
0:00:00.00 8390 N 0 0 0
0:00:00.00 8570 N 0 0 0
0:00:00.00 8753 N 0 0 0
0:00:00.00 8946 N 0 0 0
0:00:00.00 9108 N 0 0 0
0:00:00.00 9218 N 0 0 0
0:00:00.00 9549 N 0 0 0
0:00:00.00 9745 N 0 0 0
0:00:00.00 9945 N 0 0 0
0:00:00.00 10136 N 0 0 0
0:00:00.00 10323 N 0 0 0
0:00:00.00 10492 N 0 0 0
0:00:00.00 10624 N 0 0 0
0:00:00.00 10876 N 0 0 0
0:00:00.00 11063 N 0 0 0
0:00:00.00 11254 N 0 0 0
0:00:00.00 11448 N 0 0 0
0:00:00.00 11644 N 0 0 0
0:00:00.00 11842 N 0 0 0
0:00:00.00 12051 N 0 0 0
0:00:00.00 12249 N 0 0 0
0:00:00.00 12438 N 0 0 0
0:00:00.00 12620 N 0 0 0
0:00:00.00 12798 N 0 0 0
0:00:00.00 12976 N 0 0 0
0:00:00.00 13162 N 0 0 0
0:00:00.00 13340 N 0 0 0
0:00:00.00 13534 N 0 0 0
0:00:00.00 13732 N 0 0 0
0:00:00.00 13939 N 0 0 0
0:00:00.00 14139 N 0 0 0
0:00:00.00 14333 N 0 0 0
0:00:00.00 14517 N 0 0 0
0:00:00.00 14701 N 0 0 0
0:00:00.00 14886 N 0 0 0
0:00:00.00 15023 N 0 0 0
0:00:00.00 15262 N 0 0 0
0:00:00.00 15457 N 0 0 0
0:00:00.00 15649 N 0 0 0
0:00:00.00 15847 N 0 0 0
0:00:00.00 16043 N 0 0 0
0:00:00.00 16245 N 0 0 0
0:00:00.00 16438 N 0 0 0
0:00:00.00 16634 N 0 0 0
0:00:00.00 16812 N 0 0 0
0:00:00.00 17005 N 0 0 0
0:00:00.00 17181 N 0 0 0
0:00:00.00 17361 N 0 0 0
0:00:00.00 17543 N 0 0 0
0:00:00.00 17730 N 0 0 0
0:00:00.00 17928 N 0 0 0
0:00:00.00 18131 N 0 0 0
0:00:00.00 18329 N 0 0 0
0:00:00.00 18470 N 0 0 0
0:00:00.00 18716 N 0 0 0
0:00:00.00 18900 N 0 0 0
0:00:00.00 19085 N 0 0 0
0:00:00.00 19264 N 0 0 0
0:00:00.00 19444 N 0 0 0
0:00:00.00 19557 N 0 0 0
0:00:00.00 19816 N 0 0 0
0:00:00.00 20011 N 0 0 0
0:00:00.00 20210 N 0 0 0
0:00:00.00 20403 N 0 0 0
0:00:00.00 20596 N 0 0 0
0:00:00.00 20795 N 0 0 0
0:00:00.00 20997 N 0 0 0
0:00:00.00 21181 N 0 0 0
0:00:00.00 21361 N 0 0 0
0:00:00.00 21537 N 0 0 0
0:00:00.00 21719 N 0 0 0
0:00:00.00 21902 N 0 0 0
0:00:00.00 22099 N 0 0 0
0:00:00.00 22284 N 0 0 0
0:00:00.00 22487 N 0 0 0
0:00:00.00 22689 N 0 0 0
0:00:00.00 22896 N 0 0 0
0:00:00.00 23087 N 0 0 0
0:00:00.00 23279 N 0 0 0
0:00:00.00 23459 N 0 0 0
0:00:00.00 23639 N 0 0 0
0:00:00.00 23823 N 0 0 0
0:00:00.00 24016 N 0 0 0
0:00:00.00 24206 N 0 0 0
0:00:00.00 24406 N 0 0 0
0:00:00.00 24602 N 0 0 0
0:00:00.00 24802 N 0 0 0
0:00:00.00 25009 N 0 0 0
0:00:00.00 25204 N 0 0 0
0:00:00.00 25394 N 0 0 0
0:00:00.00 25576 N 0 0 0
0:00:00.00 25760 N 0 0 0
0:00:00.00 25940 N 0 0 0
0:00:00.00 26078 N 0 0 0
0:00:00.00 26309 N 0 0 0
0:00:00.00 26501 N 0 0 0
0:00:00.00 26707 N 0 0 0
0:00:00.00 26923 N 0 0 0
0:00:00.00 27126 N 0 0 0
0:00:00.00 27329 N 0 0 0
0:00:00.00 27513 N 0 0 0
0:00:00.00 27659 N 0 0 0
0:00:00.00 27770 N 0 0 0
0:00:00.00 28057 N 0 0 0
0:00:00.00 28244 N 0 0 0
0:00:00.00 28429 N 0 0 0
0:00:00.00 28629 N 0 0 0
0:00:00.00 28823 N 0 0 0
0:00:00.00 29021 N 0 0 0
0:00:00.00 29212 N 0 0 0
0:00:00.00 29399 N 0 0 0
0:00:00.00 29590 N 0 0 0
0:00:00.00 29779 N 0 0 0
0:00:00.00 29957 N 0 0 0
0:00:00.00 30139 N 0 0 0
0:00:00.00 30314 N 0 0 0
0:00:00.00 30492 N 0 0 0
0:00:00.00 30676 N 0 0 0
0:00:00.00 30830 N 0 0 0
0:00:00.00 31066 N 0 0 0
0:00:00.00 31268 N 0 0 0
0:00:00.00 31469 N 0 0 0
0:00:00.00 31671 N 0 0 0
0:00:00.00 31858 N 0 0 0
0:00:00.00 32040 N 0 0 0
0:00:00.00 32218 N 0 0 0
0:00:00.00 32396 N 0 0 0
0:00:00.00 32585 N 0 0 0
0:00:00.00 32783 N 0 0 0
0:00:00.00 32980 N 0 0 0
0:00:00.00 33181 N 0 0 0
0:00:00.00 33376 N 0 0 0
0:00:00.00 33574 N 0 0 0
0:00:00.00 33773 N 0 0 0
0:00:00.00 33961 N 0 0 0
0:00:00.00 34146 N 0 0 0
0:00:00.00 34330 N 0 0 0
0:00:00.00 34517 N 0 0 0
0:00:00.00 34704 N 0 0 0
0:00:00.00 34852 N 0 0 0
0:00:00.00 35084 N 0 0 0
0:00:00.00 35280 N 0 0 0
0:00:00.00 35487 N 0 0 0
0:00:00.00 35705 N 0 0 0
0:00:00.00 35906 N 0 0 0
0:00:00.00 36059 N 0 0 0
0:00:00.00 36283 N 0 0 0
0:00:00.00 36464 N 0 0 0
0:00:00.00 36646 N 0 0 0
0:00:00.00 36828 N 0 0 0
0:00:00.00 37019 N 0 0 0
0:00:00.00 37210 N 0 0 0
0:00:00.00 37415 N 0 0 0
0:00:00.00 37611 N 0 0 0
0:00:00.00 37813 N 0 0 0
0:00:00.00 38007 N 0 0 0
0:00:00.00 38196 N 0 0 0
0:00:00.00 38362 N 0 0 0
0:00:00.00 38570 N 0 0 0
0:00:00.00 38745 N 0 0 0
0:00:00.00 38930 N 0 0 0
0:00:00.00 39110 N 0 0 0
0:00:00.00 39296 N 0 0 0
0:00:00.00 39479 N 0 0 0
0:00:00.00 39679 N 0 0 0
0:00:00.00 39872 N 0 0 0
0:00:00.00 40075 N 0 0 0
0:00:00.00 40275 N 0 0 0
0:00:00.00 40466 N 0 0 0
0:00:00.00 40648 N 0 0 0
0:00:00.00 40828 N 0 0 0
0:00:00.00 41008 N 0 0 0
0:00:00.00 41191 N 0 0 0
0:00:00.00 41384 N 0 0 0
0:00:00.00 41580 N 0 0 0
0:00:00.00 41778 N 0 0 0
0:00:00.00 41980 N 0 0 0
0:00:00.00 42174 N 0 0 0
0:00:00.00 42370 N 0 0 0
0:00:00.00 42563 N 0 0 0
0:00:00.00 42743 N 0 0 0
0:00:00.00 42932 N 0 0 0
0:00:00.00 43115 N 0 0 0
0:00:00.00 43308 N 0 0 0
0:00:00.00 43493 N 0 0 0
0:00:00.00 43688 N 0 0 0
0:00:00.00 43879 N 0 0 0
0:00:00.00 44077 N 0 0 0
0:00:00.00 44282 N 0 0 0
0:00:00.00 44492 N 0 0 0
0:00:00.00 44687 N 0 0 0
0:00:00.00 44876 N 0 0 0
0:00:00.00 45054 N 0 0 0
0:00:00.00 45234 N 0 0 0
0:00:00.00 45419 N 0 0 0
0:00:00.00 45601 N 0 0 0
0:00:00.00 45792 N 0 0 0
0:00:00.00 45986 N 0 0 0
0:00:00.00 46166 N 0 0 0
0:00:00.00 46393 N 0 0 0
0:00:00.00 46593 N 0 0 0
0:00:00.00 46786 N 0 0 0
0:00:00.00 46969 N 0 0 0
0:00:00.00 47151 N 0 0 0
0:00:00.00 47336 N 0 0 0
0:00:00.00 47518 N 0 0 0
0:00:00.00 47707 N 0 0 0
0:00:00.00 47893 N 0 0 0
0:00:00.00 48082 N 0 0 0
0:00:00.00 48271 N 0 0 0
0:00:00.00 48474 N 0 0 0
0:00:00.00 48665 N 0 0 0
0:00:00.00 48863 N 0 0 0
0:00:00.00 49050 N 0 0 0
0:00:00.00 49237 N 0 0 0
0:00:00.00 49417 N 0 0 0
0:00:00.00 49599 N 0 0 0
0:00:00.00 49774 N 0 0 0
0:00:00.00 49954 N 0 0 0
0:00:00.00 50146 N 0 0 0
0:00:00.00 50350 N 0 0 0
0:00:00.00 50549 N 0 0 0
0:00:00.00 50753 N 0 0 0
0:00:00.00 50949 N 0 0 0
0:00:00.00 51140 N 0 0 0
0:00:00.00 51331 N 0 0 0
0:00:00.00 51512 N 0 0 0
0:00:00.00 51691 N 0 0 0
0:00:00.00 51876 N 0 0 0
0:00:00.00 52067 N 0 0 0
0:00:00.00 52263 N 0 0 0
0:00:00.00 52457 N 0 0 0
0:00:00.00 52659 N 0 0 0
0:00:00.00 52855 N 0 0 0
0:00:00.00 53059 N 0 0 0
0:00:00.00 53260 N 0 0 0
0:00:00.00 53455 N 0 0 0
0:00:00.00 53638 N 0 0 0
0:00:00.00 53820 N 0 0 0
0:00:00.00 53995 N 0 0 0
0:00:00.00 54176 N 0 0 0
0:00:00.00 54365 N 0 0 0
0:00:00.00 54560 N 0 0 0
0:00:00.00 54758 N 0 0 0
0:00:00.00 54954 N 0 0 0
0:00:00.00 55161 N 0 0 0
0:00:00.00 55361 N 0 0 0
0:00:00.00 55553 N 0 0 0
0:00:00.00 55732 N 0 0 0
0:00:00.00 55908 N 0 0 0
0:00:00.00 56090 N 0 0 0
0:00:00.00 56281 N 0 0 0
0:00:00.00 56468 N 0 0 0
0:00:00.00 56660 N 0 0 0
0:00:00.00 56851 N 0 0 0
0:00:00.00 57047 N 0 0 0
0:00:00.00 57240 N 0 0 0
0:00:00.00 57420 N 0 0 0
0:00:00.00 57625 N 0 0 0
0:00:00.00 57812 N 0 0 0
0:00:00.00 57992 N 0 0 0
0:00:00.00 58171 N 0 0 0
0:00:00.00 58343 N 0 0 0
0:00:00.00 58505 N 0 0 0
0:00:00.00 58711 N 0 0 0
0:00:00.00 58901 N 0 0 0
0:00:00.00 59049 N 0 0 0
0:00:00.00 59305 N 0 0 0
0:00:00.00 59501 N 0 0 0
0:00:00.00 59701 N 0 0 0
0:00:00.00 59877 N 0 0 0
0:00:00.00 60059 N 0 0 0
0:00:00.00 60201 N 0 0 0
0:00:00.00 60421 N 0 0 0
0:00:00.00 60595 N 0 0 0
0:00:00.00 60781 N 0 0 0
0:00:00.00 60970 N 0 0 0
0:00:00.00 61169 N 0 0 0
0:00:00.00 61367 N 0 0 0
0:00:00.00 61567 N 0 0 0
0:00:00.00 61754 N 0 0 0
0:00:00.00 61947 N 0 0 0
0:00:00.00 62136 N 0 0 0
0:00:00.00 62318 N 0 0 0
0:00:00.00 62503 N 0 0 0
0:00:00.00 62685 N 0 0 0
0:00:00.00 62867 N 0 0 0
0:00:00.00 63058 N 0 0 0
0:00:00.00 63259 N 0 0 0
0:00:00.00 63448 N 0 0 0
0:00:00.00 63648 N 0 0 0
0:00:00.00 63851 N 0 0 0
0:00:00.00 64060 N 0 0 0
0:00:00.00 64242 N 0 0 0
0:00:00.00 64422 N 0 0 0
0:00:00.00 64559 N 0 0 0
0:00:00.00 64789 N 0 0 0
0:00:00.00 64975 N 0 0 0
0:00:00.00 65167 N 0 0 0
0:00:00.00 65291 N 0 0 0
0:00:00.00 65567 N 0 0 0
0:00:00.00 65763 N 0 0 0
0:00:00.00 65963 N 0 0 0
0:00:00.00 66155 N 0 0 0
0:00:00.00 66348 N 0 0 0
0:00:00.00 66526 N 0 0 0
0:00:00.00 66703 N 0 0 0
0:00:00.00 66881 N 0 0 0
0:00:00.00 67063 N 0 0 0
0:00:00.00 67243 N 0 0 0
0:00:00.00 67437 N 0 0 0
0:00:00.00 67626 N 0 0 0
0:00:00.00 67822 N 0 0 0
0:00:00.00 68031 N 0 0 0
0:00:00.00 68200 N 0 0 0
0:00:00.00 68272 N 0 0 0
0:00:00.00 68344 N 0 0 0
0:00:00.00 68438 N 0 0 0
0:00:00.00 68510 N 0 0 0
0:00:00.00 68621 N 0 0 0
0:00:00.00 68798 N 0 0 0
0:00:00.00 68971 N 0 0 0
0:00:00.00 69149 N 0 0 0
0:00:00.00 69331 N 0 0 0
0:00:00.00 69523 N 0 0 0
0:00:00.00 69714 N 0 0 0
0:00:00.00 69917 N 0 0 0
0:00:00.00 70114 N 0 0 0
0:00:00.00 70315 N 0 0 0
0:00:00.00 70461 N 0 0 0
0:00:00.00 70533 N 0 0 0
0:00:00.00 70688 N 0 0 0
0:00:00.00 70871 N 0 0 0
0:00:00.00 71053 N 0 0 0
0:00:00.00 71231 N 0 0 0
0:00:00.00 71422 N 0 0 0
0:00:00.00 71546 N 0 0 0
0:00:00.00 71685 N 0 0 0
0:00:00.00 71993 N 0 0 0
0:00:00.00 72198 N 0 0 0
0:00:00.00 72392 N 0 0 0
0:00:00.00 72590 N 0 0 0
0:00:00.00 72785 N 0 0 0
0:00:00.00 72934 N 0 0 0
0:00:00.00 73145 N 0 0 0
0:00:00.00 73319 N 0 0 0
0:00:00.00 73496 N 0 0 0
0:00:00.00 73681 N 0 0 0
0:00:00.00 73874 N 0 0 0
0:00:00.00 74070 N 0 0 0
0:00:00.00 74261 N 0 0 0
0:00:00.00 74464 N 0 0 0
0:00:00.00 74651 N 0 0 0
0:00:00.00 74844 N 0 0 0
0:00:00.00 75029 N 0 0 0
0:00:00.00 75211 N 0 0 0
0:00:00.00 75395 N 0 0 0
0:00:00.00 75571 N 0 0 0
0:00:00.00 75764 N 0 0 0
0:00:00.00 75946 N 0 0 0
0:00:00.00 76140 N 0 0 0
0:00:00.00 76327 N 0 0 0
0:00:00.00 76523 N 0 0 0
0:00:00.00 76723 N 0 0 0
0:00:00.00 76923 N 0 0 0
0:00:00.00 77110 N 0 0 0
0:00:00.00 77297 N 0 0 0
0:00:00.00 77472 N 0 0 0
0:00:00.00 77650 N 0 0 0
0:00:00.00 77825 N 0 0 0
0:00:00.00 78010 N 0 0 0
0:00:00.00 78194 N 0 0 0
0:00:00.00 78392 N 0 0 0
0:00:00.00 78592 N 0 0 0
0:00:00.00 78791 N 0 0 0
0:00:00.00 78991 N 0 0 0
0:00:00.00 79184 N 0 0 0
0:00:00.00 79364 N 0 0 0
0:00:00.00 79546 N 0 0 0
0:00:00.00 79731 N 0 0 0
0:00:00.00 79915 N 0 0 0
0:00:00.00 80107 N 0 0 0
0:00:00.00 80296 N 0 0 0
0:00:00.00 80483 N 0 0 0
0:00:00.00 80676 N 0 0 0
0:00:00.00 80874 N 0 0 0
0:00:00.00 81063 N 0 0 0
0:00:00.00 81263 N 0 0 0
0:00:00.00 81454 N 0 0 0
0:00:00.00 81641 N 0 0 0
0:00:00.00 81817 N 0 0 0
0:00:00.00 81999 N 0 0 0
0:00:00.00 82181 N 0 0 0
0:00:00.00 82350 N 0 0 0
0:00:00.00 82555 N 0 0 0
0:00:00.00 82762 N 0 0 0
0:00:00.00 82962 N 0 0 0
0:00:00.00 83169 N 0 0 0
0:00:00.00 83362 N 0 0 0
0:00:00.00 83552 N 0 0 0
0:00:00.00 83732 N 0 0 0
0:00:00.00 83911 N 0 0 0
0:00:00.00 84087 N 0 0 0
0:00:00.00 84254 N 0 0 0
0:00:00.00 84458 N 0 0 0
0:00:00.00 84650 N 0 0 0
0:00:00.00 84847 N 0 0 0
0:00:00.00 85046 N 0 0 0
0:00:00.00 85246 N 0 0 0
0:00:00.00 85439 N 0 0 0
0:00:00.00 85637 N 0 0 0
0:00:00.00 85826 N 0 0 0
0:00:00.00 86006 N 0 0 0
0:00:00.00 86184 N 0 0 0
0:00:00.00 86360 N 0 0 0
0:00:00.00 86542 N 0 0 0
0:00:00.00 86724 N 0 0 0
0:00:00.00 86904 N 0 0 0
0:00:00.00 87093 N 0 0 0
0:00:00.00 87291 N 0 0 0
0:00:00.00 87493 N 0 0 0
0:00:00.00 87691 N 0 0 0
0:00:00.00 87885 N 0 0 0
0:00:00.00 88063 N 0 0 0
0:00:00.00 88241 N 0 0 0
0:00:00.00 88416 N 0 0 0
0:00:00.00 88600 N 0 0 0
0:00:00.00 88787 N 0 0 0
0:00:00.00 88978 N 0 0 0
0:00:00.00 89174 N 0 0 0
0:00:00.00 89365 N 0 0 0
0:00:00.00 89563 N 0 0 0
0:00:00.00 89762 N 0 0 0
0:00:00.00 89951 N 0 0 0
0:00:00.00 90133 N 0 0 0
0:00:00.00 90311 N 0 0 0
0:00:00.00 90495 N 0 0 0
0:00:00.00 90670 N 0 0 0
0:00:00.00 90853 N 0 0 0
0:00:00.00 91035 N 0 0 0
0:00:00.00 91228 N 0 0 0
0:00:00.00 91427 N 0 0 0
0:00:00.00 91642 N 0 0 0
0:00:00.00 91843 N 0 0 0
0:00:00.00 92038 N 0 0 0
0:00:00.00 92223 N 0 0 0
0:00:00.00 92405 N 0 0 0
0:00:00.00 92588 N 0 0 0
0:00:00.00 92772 N 0 0 0
0:00:00.00 92945 N 0 0 0
0:00:00.00 93130 N 0 0 0
0:00:00.00 93323 N 0 0 0
0:00:00.00 93526 N 0 0 0
0:00:00.00 93710 N 0 0 0
0:00:00.00 93926 N 0 0 0
0:00:00.00 94120 N 0 0 0
0:00:00.00 94311 N 0 0 0
0:00:00.00 94502 N 0 0 0
0:00:00.00 94694 N 0 0 0
0:00:00.00 94874 N 0 0 0
0:00:00.00 95062 N 0 0 0
0:00:00.00 95240 N 0 0 0
0:00:00.00 95431 N 0 0 0
0:00:00.00 95620 N 0 0 0
0:00:00.00 95825 N 0 0 0
0:00:00.00 96025 N 0 0 0
0:00:00.00 96230 N 0 0 0
0:00:00.00 96433 N 0 0 0
0:00:00.00 96626 N 0 0 0
0:00:00.00 96811 N 0 0 0
0:00:00.00 96995 N 0 0 0
0:00:00.00 97177 N 0 0 0
0:00:00.00 97364 N 0 0 0
0:00:00.00 97560 N 0 0 0
0:00:00.00 97760 N 0 0 0
0:00:00.00 97961 N 0 0 0
0:00:00.00 98165 N 0 0 0
0:00:00.00 98363 N 0 0 0
0:00:00.00 98552 N 0 0 0
0:00:00.00 98743 N 0 0 0
0:00:00.00 98926 N 0 0 0
0:00:00.00 99113 N 0 0 0
0:00:00.00 99301 N 0 0 0
0:00:00.00 99499 N 0 0 0
0:00:00.00 99680 N 0 0 0
0:00:00.00 99880 N 0 0 0
0:00:00.00 100071 N 0 0 0
0:00:00.00 100273 N 0 0 0
0:00:00.00 100478 N 0 0 0
0:00:00.00 100687 N 0 0 0
0:00:00.00 100879 N 0 0 0
0:00:00.00 101068 N 0 0 0
0:00:00.00 101250 N 0 0 0
0:00:00.00 101434 N 0 0 0
0:00:00.00 101621 N 0 0 0
0:00:00.00 101808 N 0 0 0
0:00:00.00 102002 N 0 0 0
0:00:00.00 102202 N 0 0 0
0:00:00.00 102409 N 0 0 0
0:00:00.00 102605 N 0 0 0
0:00:00.00 102748 N 0 0 0
0:00:00.00 102985 N 0 0 0
0:00:00.00 103178 N 0 0 0
0:00:00.00 103367 N 0 0 0
0:00:00.00 103561 N 0 0 0
0:00:00.00 103747 N 0 0 0
0:00:00.00 103941 N 0 0 0
0:00:00.00 104132 N 0 0 0
0:00:00.00 104330 N 0 0 0
0:00:00.00 104528 N 0 0 0
0:00:00.00 104735 N 0 0 0
0:00:00.00 104927 N 0 0 0
0:00:00.00 105129 N 0 0 0
0:00:00.00 105316 N 0 0 0
0:00:00.00 105503 N 0 0 0
0:00:00.00 105676 N 0 0 0
0:00:00.00 105851 N 0 0 0
0:00:00.00 106027 N 0 0 0
0:00:00.00 106213 N 0 0 0
0:00:00.00 106414 N 0 0 0
0:00:00.00 106627 N 0 0 0
0:00:00.00 106837 N 0 0 0
0:00:00.00 107050 N 0 0 0
0:00:00.00 107240 N 0 0 0
0:00:00.00 107428 N 0 0 0
0:00:00.00 107613 N 0 0 0
0:00:00.00 107789 N 0 0 0
0:00:00.00 107975 N 0 0 0
0:00:00.00 108164 N 0 0 0
0:00:00.00 108365 N 0 0 0
0:00:00.00 108563 N 0 0 0
0:00:00.00 108767 N 0 0 0
0:00:00.00 108963 N 0 0 0
0:00:00.00 109163 N 0 0 0
0:00:00.00 109366 N 0 0 0
0:00:00.00 109564 N 0 0 0
0:00:00.00 109744 N 0 0 0
0:00:00.00 109926 N 0 0 0
0:00:00.00 110065 N 0 0 0
0:00:00.00 110194 N 0 0 0
0:00:00.00 110464 N 0 0 0
0:00:00.00 110662 N 0 0 0
0:00:00.00 110853 N 0 0 0
0:00:00.00 111053 N 0 0 0
0:00:00.00 111254 N 0 0 0
0:00:00.00 111456 N 0 0 0
0:00:00.00 111643 N 0 0 0
0:00:00.00 111823 N 0 0 0
0:00:00.00 112001 N 0 0 0
0:00:00.00 112181 N 0 0 0
0:00:00.00 112360 N 0 0 0
0:00:00.00 112552 N 0 0 0
0:00:00.00 112743 N 0 0 0
0:00:00.00 112941 N 0 0 0
0:00:00.00 113139 N 0 0 0
0:00:00.00 113339 N 0 0 0
0:00:00.00 113544 N 0 0 0
0:00:00.00 113735 N 0 0 0
0:00:00.00 113922 N 0 0 0
0:00:00.00 114098 N 0 0 0
0:00:00.00 114282 N 0 0 0
0:00:00.00 114460 N 0 0 0
0:00:00.00 114655 N 0 0 0
0:00:00.00 114838 N 0 0 0
0:00:00.00 115031 N 0 0 0
0:00:00.00 115232 N 0 0 0
0:00:00.00 115441 N 0 0 0
0:00:00.00 115645 N 0 0 0
0:00:00.00 115852 N 0 0 0
0:00:00.00 116035 N 0 0 0
0:00:00.00 116221 N 0 0 0
0:00:00.00 116397 N 0 0 0
0:00:00.00 116575 N 0 0 0
0:00:00.00 116757 N 0 0 0
0:00:00.00 116944 N 0 0 0
0:00:00.00 117146 N 0 0 0
0:00:00.00 117344 N 0 0 0
0:00:00.00 117506 N 0 0 0
0:00:00.00 117743 N 0 0 0
0:00:00.00 117931 N 0 0 0
0:00:00.00 118120 N 0 0 0
0:00:00.00 118307 N 0 0 0
0:00:00.00 118487 N 0 0 0
0:00:00.00 118669 N 0 0 0
0:00:00.00 118849 N 0 0 0
0:00:00.00 119027 N 0 0 0
0:00:00.00 119182 N 0 0 0
0:00:00.00 119403 N 0 0 0
0:00:00.00 119588 N 0 0 0
0:00:00.00 119792 N 0 0 0
0:00:00.00 119992 N 0 0 0
0:00:00.00 120193 N 0 0 0
0:00:00.00 120377 N 0 0 0
0:00:00.00 120559 N 0 0 0
0:00:00.00 120733 N 0 0 0
0:00:00.00 120913 N 0 0 0
0:00:00.00 121102 N 0 0 0
0:00:00.00 121297 N 0 0 0
0:00:00.00 121486 N 0 0 0
0:00:00.00 121691 N 0 0 0
0:00:00.00 121882 N 0 0 0
0:00:00.00 122083 N 0 0 0
0:00:00.00 122281 N 0 0 0
0:00:00.00 122470 N 0 0 0
0:00:00.00 122654 N 0 0 0
0:00:00.00 122836 N 0 0 0
0:00:00.00 123023 N 0 0 0
0:00:00.00 123208 N 0 0 0
0:00:00.00 123401 N 0 0 0
0:00:00.00 123590 N 0 0 0
0:00:00.00 123782 N 0 0 0
0:00:00.00 123986 N 0 0 0
0:00:00.00 124204 N 0 0 0
0:00:00.00 124409 N 0 0 0
0:00:00.00 124609 N 0 0 0
0:00:00.00 124790 N 0 0 0
0:00:00.00 124970 N 0 0 0
0:00:00.00 125149 N 0 0 0
0:00:00.00 125336 N 0 0 0
0:00:00.00 125518 N 0 0 0
0:00:00.00 125714 N 0 0 0
0:00:00.00 125912 N 0 0 0
0:00:00.00 126115 N 0 0 0
0:00:00.00 126315 N 0 0 0
0:00:00.00 126518 N 0 0 0
0:00:00.00 126707 N 0 0 0
0:00:00.00 126893 N 0 0 0
0:00:00.00 127080 N 0 0 0
0:00:00.00 127264 N 0 0 0
0:00:00.00 127444 N 0 0 0
0:00:00.00 127636 N 0 0 0
0:00:00.00 127818 N 0 0 0
0:00:00.00 128016 N 0 0 0
0:00:00.00 128221 N 0 0 0
0:00:00.00 128417 N 0 0 0
0:00:00.00 128617 N 0 0 0
0:00:00.00 128815 N 0 0 0
0:00:00.00 129011 N 0 0 0
0:00:00.00 129193 N 0 0 0
0:00:00.00 129379 N 0 0 0
0:00:00.00 129562 N 0 0 0
0:00:00.00 129746 N 0 0 0
0:00:00.00 129938 N 0 0 0
0:00:00.00 130145 N 0 0 0
0:00:00.00 130352 N 0 0 0
0:00:00.00 130563 N 0 0 0
0:00:00.00 130763 N 0 0 0
0:00:00.00 130968 N 0 0 0
0:00:00.00 131157 N 0 0 0
0:00:00.00 131339 N 0 0 0
0:00:00.00 131479 N 0 0 0
0:00:00.00 131706 N 0 0 0
0:00:00.00 131899 N 0 0 0
0:00:00.00 132091 N 0 0 0
0:00:00.00 132287 N 0 0 0
0:00:00.00 132485 N 0 0 0
0:00:00.00 132678 N 0 0 0
0:00:00.00 132880 N 0 0 0
0:00:00.00 133083 N 0 0 0
0:00:00.00 133277 N 0 0 0
0:00:00.00 133461 N 0 0 0
0:00:00.00 133643 N 0 0 0
0:00:00.00 133816 N 0 0 0
0:00:00.00 133992 N 0 0 0
0:00:00.00 134183 N 0 0 0
0:00:00.00 134372 N 0 0 0
0:00:00.00 134564 N 0 0 0
0:00:00.00 134759 N 0 0 0
0:00:00.00 134968 N 0 0 0
0:00:00.00 135171 N 0 0 0
0:00:00.00 135373 N 0 0 0
0:00:00.00 135558 N 0 0 0
0:00:00.00 135738 N 0 0 0
0:00:00.00 135920 N 0 0 0
0:00:00.00 136112 N 0 0 0
0:00:00.00 136305 N 0 0 0
0:00:00.00 136501 N 0 0 0
0:00:00.00 136692 N 0 0 0
0:00:00.00 136890 N 0 0 0
0:00:00.00 137084 N 0 0 0
0:00:00.00 137245 N 0 0 0
0:00:00.00 137475 N 0 0 0
0:00:00.00 137668 N 0 0 0
0:00:00.00 137846 N 0 0 0
0:00:00.00 138037 N 0 0 0
0:00:00.00 138213 N 0 0 0
0:00:00.00 138402 N 0 0 0
0:00:00.00 138580 N 0 0 0
0:00:00.00 138775 N 0 0 0
0:00:00.00 138980 N 0 0 0
0:00:00.00 139192 N 0 0 0
0:00:00.00 139392 N 0 0 0
0:00:00.00 139594 N 0 0 0
0:00:00.00 139777 N 0 0 0
0:00:00.00 139961 N 0 0 0
0:00:00.00 140144 N 0 0 0
0:00:00.00 140330 N 0 0 0
0:00:00.00 140515 N 0 0 0
0:00:00.00 140702 N 0 0 0
0:00:00.00 140904 N 0 0 0
0:00:00.00 141100 N 0 0 0
0:00:00.00 141305 N 0 0 0
0:00:00.00 141507 N 0 0 0
0:00:00.00 141703 N 0 0 0
0:00:00.00 141898 N 0 0 0
0:00:00.00 142090 N 0 0 0
0:00:00.00 142272 N 0 0 0
0:00:00.00 142456 N 0 0 0
0:00:00.00 142639 N 0 0 0
0:00:00.00 142826 N 0 0 0
0:00:00.00 143017 N 0 0 0
0:00:00.00 143222 N 0 0 0
0:00:00.00 143417 N 0 0 0
0:00:00.00 143627 N 0 0 0
0:00:00.00 143838 N 0 0 0
0:00:00.00 144038 N 0 0 0
0:00:00.00 144221 N 0 0 0
0:00:00.00 144401 N 0 0 0
0:00:00.00 144581 N 0 0 0
0:00:00.00 144769 N 0 0 0
0:00:00.00 144963 N 0 0 0
0:00:00.00 145165 N 0 0 0
0:00:00.00 145363 N 0 0 0
0:00:00.00 145571 N 0 0 0
0:00:00.00 145771 N 0 0 0
0:00:00.00 145930 N 0 0 0
0:00:00.00 146174 N 0 0 0
0:00:00.00 146358 N 0 0 0
0:00:00.00 146542 N 0 0 0
0:00:00.00 146723 N 0 0 0
0:00:00.00 146914 N 0 0 0
0:00:00.00 147058 N 0 0 0
0:00:00.00 147298 N 0 0 0
0:00:00.00 147490 N 0 0 0
0:00:00.00 147686 N 0 0 0
0:00:00.00 147890 N 0 0 0
0:00:00.00 148113 N 0 0 0
0:00:00.00 148309 N 0 0 0
0:00:00.00 148502 N 0 0 0
0:00:00.00 148671 N 0 0 0
0:00:00.00 148849 N 0 0 0
0:00:00.00 149029 N 0 0 0
0:00:00.00 149216 N 0 0 0
0:00:00.00 149409 N 0 0 0
0:00:00.00 149618 N 0 0 0
0:00:00.00 149834 N 0 0 0
0:00:00.00 150052 N 0 0 0
0:00:00.00 150255 N 0 0 0
0:00:00.00 150453 N 0 0 0
0:00:00.00 150635 N 0 0 0
0:00:00.00 150820 N 0 0 0
0:00:00.00 151009 N 0 0 0
0:00:00.00 151202 N 0 0 0
0:00:00.00 151400 N 0 0 0
0:00:00.00 151589 N 0 0 0
0:00:00.00 151787 N 0 0 0
0:00:00.00 151987 N 0 0 0
0:00:00.00 152192 N 0 0 0
0:00:00.00 152395 N 0 0 0
0:00:00.00 152602 N 0 0 0
0:00:00.00 152795 N 0 0 0
0:00:00.00 152978 N 0 0 0
0:00:00.00 153157 N 0 0 0
0:00:00.00 153337 N 0 0 0
0:00:00.00 153524 N 0 0 0
0:00:00.00 153720 N 0 0 0
0:00:00.00 153860 N 0 0 0
0:00:00.00 153995 N 0 0 0
0:00:00.00 154183 N 0 0 0
0:00:00.00 154352 N 0 0 0
0:00:00.00 154553 N 0 0 0
0:00:00.00 154755 N 0 0 0
0:00:00.00 154939 N 0 0 0
0:00:00.00 155122 N 0 0 0
0:00:00.00 155290 N 0 0 0
0:00:00.00 155489 N 0 0 0
0:00:00.00 155682 N 0 0 0
0:00:00.00 155848 N 0 0 0
0:00:00.00 156078 N 0 0 0
0:00:00.00 156276 N 0 0 0
0:00:00.00 156478 N 0 0 0
0:00:00.00 156683 N 0 0 0
0:00:00.00 156893 N 0 0 0
0:00:00.00 157084 N 0 0 0
0:00:00.00 157270 N 0 0 0
0:00:00.00 157450 N 0 0 0
0:00:00.00 157631 N 0 0 0
0:00:00.00 157815 N 0 0 0
0:00:00.00 158008 N 0 0 0
0:00:00.00 158195 N 0 0 0
0:00:00.00 158398 N 0 0 0
0:00:00.00 158558 N 0 0 0
0:00:00.00 158823 N 0 0 0
0:00:00.00 159017 N 0 0 0
0:00:00.00 159208 N 0 0 0
0:00:00.00 159390 N 0 0 0
0:00:00.00 159575 N 0 0 0
0:00:00.00 159763 N 0 0 0
0:00:00.00 159955 N 0 0 0
0:00:00.00 160142 N 0 0 0
0:00:00.00 160340 N 0 0 0
0:00:00.00 160535 N 0 0 0
0:00:00.00 160735 N 0 0 0
0:00:00.00 160940 N 0 0 0
0:00:00.00 161132 N 0 0 0
0:00:00.00 161325 N 0 0 0
0:00:00.00 161510 N 0 0 0
0:00:00.00 161696 N 0 0 0
0:00:00.00 161876 N 0 0 0
0:00:00.00 162061 N 0 0 0
0:00:00.00 162230 N 0 0 0
0:00:00.00 162434 N 0 0 0
0:00:00.00 162632 N 0 0 0
0:00:00.00 162850 N 0 0 0
0:00:00.00 163051 N 0 0 0
0:00:00.00 163260 N 0 0 0
0:00:00.00 163444 N 0 0 0
0:00:00.00 163625 N 0 0 0
0:00:00.00 163807 N 0 0 0
0:00:00.00 163989 N 0 0 0
0:00:00.00 164174 N 0 0 0
0:00:00.00 164363 N 0 0 0
0:00:00.00 164561 N 0 0 0
0:00:00.00 164758 N 0 0 0
0:00:00.00 164965 N 0 0 0
0:00:00.00 165164 N 0 0 0
0:00:00.00 165361 N 0 0 0
0:00:00.00 165560 N 0 0 0
0:00:00.00 165755 N 0 0 0
0:00:00.00 165935 N 0 0 0
0:00:00.00 166117 N 0 0 0
0:00:00.00 166298 N 0 0 0
0:00:00.00 166486 N 0 0 0
0:00:00.00 166667 N 0 0 0
0:00:00.00 166865 N 0 0 0
0:00:00.00 167056 N 0 0 0
0:00:00.00 167265 N 0 0 0
0:00:00.00 167474 N 0 0 0
0:00:00.00 167679 N 0 0 0
0:00:00.00 167861 N 0 0 0
0:00:00.00 168043 N 0 0 0
0:00:00.00 168221 N 0 0 0
0:00:00.00 168406 N 0 0 0
0:00:00.00 168599 N 0 0 0
0:00:00.00 168793 N 0 0 0
0:00:00.00 168991 N 0 0 0
0:00:00.00 169200 N 0 0 0
0:00:00.00 169400 N 0 0 0
0:00:00.00 169600 N 0 0 0
0:00:00.00 169798 N 0 0 0
0:00:00.00 169983 N 0 0 0
0:00:00.00 170170 N 0 0 0
0:00:00.00 170350 N 0 0 0
0:00:00.00 170536 N 0 0 0
0:00:00.00 170723 N 0 0 0
0:00:00.00 170915 N 0 0 0
0:00:00.00 171108 N 0 0 0
0:00:00.00 171299 N 0 0 0
0:00:00.00 171499 N 0 0 0
0:00:00.00 171711 N 0 0 0
0:00:00.00 171916 N 0 0 0
0:00:00.00 172118 N 0 0 0
0:00:00.00 172298 N 0 0 0
0:00:00.00 172474 N 0 0 0
0:00:00.00 172651 N 0 0 0
0:00:00.00 172836 N 0 0 0
0:00:00.00 173020 N 0 0 0
0:00:00.00 173218 N 0 0 0
0:00:00.00 173356 N 0 0 0
0:00:00.00 173619 N 0 0 0
0:00:00.00 173813 N 0 0 0
0:00:00.00 174015 N 0 0 0
0:00:00.00 174202 N 0 0 0
0:00:00.00 174389 N 0 0 0
0:00:00.00 174573 N 0 0 0
0:00:00.00 174753 N 0 0 0
0:00:00.00 174928 N 0 0 0
0:00:00.00 175118 N 0 0 0
0:00:00.00 175297 N 0 0 0
0:00:00.00 175487 N 0 0 0
0:00:00.00 175675 N 0 0 0
0:00:00.00 175871 N 0 0 0
0:00:00.00 176062 N 0 0 0
0:00:00.00 176261 N 0 0 0
0:00:00.00 176454 N 0 0 0
0:00:00.00 176638 N 0 0 0
0:00:00.00 176816 N 0 0 0
0:00:00.00 176998 N 0 0 0
0:00:00.00 177176 N 0 0 0
0:00:00.00 177358 N 0 0 0
0:00:00.00 177554 N 0 0 0
0:00:00.00 177759 N 0 0 0
0:00:00.00 177962 N 0 0 0
0:00:00.00 178112 N 0 0 0
0:00:00.00 178355 N 0 0 0
0:00:00.00 178546 N 0 0 0
0:00:00.00 178724 N 0 0 0
0:00:00.00 178913 N 0 0 0
0:00:00.00 179095 N 0 0 0
0:00:00.00 179276 N 0 0 0
0:00:00.00 179467 N 0 0 0
0:00:00.00 179618 N 0 0 0
0:00:00.00 179717 N 0 0 0
0:00:00.00 180052 N 0 0 0
0:00:00.00 180220 N 0 0 0
0:00:00.00 180459 N 0 0 0
0:00:00.00 180664 N 0 0 0
0:00:00.00 180853 N 0 0 0
0:00:00.00 181039 N 0 0 0
0:00:00.00 181219 N 0 0 0
0:00:00.00 181399 N 0 0 0
0:00:00.00 181579 N 0 0 0
0:00:00.00 181768 N 0 0 0
0:00:00.00 181957 N 0 0 0
0:00:00.00 182160 N 0 0 0
0:00:00.00 182362 N 0 0 0
0:00:00.00 182574 N 0 0 0
0:00:00.00 182768 N 0 0 0
0:00:00.00 182947 N 0 0 0
0:00:00.00 183139 N 0 0 0
0:00:00.00 183317 N 0 0 0
0:00:00.00 183503 N 0 0 0
0:00:00.00 183695 N 0 0 0
0:00:00.00 183883 N 0 0 0
0:00:00.00 184079 N 0 0 0
0:00:00.00 184266 N 0 0 0
0:00:00.00 184466 N 0 0 0
0:00:00.00 184667 N 0 0 0
0:00:00.00 184865 N 0 0 0
0:00:00.00 185060 N 0 0 0
0:00:00.00 185242 N 0 0 0
0:00:00.00 185427 N 0 0 0
0:00:00.00 185605 N 0 0 0
0:00:00.00 185792 N 0 0 0
0:00:00.00 185980 N 0 0 0
0:00:00.00 186169 N 0 0 0
0:00:00.00 186365 N 0 0 0
0:00:00.00 186575 N 0 0 0
0:00:00.00 186790 N 0 0 0
0:00:00.00 186998 N 0 0 0
0:00:00.00 187193 N 0 0 0
0:00:00.00 187380 N 0 0 0
0:00:00.00 187558 N 0 0 0
0:00:00.00 187740 N 0 0 0
0:00:00.00 187918 N 0 0 0
0:00:00.00 188116 N 0 0 0
0:00:00.00 188314 N 0 0 0
0:00:00.00 188527 N 0 0 0
0:00:00.00 188728 N 0 0 0
0:00:00.00 188935 N 0 0 0
0:00:00.00 189130 N 0 0 0
0:00:00.00 189328 N 0 0 0
0:00:00.00 189526 N 0 0 0
0:00:00.00 189662 N 0 0 0
0:00:00.00 189896 N 0 0 0
0:00:00.00 190084 N 0 0 0
0:00:00.00 190269 N 0 0 0
0:00:00.00 190458 N 0 0 0
0:00:00.00 190663 N 0 0 0
0:00:00.00 190859 N 0 0 0
0:00:00.00 191066 N 0 0 0
0:00:00.00 191270 N 0 0 0
0:00:00.00 191475 N 0 0 0
0:00:00.00 191660 N 0 0 0
0:00:00.00 191846 N 0 0 0
0:00:00.00 192006 N 0 0 0
0:00:00.00 192130 N 0 0 0
0:00:00.00 192400 N 0 0 0
0:00:00.00 192604 N 0 0 0
0:00:00.00 192803 N 0 0 0
0:00:00.00 193014 N 0 0 0
0:00:00.00 193210 N 0 0 0
0:00:00.00 193415 N 0 0 0
0:00:00.00 193615 N 0 0 0
0:00:00.00 193801 N 0 0 0
0:00:00.00 193982 N 0 0 0
0:00:00.00 194161 N 0 0 0
0:00:00.00 194346 N 0 0 0
0:00:00.00 194528 N 0 0 0
0:00:00.00 194717 N 0 0 0
0:00:00.00 194899 N 0 0 0
0:00:00.00 195088 N 0 0 0
0:00:00.00 195289 N 0 0 0
0:00:00.00 195502 N 0 0 0
0:00:00.00 195701 N 0 0 0
0:00:00.00 195894 N 0 0 0
0:00:00.00 196069 N 0 0 0
0:00:00.00 196247 N 0 0 0
0:00:00.00 196423 N 0 0 0
0:00:00.00 196609 N 0 0 0
0:00:00.00 196789 N 0 0 0
0:00:00.00 196983 N 0 0 0
0:00:00.00 197183 N 0 0 0
0:00:00.00 197390 N 0 0 0
0:00:00.00 197593 N 0 0 0
0:00:00.00 197797 N 0 0 0
0:00:00.00 197987 N 0 0 0
0:00:00.00 198176 N 0 0 0
0:00:00.00 198364 N 0 0 0
0:00:00.00 198545 N 0 0 0
0:00:00.00 198731 N 0 0 0
0:00:00.00 198920 N 0 0 0
0:00:00.00 199112 N 0 0 0
0:00:00.00 199303 N 0 0 0
0:00:00.00 199507 N 0 0 0
0:00:00.00 199701 N 0 0 0
0:00:00.00 199895 N 0 0 0
0:00:00.00 200111 N 0 0 0
0:00:00.00 200302 N 0 0 0
0:00:00.00 200482 N 0 0 0
0:00:00.00 200660 N 0 0 0
0:00:00.00 200837 N 0 0 0
0:00:00.00 201022 N 0 0 0
0:00:00.00 201215 N 0 0 0
0:00:00.00 201418 N 0 0 0
0:00:00.00 201618 N 0 0 0
0:00:00.00 201830 N 0 0 0
0:00:00.00 202023 N 0 0 0
0:00:00.00 202217 N 0 0 0
0:00:00.00 202405 N 0 0 0
0:00:00.00 202549 N 0 0 0
0:00:00.00 202766 N 0 0 0
0:00:00.00 202948 N 0 0 0
0:00:00.00 203139 N 0 0 0
0:00:00.00 203319 N 0 0 0
0:00:00.00 203512 N 0 0 0
0:00:00.00 203702 N 0 0 0
0:00:00.00 203897 N 0 0 0
0:00:00.00 204102 N 0 0 0
0:00:00.00 204311 N 0 0 0
0:00:00.00 204478 N 0 0 0
0:00:00.00 204682 N 0 0 0
0:00:00.00 204856 N 0 0 0
0:00:00.00 205040 N 0 0 0
0:00:00.00 205216 N 0 0 0
0:00:00.00 205405 N 0 0 0
0:00:00.00 205589 N 0 0 0
0:00:00.00 205792 N 0 0 0
0:00:00.00 205997 N 0 0 0
0:00:00.00 206163 N 0 0 0
0:00:00.00 206276 N 0 0 0
0:00:00.00 206593 N 0 0 0
0:00:00.00 206782 N 0 0 0
0:00:00.00 206964 N 0 0 0
0:00:00.00 207148 N 0 0 0
0:00:00.00 207333 N 0 0 0
0:00:00.00 207524 N 0 0 0
0:00:00.00 207722 N 0 0 0
0:00:00.00 207911 N 0 0 0
0:00:00.00 208105 N 0 0 0
0:00:00.00 208307 N 0 0 0
0:00:00.00 208505 N 0 0 0
0:00:00.00 208706 N 0 0 0
0:00:00.00 208895 N 0 0 0
0:00:00.00 209081 N 0 0 0
0:00:00.00 209263 N 0 0 0
0:00:00.00 209444 N 0 0 0
0:00:00.00 209632 N 0 0 0
0:00:00.00 209817 N 0 0 0
0:00:00.00 210017 N 0 0 0
0:00:00.00 210226 N 0 0 0
0:00:00.00 210429 N 0 0 0
0:00:00.00 210638 N 0 0 0
0:00:00.00 210834 N 0 0 0
0:00:00.00 211027 N 0 0 0
0:00:00.00 211205 N 0 0 0
0:00:00.00 211387 N 0 0 0
0:00:00.00 211563 N 0 0 0
0:00:00.00 211750 N 0 0 0
0:00:00.00 211941 N 0 0 0
0:00:00.00 212139 N 0 0 0
0:00:00.00 212330 N 0 0 0
0:00:00.00 212488 N 0 0 0
0:00:00.00 212717 N 0 0 0
0:00:00.00 212915 N 0 0 0
0:00:00.00 213070 N 0 0 0
0:00:00.00 213304 N 0 0 0
0:00:00.00 213482 N 0 0 0
0:00:00.00 213664 N 0 0 0
0:00:00.00 213838 N 0 0 0
0:00:00.00 214025 N 0 0 0
0:00:00.00 214216 N 0 0 0
0:00:00.00 214407 N 0 0 0
0:00:00.00 214605 N 0 0 0
0:00:00.00 214803 N 0 0 0
0:00:00.00 215010 N 0 0 0
0:00:00.00 215208 N 0 0 0
0:00:00.00 215395 N 0 0 0
0:00:00.00 215573 N 0 0 0
0:00:00.00 215750 N 0 0 0
0:00:00.00 215930 N 0 0 0
0:00:00.00 216122 N 0 0 0
0:00:00.00 216311 N 0 0 0
0:00:00.00 216508 N 0 0 0
0:00:00.00 216702 N 0 0 0
0:00:00.00 216898 N 0 0 0
0:00:00.00 217093 N 0 0 0
0:00:00.00 217298 N 0 0 0
0:00:00.00 217485 N 0 0 0
0:00:00.00 217672 N 0 0 0
0:00:00.00 217854 N 0 0 0
0:00:00.00 218041 N 0 0 0
0:00:00.00 218223 N 0 0 0
0:00:00.00 218412 N 0 0 0
0:00:00.00 218599 N 0 0 0
0:00:00.00 218794 N 0 0 0
0:00:00.00 218977 N 0 0 0
0:00:00.00 219220 N 0 0 0
0:00:00.00 219418 N 0 0 0
0:00:00.00 219616 N 0 0 0
0:00:00.00 219798 N 0 0 0
0:00:00.00 219982 N 0 0 0
0:00:00.00 220163 N 0 0 0
0:00:00.00 220347 N 0 0 0
0:00:00.00 220534 N 0 0 0
0:00:00.00 220727 N 0 0 0
0:00:00.00 220932 N 0 0 0
0:00:00.00 221137 N 0 0 0
0:00:00.00 221344 N 0 0 0
0:00:00.00 221548 N 0 0 0
0:00:00.00 221742 N 0 0 0
0:00:00.00 221893 N 0 0 0
0:00:00.00 222122 N 0 0 0
0:00:00.00 222304 N 0 0 0
0:00:00.00 222494 N 0 0 0
0:00:00.00 222682 N 0 0 0
0:00:00.00 222876 N 0 0 0
0:00:00.00 223042 N 0 0 0
0:00:00.00 223277 N 0 0 0
0:00:00.00 223468 N 0 0 0
0:00:00.00 223677 N 0 0 0
0:00:00.00 223873 N 0 0 0
0:00:00.00 224064 N 0 0 0
0:00:00.00 224248 N 0 0 0
0:00:00.00 224429 N 0 0 0
0:00:00.00 224606 N 0 0 0
0:00:00.00 224788 N 0 0 0
0:00:00.00 224980 N 0 0 0
0:00:00.00 225184 N 0 0 0
0:00:00.00 225383 N 0 0 0
0:00:00.00 225590 N 0 0 0
0:00:00.00 225785 N 0 0 0
0:00:00.00 225977 N 0 0 0
0:00:00.00 226166 N 0 0 0
0:00:00.00 226346 N 0 0 0
0:00:00.00 226532 N 0 0 0
0:00:00.00 226715 N 0 0 0
0:00:00.00 226912 N 0 0 0
0:00:00.00 227101 N 0 0 0
0:00:00.00 227299 N 0 0 0
0:00:00.00 227495 N 0 0 0
0:00:00.00 227696 N 0 0 0
0:00:00.00 227905 N 0 0 0
0:00:00.00 228116 N 0 0 0
0:00:00.00 228307 N 0 0 0
0:00:00.00 228496 N 0 0 0
0:00:00.00 228677 N 0 0 0
0:00:00.00 228863 N 0 0 0
0:00:00.00 229052 N 0 0 0
0:00:00.00 229246 N 0 0 0
0:00:00.00 229442 N 0 0 0
0:00:00.00 229648 N 0 0 0
0:00:00.00 229862 N 0 0 0
0:00:00.00 230074 N 0 0 0
0:00:00.00 230281 N 0 0 0
0:00:00.00 230476 N 0 0 0
0:00:00.00 230661 N 0 0 0
0:00:00.00 230846 N 0 0 0
0:00:00.00 231035 N 0 0 0
0:00:00.00 231232 N 0 0 0
0:00:00.00 231430 N 0 0 0
0:00:00.00 231626 N 0 0 0
0:00:00.00 231827 N 0 0 0
0:00:00.00 232029 N 0 0 0
0:00:00.00 232232 N 0 0 0
0:00:00.00 232425 N 0 0 0
0:00:00.00 232578 N 0 0 0
0:00:00.00 232810 N 0 0 0
0:00:00.00 232992 N 0 0 0
0:00:00.00 233168 N 0 0 0
0:00:00.00 233347 N 0 0 0
0:00:00.00 233530 N 0 0 0
0:00:00.00 233728 N 0 0 0
0:00:00.00 233941 N 0 0 0
0:00:00.00 234151 N 0 0 0
0:00:00.00 234293 N 0 0 0
0:00:00.00 234563 N 0 0 0
0:00:00.00 234756 N 0 0 0
0:00:00.00 234943 N 0 0 0
0:00:00.00 235130 N 0 0 0
0:00:00.00 235310 N 0 0 0
0:00:00.00 235462 N 0 0 0
0:00:00.00 235692 N 0 0 0
0:00:00.00 235892 N 0 0 0
0:00:00.00 236092 N 0 0 0
0:00:00.00 236295 N 0 0 0
0:00:00.00 236448 N 0 0 0
0:00:00.00 236693 N 0 0 0
0:00:00.00 236896 N 0 0 0
0:00:00.00 237085 N 0 0 0
0:00:00.00 237272 N 0 0 0
0:00:00.00 237452 N 0 0 0
0:00:00.00 237638 N 0 0 0
0:00:00.00 237823 N 0 0 0
0:00:00.00 238019 N 0 0 0
0:00:00.00 238212 N 0 0 0
0:00:00.00 238419 N 0 0 0
0:00:00.00 238628 N 0 0 0
0:00:00.00 238840 N 0 0 0
0:00:00.00 239038 N 0 0 0
0:00:00.00 239225 N 0 0 0
0:00:00.00 239402 N 0 0 0
0:00:00.00 239585 N 0 0 0
0:00:00.00 239778 N 0 0 0
0:00:00.00 239974 N 0 0 0
0:00:00.00 240174 N 0 0 0
0:00:00.00 240374 N 0 0 0
0:00:00.00 240574 N 0 0 0
0:00:00.00 240772 N 0 0 0
0:00:00.00 240977 N 0 0 0
0:00:00.00 241169 N 0 0 0
0:00:00.00 241364 N 0 0 0
0:00:00.00 241555 N 0 0 0
0:00:00.00 241744 N 0 0 0
0:00:00.00 241927 N 0 0 0
0:00:00.00 242114 N 0 0 0
0:00:00.00 242300 N 0 0 0
0:00:00.00 242510 N 0 0 0
0:00:00.00 242725 N 0 0 0
0:00:00.00 242950 N 0 0 0
0:00:00.00 243160 N 0 0 0
0:00:00.00 243355 N 0 0 0
0:00:00.00 243540 N 0 0 0
0:00:00.00 243718 N 0 0 0
0:00:00.00 243905 N 0 0 0
0:00:00.00 244085 N 0 0 0
0:00:00.00 244280 N 0 0 0
0:00:00.00 244474 N 0 0 0
0:00:00.00 244678 N 0 0 0
0:00:00.00 244881 N 0 0 0
0:00:00.00 245086 N 0 0 0
0:00:00.00 245282 N 0 0 0
0:00:00.00 245479 N 0 0 0
0:00:00.00 245628 N 0 0 0
0:00:00.00 245853 N 0 0 0
0:00:00.00 246028 N 0 0 0
0:00:00.00 246209 N 0 0 0
0:00:00.00 246391 N 0 0 0
0:00:00.00 246577 N 0 0 0
0:00:00.00 246773 N 0 0 0
0:00:00.00 246962 N 0 0 0
0:00:00.00 247165 N 0 0 0
0:00:00.00 247369 N 0 0 0
0:00:00.00 247576 N 0 0 0
0:00:00.00 247761 N 0 0 0
0:00:00.00 247943 N 0 0 0
0:00:00.00 248121 N 0 0 0
0:00:00.00 248301 N 0 0 0
0:00:00.00 248492 N 0 0 0
0:00:00.00 248692 N 0 0 0
0:00:00.00 248886 N 0 0 0
0:00:00.00 249093 N 0 0 0
0:00:00.00 249291 N 0 0 0
0:00:00.00 249496 N 0 0 0
0:00:00.00 249698 N 0 0 0
0:00:00.00 249892 N 0 0 0
0:00:00.00 250079 N 0 0 0
0:00:00.00 250265 N 0 0 0
0:00:00.00 250450 N 0 0 0
0:00:00.00 250641 N 0 0 0
0:00:00.00 250832 N 0 0 0
0:00:00.00 251026 N 0 0 0
0:00:00.00 251222 N 0 0 0
0:00:00.00 251424 N 0 0 0
0:00:00.00 251633 N 0 0 0
0:00:00.00 251836 N 0 0 0
0:00:00.00 252036 N 0 0 0
0:00:00.00 252221 N 0 0 0
0:00:00.00 252405 N 0 0 0
0:00:00.00 252583 N 0 0 0
0:00:00.00 252767 N 0 0 0
0:00:00.00 252947 N 0 0 0
0:00:00.00 253141 N 0 0 0
0:00:00.00 253343 N 0 0 0
0:00:00.00 253553 N 0 0 0
0:00:00.00 253753 N 0 0 0
0:00:00.00 253953 N 0 0 0
0:00:00.00 254140 N 0 0 0
0:00:00.00 254329 N 0 0 0
0:00:00.00 254518 N 0 0 0
0:00:00.00 254707 N 0 0 0
0:00:00.00 254894 N 0 0 0
0:00:00.00 255083 N 0 0 0
0:00:00.00 255267 N 0 0 0
0:00:00.00 255460 N 0 0 0
0:00:00.00 255661 N 0 0 0
0:00:00.00 255857 N 0 0 0
0:00:00.00 256066 N 0 0 0
0:00:00.00 256262 N 0 0 0
0:00:00.00 256453 N 0 0 0
0:00:00.00 256631 N 0 0 0
0:00:00.00 256813 N 0 0 0
0:00:00.00 256995 N 0 0 0
0:00:00.00 257180 N 0 0 0
0:00:00.00 257377 N 0 0 0
0:00:00.00 257580 N 0 0 0
0:00:00.00 257778 N 0 0 0
0:00:00.00 257985 N 0 0 0
0:00:00.00 258183 N 0 0 0
0:00:00.00 258379 N 0 0 0
0:00:00.00 258568 N 0 0 0
0:00:00.00 258752 N 0 0 0
0:00:00.00 258928 N 0 0 0
0:00:00.00 259108 N 0 0 0
0:00:00.00 259292 N 0 0 0
0:00:00.00 259483 N 0 0 0
0:00:00.00 259672 N 0 0 0
0:00:00.00 259871 N 0 0 0
0:00:00.00 260060 N 0 0 0
0:00:00.00 260257 N 0 0 0
0:00:00.00 260449 N 0 0 0
0:00:00.00 260579 N 0 0 0
0:00:00.00 260842 N 0 0 0
0:00:00.00 261027 N 0 0 0
0:00:00.00 261203 N 0 0 0
0:00:00.00 261385 N 0 0 0
0:00:00.00 261574 N 0 0 0
0:00:00.00 261767 N 0 0 0
0:00:00.00 261968 N 0 0 0
0:00:00.00 262174 N 0 0 0
0:00:00.00 262386 N 0 0 0
0:00:00.00 262588 N 0 0 0
0:00:00.00 262787 N 0 0 0
0:00:00.00 262975 N 0 0 0
0:00:00.00 263160 N 0 0 0
0:00:00.00 263345 N 0 0 0
0:00:00.00 263538 N 0 0 0
0:00:00.00 263729 N 0 0 0
0:00:00.00 263930 N 0 0 0
0:00:00.00 264082 N 0 0 0
0:00:00.00 264330 N 0 0 0
0:00:00.00 264530 N 0 0 0
0:00:00.00 264731 N 0 0 0
0:00:00.00 264920 N 0 0 0
0:00:00.00 265113 N 0 0 0
0:00:00.00 265300 N 0 0 0
0:00:00.00 265484 N 0 0 0
0:00:00.00 265671 N 0 0 0
0:00:00.00 265856 N 0 0 0
0:00:00.00 266040 N 0 0 0
0:00:00.00 266233 N 0 0 0
0:00:00.00 266441 N 0 0 0
0:00:00.00 266650 N 0 0 0
0:00:00.00 266854 N 0 0 0
0:00:00.00 267046 N 0 0 0
0:00:00.00 267226 N 0 0 0
0:00:00.00 267404 N 0 0 0
0:00:00.00 267586 N 0 0 0
0:00:00.00 267730 N 0 0 0
0:00:00.00 267953 N 0 0 0
0:00:00.00 268141 N 0 0 0
0:00:00.00 268344 N 0 0 0
0:00:00.00 268540 N 0 0 0
0:00:00.00 268745 N 0 0 0
0:00:00.00 268943 N 0 0 0
0:00:00.00 269141 N 0 0 0
0:00:00.00 269336 N 0 0 0
0:00:00.00 269527 N 0 0 0
0:00:00.00 269705 N 0 0 0
0:00:00.00 269890 N 0 0 0
0:00:00.00 270077 N 0 0 0
0:00:00.00 270266 N 0 0 0
0:00:00.00 270463 N 0 0 0
0:00:00.00 270662 N 0 0 0
0:00:00.00 270866 N 0 0 0
0:00:00.00 271075 N 0 0 0
0:00:00.00 271287 N 0 0 0
0:00:00.00 271483 N 0 0 0
0:00:00.00 271670 N 0 0 0
0:00:00.00 271850 N 0 0 0
0:00:00.00 272032 N 0 0 0
0:00:00.00 272225 N 0 0 0
0:00:00.00 272426 N 0 0 0
0:00:00.00 272628 N 0 0 0
0:00:00.00 272837 N 0 0 0
0:00:00.00 273037 N 0 0 0
0:00:00.00 273240 N 0 0 0
0:00:00.00 273440 N 0 0 0
0:00:00.00 273641 N 0 0 0
0:00:00.00 273830 N 0 0 0
0:00:00.00 274016 N 0 0 0
0:00:00.00 274203 N 0 0 0
0:00:00.00 274396 N 0 0 0
0:00:00.00 274590 N 0 0 0
0:00:00.00 274786 N 0 0 0
0:00:00.00 274986 N 0 0 0
0:00:00.00 275191 N 0 0 0
0:00:00.00 275411 N 0 0 0
0:00:00.00 275620 N 0 0 0
0:00:00.00 275821 N 0 0 0
0:00:00.00 276003 N 0 0 0
0:00:00.00 276188 N 0 0 0
0:00:00.00 276370 N 0 0 0
0:00:00.00 276557 N 0 0 0
0:00:00.00 276748 N 0 0 0
0:00:00.00 276950 N 0 0 0
0:00:00.00 277162 N 0 0 0
0:00:00.00 277369 N 0 0 0
0:00:00.00 277573 N 0 0 0
0:00:00.00 277765 N 0 0 0
0:00:00.00 277958 N 0 0 0
0:00:00.00 278152 N 0 0 0
0:00:00.00 278343 N 0 0 0
0:00:00.00 278525 N 0 0 0
0:00:00.00 278717 N 0 0 0
0:00:00.00 278899 N 0 0 0
0:00:00.00 279099 N 0 0 0
0:00:00.00 279301 N 0 0 0
0:00:00.00 279506 N 0 0 0
0:00:00.00 279671 N 0 0 0
0:00:00.00 279909 N 0 0 0
0:00:00.00 280105 N 0 0 0
0:00:00.00 280287 N 0 0 0
0:00:00.00 280467 N 0 0 0
0:00:00.00 280643 N 0 0 0
0:00:00.00 280814 N 0 0 0
0:00:00.00 281002 N 0 0 0
0:00:00.00 281200 N 0 0 0
0:00:00.00 281403 N 0 0 0
0:00:00.00 281612 N 0 0 0
0:00:00.00 281812 N 0 0 0
0:00:00.00 282008 N 0 0 0
0:00:00.00 282193 N 0 0 0
0:00:00.00 282384 N 0 0 0
0:00:00.00 282562 N 0 0 0
0:00:00.00 282749 N 0 0 0
0:00:00.00 282938 N 0 0 0
0:00:00.00 283131 N 0 0 0
0:00:00.00 283322 N 0 0 0
0:00:00.00 283522 N 0 0 0
0:00:00.00 283723 N 0 0 0
0:00:00.00 283932 N 0 0 0
0:00:00.00 284148 N 0 0 0
0:00:00.00 284353 N 0 0 0
0:00:00.00 284544 N 0 0 0
0:00:00.00 284729 N 0 0 0
0:00:00.00 284911 N 0 0 0
0:00:00.00 285095 N 0 0 0
0:00:00.00 285289 N 0 0 0
0:00:00.00 285475 N 0 0 0
0:00:00.00 285680 N 0 0 0
0:00:00.00 285890 N 0 0 0
0:00:00.00 286105 N 0 0 0
0:00:00.00 286310 N 0 0 0
0:00:00.00 286508 N 0 0 0
0:00:00.00 286693 N 0 0 0
0:00:00.00 286882 N 0 0 0
0:00:00.00 287071 N 0 0 0
0:00:00.00 287262 N 0 0 0
0:00:00.00 287456 N 0 0 0
0:00:00.00 287649 N 0 0 0
0:00:00.00 287845 N 0 0 0
0:00:00.00 288043 N 0 0 0
0:00:00.00 288252 N 0 0 0
0:00:00.00 288452 N 0 0 0
0:00:00.00 288657 N 0 0 0
0:00:00.00 288851 N 0 0 0
0:00:00.00 289035 N 0 0 0
0:00:00.00 289213 N 0 0 0
0:00:00.00 289397 N 0 0 0
0:00:00.00 289580 N 0 0 0
0:00:00.00 289775 N 0 0 0
0:00:00.00 289980 N 0 0 0
0:00:00.00 290189 N 0 0 0
0:00:00.00 290390 N 0 0 0
0:00:00.00 290594 N 0 0 0
0:00:00.00 290790 N 0 0 0
0:00:00.00 290979 N 0 0 0
0:00:00.00 291164 N 0 0 0
0:00:00.00 291339 N 0 0 0
0:00:00.00 291521 N 0 0 0
0:00:00.00 291703 N 0 0 0
0:00:00.00 291901 N 0 0 0
0:00:00.00 292091 N 0 0 0
0:00:00.00 292291 N 0 0 0
0:00:00.00 292482 N 0 0 0
0:00:00.00 292676 N 0 0 0
0:00:00.00 292858 N 0 0 0
0:00:00.00 293080 N 0 0 0
0:00:00.00 293265 N 0 0 0
0:00:00.00 293449 N 0 0 0
0:00:00.00 293621 N 0 0 0
0:00:00.00 293807 N 0 0 0
0:00:00.00 293992 N 0 0 0
0:00:00.00 294188 N 0 0 0
0:00:00.00 294386 N 0 0 0
0:00:00.00 294590 N 0 0 0
0:00:00.00 294797 N 0 0 0
0:00:00.00 294998 N 0 0 0
0:00:00.00 295193 N 0 0 0
0:00:00.00 295382 N 0 0 0
0:00:00.00 295565 N 0 0 0
0:00:00.00 295751 N 0 0 0
0:00:00.00 295942 N 0 0 0
0:00:00.00 296134 N 0 0 0
0:00:00.00 296336 N 0 0 0
0:00:00.00 296536 N 0 0 0
0:00:00.00 296739 N 0 0 0
0:00:00.00 296933 N 0 0 0
0:00:00.00 297135 N 0 0 0
0:00:00.00 297324 N 0 0 0
0:00:00.00 297515 N 0 0 0
0:00:00.00 297702 N 0 0 0
0:00:00.00 297889 N 0 0 0
0:00:00.00 298071 N 0 0 0
0:00:00.00 298256 N 0 0 0
0:00:00.00 298440 N 0 0 0
0:00:00.00 298636 N 0 0 0
0:00:00.00 298845 N 0 0 0
0:00:00.00 299061 N 0 0 0
0:00:00.00 299264 N 0 0 0
0:00:00.00 299462 N 0 0 0
0:00:00.00 299646 N 0 0 0
0:00:00.00 299826 N 0 0 0
0:00:00.00 300013 N 0 0 0
0:00:00.00 300191 N 0 0 0
0:00:00.00 300379 N 0 0 0
0:00:00.00 300566 N 0 0 0
0:00:00.00 300766 N 0 0 0
0:00:00.00 300933 N 0 0 0
0:00:00.00 301165 N 0 0 0
0:00:00.00 301360 N 0 0 0
0:00:00.00 301550 N 0 0 0
0:00:00.00 301736 N 0 0 0
0:00:00.00 301923 N 0 0 0
0:00:00.00 302103 N 0 0 0
0:00:00.00 302288 N 0 0 0
0:00:00.00 302474 N 0 0 0
0:00:00.00 302657 N 0 0 0
0:00:00.00 302845 N 0 0 0
0:00:00.00 303044 N 0 0 0
0:00:00.00 303237 N 0 0 0
0:00:00.00 303446 N 0 0 0
0:00:00.00 303647 N 0 0 0
0:00:00.00 303851 N 0 0 0
0:00:00.00 304033 N 0 0 0
0:00:00.00 304218 N 0 0 0
0:00:00.00 304398 N 0 0 0
0:00:00.00 304583 N 0 0 0
0:00:00.00 304780 N 0 0 0
0:00:00.00 304988 N 0 0 0
0:00:00.00 305190 N 0 0 0
0:00:00.00 305402 N 0 0 0
0:00:00.00 305599 N 0 0 0
0:00:00.00 305800 N 0 0 0
0:00:00.00 305998 N 0 0 0
0:00:00.00 306184 N 0 0 0
0:00:00.00 306371 N 0 0 0
0:00:00.00 306556 N 0 0 0
0:00:00.00 306751 N 0 0 0
0:00:00.00 306941 N 0 0 0
0:00:00.00 307141 N 0 0 0
0:00:00.00 307336 N 0 0 0
0:00:00.00 307535 N 0 0 0
0:00:00.00 307746 N 0 0 0
0:00:00.00 307962 N 0 0 0
0:00:00.00 308160 N 0 0 0
0:00:00.00 308353 N 0 0 0
0:00:00.00 308536 N 0 0 0
0:00:00.00 308716 N 0 0 0
0:00:00.00 308900 N 0 0 0
0:00:00.00 309089 N 0 0 0
0:00:00.00 309287 N 0 0 0
0:00:00.00 309490 N 0 0 0
0:00:00.00 309704 N 0 0 0
0:00:00.00 309908 N 0 0 0
0:00:00.00 310109 N 0 0 0
0:00:00.00 310302 N 0 0 0
0:00:00.00 310491 N 0 0 0
0:00:00.00 310678 N 0 0 0
0:00:00.00 310867 N 0 0 0
0:00:00.00 311015 N 0 0 0
0:00:00.00 311249 N 0 0 0
0:00:00.00 311434 N 0 0 0
0:00:00.00 311634 N 0 0 0
0:00:00.00 311834 N 0 0 0
0:00:00.00 312039 N 0 0 0
0:00:00.00 312233 N 0 0 0
0:00:00.00 312431 N 0 0 0
0:00:00.00 312619 N 0 0 0
0:00:00.00 312797 N 0 0 0
0:00:00.00 312973 N 0 0 0
0:00:00.00 313150 N 0 0 0
0:00:00.00 313328 N 0 0 0
0:00:00.00 313510 N 0 0 0
0:00:00.00 313708 N 0 0 0
0:00:00.00 313913 N 0 0 0
0:00:00.00 314114 N 0 0 0
0:00:00.00 314323 N 0 0 0
0:00:00.00 314512 N 0 0 0
0:00:00.00 314699 N 0 0 0
0:00:00.00 314881 N 0 0 0
0:00:00.00 315059 N 0 0 0
0:00:00.00 315245 N 0 0 0
0:00:00.00 315432 N 0 0 0
0:00:00.00 315632 N 0 0 0
0:00:00.00 315805 N 0 0 0
0:00:00.00 316028 N 0 0 0
0:00:00.00 316226 N 0 0 0
0:00:00.00 316427 N 0 0 0
0:00:00.00 316636 N 0 0 0
0:00:00.00 316840 N 0 0 0
0:00:00.00 317025 N 0 0 0
0:00:00.00 317207 N 0 0 0
0:00:00.00 317385 N 0 0 0
0:00:00.00 317569 N 0 0 0
0:00:00.00 317761 N 0 0 0
0:00:00.00 317956 N 0 0 0
0:00:00.00 318163 N 0 0 0
0:00:00.00 318366 N 0 0 0
0:00:00.00 318578 N 0 0 0
0:00:00.00 318778 N 0 0 0
0:00:00.00 318976 N 0 0 0
0:00:00.00 319163 N 0 0 0
0:00:00.00 319315 N 0 0 0
0:00:00.00 319538 N 0 0 0
0:00:00.00 319730 N 0 0 0
0:00:00.00 319921 N 0 0 0
0:00:00.00 320126 N 0 0 0
0:00:00.00 320326 N 0 0 0
0:00:00.00 320531 N 0 0 0
0:00:00.00 320740 N 0 0 0
0:00:00.00 320933 N 0 0 0
0:00:00.00 321131 N 0 0 0
0:00:00.00 321320 N 0 0 0
0:00:00.00 321511 N 0 0 0
0:00:00.00 321692 N 0 0 0
0:00:00.00 321885 N 0 0 0
0:00:00.00 322070 N 0 0 0
0:00:00.00 322263 N 0 0 0
0:00:00.00 322468 N 0 0 0
0:00:00.00 322691 N 0 0 0
0:00:00.00 322904 N 0 0 0
0:00:00.00 323113 N 0 0 0
0:00:00.00 323298 N 0 0 0
0:00:00.00 323482 N 0 0 0
0:00:00.00 323660 N 0 0 0
0:00:00.00 323836 N 0 0 0
0:00:00.00 324023 N 0 0 0
0:00:00.00 324148 N 0 0 0
0:00:00.00 324421 N 0 0 0
0:00:00.00 324617 N 0 0 0
0:00:00.00 324821 N 0 0 0
0:00:00.00 325021 N 0 0 0
0:00:00.00 325220 N 0 0 0
0:00:00.00 325420 N 0 0 0
0:00:00.00 325615 N 0 0 0
0:00:00.00 325796 N 0 0 0
0:00:00.00 325978 N 0 0 0
0:00:00.00 326158 N 0 0 0
0:00:00.00 326349 N 0 0 0
0:00:00.00 326545 N 0 0 0
0:00:00.00 326747 N 0 0 0
0:00:00.00 326954 N 0 0 0
0:00:00.00 327157 N 0 0 0
0:00:00.00 327371 N 0 0 0
0:00:00.00 327573 N 0 0 0
0:00:00.00 327766 N 0 0 0
0:00:00.00 327949 N 0 0 0
0:00:00.00 328131 N 0 0 0
0:00:00.00 328320 N 0 0 0
0:00:00.00 328522 N 0 0 0
0:00:00.00 328682 N 0 0 0
0:00:00.00 328930 N 0 0 0
0:00:00.00 329132 N 0 0 0
0:00:00.00 329333 N 0 0 0
0:00:00.00 329535 N 0 0 0
0:00:00.00 329731 N 0 0 0
0:00:00.00 329924 N 0 0 0
0:00:00.00 330113 N 0 0 0
0:00:00.00 330304 N 0 0 0
0:00:00.00 330489 N 0 0 0
0:00:00.00 330678 N 0 0 0
0:00:00.00 330867 N 0 0 0
0:00:00.00 331067 N 0 0 0
0:00:00.00 331277 N 0 0 0
0:00:00.00 331495 N 0 0 0
0:00:00.00 331697 N 0 0 0
0:00:00.00 331897 N 0 0 0
0:00:00.00 332080 N 0 0 0
0:00:00.00 332266 N 0 0 0
0:00:00.00 332449 N 0 0 0
0:00:00.00 332629 N 0 0 0
0:00:00.00 332816 N 0 0 0
0:00:00.00 333005 N 0 0 0
0:00:00.00 333205 N 0 0 0
0:00:00.00 333403 N 0 0 0
0:00:00.00 333605 N 0 0 0
0:00:00.00 333799 N 0 0 0
0:00:00.00 333986 N 0 0 0
0:00:00.00 334170 N 0 0 0
0:00:00.00 334352 N 0 0 0
0:00:00.00 334532 N 0 0 0
0:00:00.00 334714 N 0 0 0
0:00:00.00 334901 N 0 0 0
0:00:00.00 335088 N 0 0 0
0:00:00.00 335277 N 0 0 0
0:00:00.00 335480 N 0 0 0
0:00:00.00 335675 N 0 0 0
0:00:00.00 335884 N 0 0 0
0:00:00.00 336091 N 0 0 0
0:00:00.00 336289 N 0 0 0
0:00:00.00 336476 N 0 0 0
0:00:00.00 336656 N 0 0 0
0:00:00.00 336838 N 0 0 0
0:00:00.00 337025 N 0 0 0
0:00:00.00 337225 N 0 0 0
0:00:00.00 337435 N 0 0 0
0:00:00.00 337640 N 0 0 0
0:00:00.00 337847 N 0 0 0
0:00:00.00 338049 N 0 0 0
0:00:00.00 338249 N 0 0 0
0:00:00.00 338447 N 0 0 0
0:00:00.00 338632 N 0 0 0
0:00:00.00 338821 N 0 0 0
0:00:00.00 339005 N 0 0 0
0:00:00.00 339199 N 0 0 0
0:00:00.00 339386 N 0 0 0
0:00:00.00 339590 N 0 0 0
0:00:00.00 339786 N 0 0 0
0:00:00.00 339989 N 0 0 0
0:00:00.00 340195 N 0 0 0
0:00:00.00 340403 N 0 0 0
0:00:00.00 340596 N 0 0 0
0:00:00.00 340789 N 0 0 0
0:00:00.00 340970 N 0 0 0
0:00:00.00 341154 N 0 0 0
0:00:00.00 341339 N 0 0 0
0:00:00.00 341521 N 0 0 0
0:00:00.00 341717 N 0 0 0
0:00:00.00 341919 N 0 0 0
0:00:00.00 342130 N 0 0 0
0:00:00.00 342331 N 0 0 0
0:00:00.00 342527 N 0 0 0
0:00:00.00 342713 N 0 0 0
0:00:00.00 342895 N 0 0 0
0:00:00.00 343076 N 0 0 0
0:00:00.00 343265 N 0 0 0
0:00:00.00 343451 N 0 0 0
0:00:00.00 343642 N 0 0 0
0:00:00.00 343831 N 0 0 0
0:00:00.00 344023 N 0 0 0
0:00:00.00 344219 N 0 0 0
0:00:00.00 344421 N 0 0 0
0:00:00.00 344614 N 0 0 0
0:00:00.00 344810 N 0 0 0
0:00:00.00 344993 N 0 0 0
0:00:00.00 345179 N 0 0 0
0:00:00.00 345353 N 0 0 0
0:00:00.00 345537 N 0 0 0
0:00:00.00 345713 N 0 0 0
0:00:00.00 345899 N 0 0 0
0:00:00.00 346095 N 0 0 0
0:00:00.00 346307 N 0 0 0
0:00:00.00 346514 N 0 0 0
0:00:00.00 346657 N 0 0 0
0:00:00.00 346912 N 0 0 0
0:00:00.00 347098 N 0 0 0
0:00:00.00 347279 N 0 0 0
0:00:00.00 347463 N 0 0 0
0:00:00.00 347639 N 0 0 0
0:00:00.00 347821 N 0 0 0
0:00:00.00 348005 N 0 0 0
0:00:00.00 348203 N 0 0 0
0:00:00.00 348392 N 0 0 0
0:00:00.00 348592 N 0 0 0
0:00:00.00 348784 N 0 0 0
0:00:00.00 348980 N 0 0 0
0:00:00.00 349178 N 0 0 0
0:00:00.00 349364 N 0 0 0
0:00:00.00 349538 N 0 0 0
0:00:00.00 349688 N 0 0 0
0:00:00.00 349888 N 0 0 0
0:00:00.00 350069 N 0 0 0
0:00:00.00 350253 N 0 0 0
0:00:00.00 350437 N 0 0 0
0:00:00.00 350629 N 0 0 0
0:00:00.00 350829 N 0 0 0
0:00:00.00 351036 N 0 0 0
0:00:00.00 351236 N 0 0 0
0:00:00.00 351421 N 0 0 0
0:00:00.00 351598 N 0 0 0
0:00:00.00 351774 N 0 0 0
0:00:00.00 351956 N 0 0 0
0:00:00.00 352145 N 0 0 0
0:00:00.00 352294 N 0 0 0
0:00:00.00 352526 N 0 0 0
0:00:00.00 352726 N 0 0 0
0:00:00.00 352922 N 0 0 0
0:00:00.00 353117 N 0 0 0
0:00:00.00 353317 N 0 0 0
0:00:00.00 353502 N 0 0 0
0:00:00.00 353693 N 0 0 0
0:00:00.00 353873 N 0 0 0
0:00:00.00 354055 N 0 0 0
0:00:00.00 354233 N 0 0 0
0:00:00.00 354420 N 0 0 0
0:00:00.00 354605 N 0 0 0
0:00:00.00 354798 N 0 0 0
0:00:00.00 354996 N 0 0 0
0:00:00.00 355151 N 0 0 0
0:00:00.00 355424 N 0 0 0
0:00:00.00 355624 N 0 0 0
0:00:00.00 355806 N 0 0 0
0:00:00.00 355988 N 0 0 0
0:00:00.00 356170 N 0 0 0
0:00:00.00 356350 N 0 0 0
0:00:00.00 356539 N 0 0 0
0:00:00.00 356731 N 0 0 0
0:00:00.00 356938 N 0 0 0
0:00:00.00 357145 N 0 0 0
0:00:00.00 357349 N 0 0 0
0:00:00.00 357548 N 0 0 0
0:00:00.00 357741 N 0 0 0
0:00:00.00 357878 N 0 0 0
0:00:00.00 358123 N 0 0 0
0:00:00.00 358301 N 0 0 0
0:00:00.00 358490 N 0 0 0
0:00:00.00 358670 N 0 0 0
0:00:00.00 358859 N 0 0 0
0:00:00.00 359051 N 0 0 0
0:00:00.00 359257 N 0 0 0
0:00:00.00 359456 N 0 0 0
0:00:00.00 359665 N 0 0 0
0:00:00.00 359872 N 0 0 0
0:00:00.00 360063 N 0 0 0
0:00:00.00 360243 N 0 0 0
0:00:00.00 360419 N 0 0 0
0:00:00.00 360599 N 0 0 0
0:00:00.00 360790 N 0 0 0
0:00:00.00 360992 N 0 0 0
0:00:00.00 361197 N 0 0 0
0:00:00.00 361408 N 0 0 0
0:00:00.00 361616 N 0 0 0
0:00:00.00 361816 N 0 0 0
0:00:00.00 362011 N 0 0 0
0:00:00.00 362205 N 0 0 0
0:00:00.00 362387 N 0 0 0
0:00:00.00 362574 N 0 0 0
0:00:00.00 362758 N 0 0 0
0:00:00.00 362943 N 0 0 0
0:00:00.00 363128 N 0 0 0
0:00:00.00 363323 N 0 0 0
0:00:00.00 363519 N 0 0 0
0:00:00.00 363722 N 0 0 0
0:00:00.00 363931 N 0 0 0
0:00:00.00 364135 N 0 0 0
0:00:00.00 364444 N 0 0 0
0:00:00.00 364685 N 0 0 0
0:00:00.00 364864 N 0 0 0
0:00:00.00 365042 N 0 0 0
0:00:00.00 365233 N 0 0 0
0:00:00.00 365425 N 0 0 0
0:00:00.00 365623 N 0 0 0
0:00:00.00 365843 N 0 0 0
0:00:00.00 366048 N 0 0 0
0:00:00.00 366253 N 0 0 0
0:00:00.00 366439 N 0 0 0
0:00:00.00 366622 N 0 0 0
0:00:00.00 366772 N 0 0 0
0:00:00.00 366997 N 0 0 0
0:00:00.00 367178 N 0 0 0
0:00:00.00 367371 N 0 0 0
0:00:00.00 367556 N 0 0 0
0:00:00.00 367753 N 0 0 0
0:00:00.00 367952 N 0 0 0
0:00:00.00 368152 N 0 0 0
0:00:00.00 368361 N 0 0 0
0:00:00.00 368559 N 0 0 0
0:00:00.00 368752 N 0 0 0
0:00:00.00 368932 N 0 0 0
0:00:00.00 369115 N 0 0 0
0:00:00.00 369297 N 0 0 0
0:00:00.00 369482 N 0 0 0
0:00:00.00 369680 N 0 0 0
0:00:00.00 369886 N 0 0 0
0:00:00.00 370087 N 0 0 0
0:00:00.00 370298 N 0 0 0
0:00:00.00 370498 N 0 0 0
0:00:00.00 370696 N 0 0 0
0:00:00.00 370883 N 0 0 0
0:00:00.00 371068 N 0 0 0
0:00:00.00 371252 N 0 0 0
0:00:00.00 371441 N 0 0 0
0:00:00.00 371637 N 0 0 0
0:00:00.00 371822 N 0 0 0
0:00:00.00 372020 N 0 0 0
0:00:00.00 372217 N 0 0 0
0:00:00.00 372409 N 0 0 0
0:00:00.00 372623 N 0 0 0
0:00:00.00 372773 N 0 0 0
0:00:00.00 373021 N 0 0 0
0:00:00.00 373208 N 0 0 0
0:00:00.00 373388 N 0 0 0
0:00:00.00 373565 N 0 0 0
0:00:00.00 373741 N 0 0 0
0:00:00.00 373930 N 0 0 0
0:00:00.00 374119 N 0 0 0
0:00:00.00 374323 N 0 0 0
0:00:00.00 374531 N 0 0 0
0:00:00.00 374731 N 0 0 0
0:00:00.00 374929 N 0 0 0
0:00:00.00 375120 N 0 0 0
0:00:00.00 375304 N 0 0 0
0:00:00.00 375489 N 0 0 0
0:00:00.00 375682 N 0 0 0
0:00:00.00 375871 N 0 0 0
0:00:00.00 376065 N 0 0 0
0:00:00.00 376261 N 0 0 0
0:00:00.00 376456 N 0 0 0
0:00:00.00 376655 N 0 0 0
0:00:00.00 376861 N 0 0 0
0:00:00.00 377050 N 0 0 0
0:00:00.00 377248 N 0 0 0
0:00:00.00 377438 N 0 0 0
0:00:00.00 377627 N 0 0 0
0:00:00.00 377807 N 0 0 0
0:00:00.00 377993 N 0 0 0
0:00:00.00 378171 N 0 0 0
0:00:00.00 378367 N 0 0 0
0:00:00.00 378571 N 0 0 0
0:00:00.00 378783 N 0 0 0
0:00:00.00 378983 N 0 0 0
0:00:00.00 379193 N 0 0 0
0:00:00.00 379350 N 0 0 0
0:00:00.00 379577 N 0 0 0
0:00:00.00 379768 N 0 0 0
0:00:00.00 379949 N 0 0 0
0:00:00.00 380133 N 0 0 0
0:00:00.00 380324 N 0 0 0
0:00:00.00 380527 N 0 0 0
0:00:00.00 380729 N 0 0 0
0:00:00.00 380939 N 0 0 0
0:00:00.00 381141 N 0 0 0
0:00:00.00 381339 N 0 0 0
0:00:00.00 381542 N 0 0 0
0:00:00.00 381740 N 0 0 0
0:00:00.00 381926 N 0 0 0
0:00:00.00 382113 N 0 0 0
0:00:00.00 382291 N 0 0 0
0:00:00.00 382482 N 0 0 0
0:00:00.00 382675 N 0 0 0
0:00:00.00 382876 N 0 0 0
0:00:00.00 383078 N 0 0 0
0:00:00.00 383283 N 0 0 0
0:00:00.00 383497 N 0 0 0
0:00:00.00 383699 N 0 0 0
0:00:00.00 383893 N 0 0 0
0:00:00.00 384044 N 0 0 0
0:00:00.00 384266 N 0 0 0
0:00:00.00 384451 N 0 0 0
0:00:00.00 384653 N 0 0 0
0:00:00.00 384851 N 0 0 0
0:00:00.00 385065 N 0 0 0
0:00:00.00 385274 N 0 0 0
0:00:00.00 385479 N 0 0 0
0:00:00.00 385677 N 0 0 0
0:00:00.00 385877 N 0 0 0
0:00:00.00 386068 N 0 0 0
0:00:00.00 386257 N 0 0 0
0:00:00.00 386446 N 0 0 0
0:00:00.00 386636 N 0 0 0
0:00:00.00 386825 N 0 0 0
0:00:00.00 387023 N 0 0 0
0:00:00.00 387221 N 0 0 0
0:00:00.00 387382 N 0 0 0
0:00:00.00 387650 N 0 0 0
0:00:00.00 387862 N 0 0 0
0:00:00.00 388062 N 0 0 0
0:00:00.00 388247 N 0 0 0
0:00:00.00 388429 N 0 0 0
0:00:00.00 388611 N 0 0 0
0:00:00.00 388802 N 0 0 0
0:00:00.00 388987 N 0 0 0
0:00:00.00 389187 N 0 0 0
0:00:00.00 389383 N 0 0 0
0:00:00.00 389590 N 0 0 0
0:00:00.00 389786 N 0 0 0
0:00:00.00 389990 N 0 0 0
0:00:00.00 390179 N 0 0 0
0:00:00.00 390368 N 0 0 0
0:00:00.00 390553 N 0 0 0
0:00:00.00 390735 N 0 0 0
0:00:00.00 390924 N 0 0 0
0:00:00.00 391118 N 0 0 0
0:00:00.00 391306 N 0 0 0
0:00:00.00 391500 N 0 0 0
0:00:00.00 391707 N 0 0 0
0:00:00.00 391907 N 0 0 0
0:00:00.00 392121 N 0 0 0
0:00:00.00 392324 N 0 0 0
0:00:00.00 392521 N 0 0 0
0:00:00.00 392704 N 0 0 0
0:00:00.00 392890 N 0 0 0
0:00:00.00 393075 N 0 0 0
0:00:00.00 393266 N 0 0 0
0:00:00.00 393467 N 0 0 0
0:00:00.00 393680 N 0 0 0
0:00:00.00 393892 N 0 0 0
0:00:00.00 394106 N 0 0 0
0:00:00.00 394308 N 0 0 0
0:00:00.00 394506 N 0 0 0
0:00:00.00 394700 N 0 0 0
0:00:00.00 394882 N 0 0 0
0:00:00.00 395071 N 0 0 0
0:00:00.00 395260 N 0 0 0
0:00:00.00 395456 N 0 0 0
0:00:00.00 395647 N 0 0 0
0:00:00.00 395851 N 0 0 0
0:00:00.00 396049 N 0 0 0
0:00:00.00 396257 N 0 0 0
0:00:00.00 396470 N 0 0 0
0:00:00.00 396675 N 0 0 0
0:00:00.00 396864 N 0 0 0
0:00:00.00 397048 N 0 0 0
0:00:00.00 397224 N 0 0 0
0:00:00.00 397409 N 0 0 0
0:00:00.00 397604 N 0 0 0
0:00:00.00 397796 N 0 0 0
0:00:00.00 398003 N 0 0 0
0:00:00.00 398210 N 0 0 0
0:00:00.00 398425 N 0 0 0
0:00:00.00 398626 N 0 0 0
0:00:00.00 398828 N 0 0 0
0:00:00.00 399017 N 0 0 0
0:00:00.00 399206 N 0 0 0
0:00:00.00 399393 N 0 0 0
0:00:00.00 399587 N 0 0 0
0:00:00.00 399760 N 0 0 0
0:00:00.00 399985 N 0 0 0
0:00:00.00 400187 N 0 0 0
0:00:00.00 400394 N 0 0 0
0:00:00.00 400604 N 0 0 0
0:00:00.00 400804 N 0 0 0
0:00:00.00 401008 N 0 0 0
0:00:00.00 401200 N 0 0 0
0:00:00.00 401389 N 0 0 0
0:00:00.00 401575 N 0 0 0
0:00:00.00 401762 N 0 0 0
0:00:00.00 401944 N 0 0 0
0:00:00.00 402140 N 0 0 0
0:00:00.00 402350 N 0 0 0
0:00:00.00 402574 N 0 0 0
0:00:00.00 402790 N 0 0 0
0:00:00.00 403000 N 0 0 0
0:00:00.00 403137 N 0 0 0
0:00:00.00 403378 N 0 0 0
0:00:00.00 403564 N 0 0 0
0:00:00.00 403744 N 0 0 0
0:00:00.00 403936 N 0 0 0
0:00:00.00 404132 N 0 0 0
0:00:00.00 404334 N 0 0 0
0:00:00.00 404534 N 0 0 0
0:00:00.00 404743 N 0 0 0
0:00:00.00 404942 N 0 0 0
0:00:00.00 405148 N 0 0 0
0:00:00.00 405310 N 0 0 0
0:00:00.00 405536 N 0 0 0
0:00:00.00 405713 N 0 0 0
0:00:00.00 405893 N 0 0 0
0:00:00.00 406076 N 0 0 0
0:00:00.00 406265 N 0 0 0
0:00:00.00 406463 N 0 0 0
0:00:00.00 406656 N 0 0 0
0:00:00.00 406865 N 0 0 0
0:00:00.00 407070 N 0 0 0
0:00:00.00 407286 N 0 0 0
0:00:00.00 407480 N 0 0 0
0:00:00.00 407669 N 0 0 0
0:00:00.00 407848 N 0 0 0
0:00:00.00 408029 N 0 0 0
0:00:00.00 408220 N 0 0 0
0:00:00.00 408424 N 0 0 0
0:00:00.00 408618 N 0 0 0
0:00:00.00 408823 N 0 0 0
0:00:00.00 409018 N 0 0 0
0:00:00.00 409221 N 0 0 0
0:00:00.00 409430 N 0 0 0
0:00:00.00 409626 N 0 0 0
0:00:00.00 409819 N 0 0 0
0:00:00.00 410002 N 0 0 0
0:00:00.00 410191 N 0 0 0
0:00:00.00 410377 N 0 0 0
0:00:00.00 410571 N 0 0 0
0:00:00.00 410758 N 0 0 0
0:00:00.00 410933 N 0 0 0
0:00:00.00 411169 N 0 0 0
0:00:00.00 411385 N 0 0 0
0:00:00.00 411588 N 0 0 0
0:00:00.00 411788 N 0 0 0
0:00:00.00 411973 N 0 0 0
0:00:00.00 412159 N 0 0 0
0:00:00.00 412346 N 0 0 0
0:00:00.00 412526 N 0 0 0
0:00:00.00 412718 N 0 0 0
0:00:00.00 412911 N 0 0 0
0:00:00.00 413120 N 0 0 0
0:00:00.00 413318 N 0 0 0
0:00:00.00 413521 N 0 0 0
0:00:00.00 413721 N 0 0 0
0:00:00.00 413914 N 0 0 0
0:00:00.00 414104 N 0 0 0
0:00:00.00 414292 N 0 0 0
0:00:00.00 414472 N 0 0 0
0:00:00.00 414659 N 0 0 0
0:00:00.00 414844 N 0 0 0
0:00:00.00 415035 N 0 0 0
0:00:00.00 415229 N 0 0 0
0:00:00.00 415422 N 0 0 0
0:00:00.00 415622 N 0 0 0
0:00:00.00 415831 N 0 0 0
0:00:00.00 416038 N 0 0 0
0:00:00.00 416223 N 0 0 0
0:00:00.00 416403 N 0 0 0
0:00:00.00 416583 N 0 0 0
0:00:00.00 416763 N 0 0 0
0:00:00.00 416952 N 0 0 0
0:00:00.00 417154 N 0 0 0
0:00:00.00 417352 N 0 0 0
0:00:00.00 417559 N 0 0 0
0:00:00.00 417755 N 0 0 0
0:00:00.00 417956 N 0 0 0
0:00:00.00 418153 N 0 0 0
0:00:00.00 418347 N 0 0 0
0:00:00.00 418529 N 0 0 0
0:00:00.00 418712 N 0 0 0
0:00:00.00 418900 N 0 0 0
0:00:00.00 419089 N 0 0 0
0:00:00.00 419279 N 0 0 0
0:00:00.00 419470 N 0 0 0
0:00:00.00 419663 N 0 0 0
0:00:00.00 419870 N 0 0 0
0:00:00.00 420088 N 0 0 0
0:00:00.00 420298 N 0 0 0
0:00:00.00 420494 N 0 0 0
0:00:00.00 420676 N 0 0 0
0:00:00.00 420860 N 0 0 0
0:00:00.00 421040 N 0 0 0
0:00:00.00 421227 N 0 0 0
0:00:00.00 421409 N 0 0 0
0:00:00.00 421605 N 0 0 0
0:00:00.00 421803 N 0 0 0
0:00:00.00 422014 N 0 0 0
0:00:00.00 422212 N 0 0 0
0:00:00.00 422417 N 0 0 0
0:00:00.00 422604 N 0 0 0
0:00:00.00 422786 N 0 0 0
0:00:00.00 422969 N 0 0 0
0:00:00.00 423157 N 0 0 0
0:00:00.00 423340 N 0 0 0
0:00:00.00 423535 N 0 0 0
0:00:00.00 423722 N 0 0 0
0:00:00.00 423920 N 0 0 0
0:00:00.00 424118 N 0 0 0
0:00:00.00 424319 N 0 0 0
0:00:00.00 424521 N 0 0 0
0:00:00.00 424723 N 0 0 0
0:00:00.00 424915 N 0 0 0
0:00:00.00 425099 N 0 0 0
0:00:00.00 425282 N 0 0 0
0:00:00.00 425468 N 0 0 0
0:00:00.00 425653 N 0 0 0
0:00:00.00 425853 N 0 0 0
0:00:00.00 426064 N 0 0 0
0:00:00.00 426276 N 0 0 0
0:00:00.00 426490 N 0 0 0
0:00:00.00 426694 N 0 0 0
0:00:00.00 426893 N 0 0 0
0:00:00.00 427082 N 0 0 0
0:00:00.00 427268 N 0 0 0
0:00:00.00 427446 N 0 0 0
0:00:00.00 427635 N 0 0 0
0:00:00.00 427829 N 0 0 0
0:00:00.00 428033 N 0 0 0
0:00:00.00 428231 N 0 0 0
0:00:00.00 428436 N 0 0 0
0:00:00.00 428632 N 0 0 0
0:00:00.00 428836 N 0 0 0
0:00:00.00 428987 N 0 0 0
0:00:00.00 429239 N 0 0 0
0:00:00.00 429426 N 0 0 0
0:00:00.00 429608 N 0 0 0
0:00:00.00 429788 N 0 0 0
0:00:00.00 429971 N 0 0 0
0:00:00.00 430169 N 0 0 0
0:00:00.00 430360 N 0 0 0
0:00:00.00 430522 N 0 0 0
0:00:00.00 430765 N 0 0 0
0:00:00.00 430967 N 0 0 0
0:00:00.00 431158 N 0 0 0
0:00:00.00 431350 N 0 0 0
0:00:00.00 431530 N 0 0 0
0:00:00.00 431712 N 0 0 0
0:00:00.00 431894 N 0 0 0
0:00:00.00 432088 N 0 0 0
0:00:00.00 432277 N 0 0 0
0:00:00.00 432477 N 0 0 0
0:00:00.00 432671 N 0 0 0
0:00:00.00 432873 N 0 0 0
0:00:00.00 433071 N 0 0 0
0:00:00.00 433271 N 0 0 0
0:00:00.00 433460 N 0 0 0
0:00:00.00 433649 N 0 0 0
0:00:00.00 433840 N 0 0 0
0:00:00.00 434023 N 0 0 0
0:00:00.00 434209 N 0 0 0
0:00:00.00 434394 N 0 0 0
0:00:00.00 434587 N 0 0 0
0:00:00.00 434790 N 0 0 0
0:00:00.00 435006 N 0 0 0
0:00:00.00 435215 N 0 0 0
0:00:00.00 435377 N 0 0 0
0:00:00.00 435616 N 0 0 0
0:00:00.00 435802 N 0 0 0
0:00:00.00 435987 N 0 0 0
0:00:00.00 436172 N 0 0 0
0:00:00.00 436358 N 0 0 0
0:00:00.00 436554 N 0 0 0
0:00:00.00 436757 N 0 0 0
0:00:00.00 436964 N 0 0 0
0:00:00.00 437173 N 0 0 0
0:00:00.00 437382 N 0 0 0
0:00:00.00 437584 N 0 0 0
0:00:00.00 437783 N 0 0 0
0:00:00.00 437976 N 0 0 0
0:00:00.00 438161 N 0 0 0
0:00:00.00 438350 N 0 0 0
0:00:00.00 438541 N 0 0 0
0:00:00.00 438736 N 0 0 0
0:00:00.00 438937 N 0 0 0
0:00:00.00 439144 N 0 0 0
0:00:00.00 439301 N 0 0 0
0:00:00.00 439562 N 0 0 0
0:00:00.00 439772 N 0 0 0
0:00:00.00 439972 N 0 0 0
0:00:00.00 440158 N 0 0 0
0:00:00.00 440341 N 0 0 0
0:00:00.00 440521 N 0 0 0
0:00:00.00 440710 N 0 0 0
0:00:00.00 440910 N 0 0 0
0:00:00.00 441112 N 0 0 0
0:00:00.00 441329 N 0 0 0
0:00:00.00 441536 N 0 0 0
0:00:00.00 441740 N 0 0 0
0:00:00.00 441932 N 0 0 0
0:00:00.00 442123 N 0 0 0
0:00:00.00 442305 N 0 0 0
0:00:00.00 442492 N 0 0 0
0:00:00.00 442679 N 0 0 0
0:00:00.00 442870 N 0 0 0
0:00:00.00 443059 N 0 0 0
0:00:00.00 443189 N 0 0 0
0:00:00.00 443315 N 0 0 0
0:00:00.00 443434 N 0 0 0
0:00:00.00 443675 N 0 0 0
0:00:00.00 443898 N 0 0 0
0:00:00.00 444105 N 0 0 0
0:00:00.00 444303 N 0 0 0
0:00:00.00 444485 N 0 0 0
0:00:00.00 444672 N 0 0 0
0:00:00.00 444857 N 0 0 0
0:00:00.00 445048 N 0 0 0
0:00:00.00 445239 N 0 0 0
0:00:00.00 445442 N 0 0 0
0:00:00.00 445657 N 0 0 0
0:00:00.00 445874 N 0 0 0
0:00:00.00 446089 N 0 0 0
0:00:00.00 446290 N 0 0 0
0:00:00.00 446479 N 0 0 0
0:00:00.00 446668 N 0 0 0
0:00:00.00 446861 N 0 0 0
0:00:00.00 447052 N 0 0 0
0:00:00.00 447251 N 0 0 0
0:00:00.00 447437 N 0 0 0
0:00:00.00 447640 N 0 0 0
0:00:00.00 447844 N 0 0 0
0:00:00.00 448049 N 0 0 0
0:00:00.00 448258 N 0 0 0
0:00:00.00 448461 N 0 0 0
0:00:00.00 448661 N 0 0 0
0:00:00.00 448844 N 0 0 0
0:00:00.00 449033 N 0 0 0
0:00:00.00 449217 N 0 0 0
0:00:00.00 449411 N 0 0 0
0:00:00.00 449568 N 0 0 0
0:00:00.00 449829 N 0 0 0
0:00:00.00 450034 N 0 0 0
0:00:00.00 450254 N 0 0 0
0:00:00.00 450454 N 0 0 0
0:00:00.00 450652 N 0 0 0
0:00:00.00 450842 N 0 0 0
0:00:00.00 451021 N 0 0 0
0:00:00.00 451204 N 0 0 0
0:00:00.00 451386 N 0 0 0
0:00:00.00 451584 N 0 0 0
0:00:00.00 451771 N 0 0 0
0:00:00.00 451967 N 0 0 0
0:00:00.00 452155 N 0 0 0
0:00:00.00 452347 N 0 0 0
0:00:00.00 452486 N 0 0 0
0:00:00.00 452761 N 0 0 0
0:00:00.00 452948 N 0 0 0
0:00:00.00 453136 N 0 0 0
0:00:00.00 453308 N 0 0 0
0:00:00.00 453488 N 0 0 0
0:00:00.00 453672 N 0 0 0
0:00:00.00 453863 N 0 0 0
0:00:00.00 454059 N 0 0 0
0:00:00.00 454261 N 0 0 0
0:00:00.00 454466 N 0 0 0
0:00:00.00 454669 N 0 0 0
0:00:00.00 454873 N 0 0 0
0:00:00.00 455065 N 0 0 0
0:00:00.00 455251 N 0 0 0
0:00:00.00 455438 N 0 0 0
0:00:00.00 455627 N 0 0 0
0:00:00.00 455816 N 0 0 0
0:00:00.00 456012 N 0 0 0
0:00:00.00 456205 N 0 0 0
0:00:00.00 456410 N 0 0 0
0:00:00.00 456613 N 0 0 0
0:00:00.00 456813 N 0 0 0
0:00:00.00 457016 N 0 0 0
0:00:00.00 457216 N 0 0 0
0:00:00.00 457412 N 0 0 0
0:00:00.00 457601 N 0 0 0
0:00:00.00 457787 N 0 0 0
0:00:00.00 457943 N 0 0 0
0:00:00.00 458158 N 0 0 0
0:00:00.00 458357 N 0 0 0
0:00:00.00 458572 N 0 0 0
0:00:00.00 458782 N 0 0 0
0:00:00.00 458923 N 0 0 0
0:00:00.00 459194 N 0 0 0
0:00:00.00 459385 N 0 0 0
0:00:00.00 459571 N 0 0 0
0:00:00.00 459756 N 0 0 0
0:00:00.00 459941 N 0 0 0
0:00:00.00 460094 N 0 0 0
0:00:00.00 460325 N 0 0 0
0:00:00.00 460517 N 0 0 0
0:00:00.00 460717 N 0 0 0
0:00:00.00 460917 N 0 0 0
0:00:00.00 461115 N 0 0 0
0:00:00.00 461318 N 0 0 0
0:00:00.00 461516 N 0 0 0
0:00:00.00 461700 N 0 0 0
0:00:00.00 461880 N 0 0 0
0:00:00.00 462056 N 0 0 0
0:00:00.00 462236 N 0 0 0
0:00:00.00 462418 N 0 0 0
0:00:00.00 462609 N 0 0 0
0:00:00.00 462796 N 0 0 0
0:00:00.00 463001 N 0 0 0
0:00:00.00 463205 N 0 0 0
0:00:00.00 463419 N 0 0 0
0:00:00.00 463613 N 0 0 0
0:00:00.00 463802 N 0 0 0
0:00:00.00 463979 N 0 0 0
0:00:00.00 464162 N 0 0 0
0:00:00.00 464351 N 0 0 0
0:00:00.00 464555 N 0 0 0
0:00:00.00 464749 N 0 0 0
0:00:00.00 464962 N 0 0 0
0:00:00.00 465158 N 0 0 0
0:00:00.00 465363 N 0 0 0
0:00:00.00 465568 N 0 0 0
0:00:00.00 465768 N 0 0 0
0:00:00.00 465962 N 0 0 0
0:00:00.00 466153 N 0 0 0
0:00:00.00 466348 N 0 0 0
0:00:00.00 466533 N 0 0 0
0:00:00.00 466727 N 0 0 0
0:00:00.00 466918 N 0 0 0
0:00:00.00 467122 N 0 0 0
0:00:00.00 467334 N 0 0 0
0:00:00.00 467554 N 0 0 0
0:00:00.00 467761 N 0 0 0
0:00:00.00 467964 N 0 0 0
0:00:00.00 468146 N 0 0 0
0:00:00.00 468331 N 0 0 0
0:00:00.00 468515 N 0 0 0
0:00:00.00 468702 N 0 0 0
0:00:00.00 468895 N 0 0 0
0:00:00.00 469091 N 0 0 0
0:00:00.00 469307 N 0 0 0
0:00:00.00 469508 N 0 0 0
0:00:00.00 469660 N 0 0 0
0:00:00.00 469762 N 0 0 0
0:00:00.00 470108 N 0 0 0
0:00:00.00 470304 N 0 0 0
0:00:00.00 470498 N 0 0 0
0:00:00.00 470680 N 0 0 0
0:00:00.00 470869 N 0 0 0
0:00:00.00 471051 N 0 0 0
0:00:00.00 471238 N 0 0 0
0:00:00.00 471431 N 0 0 0
0:00:00.00 471634 N 0 0 0
0:00:00.00 471825 N 0 0 0
0:00:00.00 472028 N 0 0 0
0:00:00.00 472221 N 0 0 0
0:00:00.00 472408 N 0 0 0
0:00:00.00 472581 N 0 0 0
0:00:00.00 472761 N 0 0 0
0:00:00.00 472936 N 0 0 0
0:00:00.00 473119 N 0 0 0
0:00:00.00 473315 N 0 0 0
0:00:00.00 473522 N 0 0 0
0:00:00.00 473728 N 0 0 0
0:00:00.00 473935 N 0 0 0
0:00:00.00 474131 N 0 0 0
0:00:00.00 474331 N 0 0 0
0:00:00.00 474523 N 0 0 0
0:00:00.00 474709 N 0 0 0
0:00:00.00 474896 N 0 0 0
0:00:00.00 475079 N 0 0 0
0:00:00.00 475274 N 0 0 0
0:00:00.00 475461 N 0 0 0
0:00:00.00 475663 N 0 0 0
0:00:00.00 475859 N 0 0 0
0:00:00.00 476059 N 0 0 0
0:00:00.00 476267 N 0 0 0
0:00:00.00 476482 N 0 0 0
0:00:00.00 476678 N 0 0 0
0:00:00.00 476869 N 0 0 0
0:00:00.00 477050 N 0 0 0
0:00:00.00 477236 N 0 0 0
0:00:00.00 477423 N 0 0 0
0:00:00.00 477612 N 0 0 0
0:00:00.00 477812 N 0 0 0
0:00:00.00 478021 N 0 0 0
0:00:00.00 478240 N 0 0 0
0:00:00.00 478445 N 0 0 0
0:00:00.00 478654 N 0 0 0
0:00:00.00 478838 N 0 0 0
0:00:00.00 479025 N 0 0 0
0:00:00.00 479216 N 0 0 0
0:00:00.00 479410 N 0 0 0
0:00:00.00 479601 N 0 0 0
0:00:00.00 479799 N 0 0 0
0:00:00.00 479986 N 0 0 0
0:00:00.00 480157 N 0 0 0
0:00:00.00 480393 N 0 0 0
0:00:00.00 480596 N 0 0 0
0:00:00.00 480802 N 0 0 0
0:00:00.00 480991 N 0 0 0
0:00:00.00 481176 N 0 0 0
0:00:00.00 481352 N 0 0 0
0:00:00.00 481529 N 0 0 0
0:00:00.00 481709 N 0 0 0
0:00:00.00 481894 N 0 0 0
0:00:00.00 482051 N 0 0 0
0:00:00.00 482319 N 0 0 0
0:00:00.00 482710 N 0 0 0
0:00:00.00 482924 N 0 0 0
0:00:00.00 483116 N 0 0 0
0:00:00.00 483300 N 0 0 0
0:00:00.00 483482 N 0 0 0
0:00:00.00 483664 N 0 0 0
0:00:00.00 483844 N 0 0 0
0:00:00.00 484038 N 0 0 0
0:00:00.00 484241 N 0 0 0
0:00:00.00 484452 N 0 0 0
0:00:00.00 484659 N 0 0 0
0:00:00.00 484866 N 0 0 0
0:00:00.00 485021 N 0 0 0
0:00:00.00 485266 N 0 0 0
0:00:00.00 485460 N 0 0 0
0:00:00.00 485644 N 0 0 0
0:00:00.00 485827 N 0 0 0
0:00:00.00 486014 N 0 0 0
0:00:00.00 486209 N 0 0 0
0:00:00.00 486405 N 0 0 0
0:00:00.00 486612 N 0 0 0
0:00:00.00 486814 N 0 0 0
0:00:00.00 487026 N 0 0 0
0:00:00.00 487240 N 0 0 0
0:00:00.00 487440 N 0 0 0
0:00:00.00 487631 N 0 0 0
0:00:00.00 487813 N 0 0 0
0:00:00.00 487993 N 0 0 0
0:00:00.00 488182 N 0 0 0
0:00:00.00 488383 N 0 0 0
0:00:00.00 488587 N 0 0 0
0:00:00.00 488797 N 0 0 0
0:00:00.00 488999 N 0 0 0
0:00:00.00 489204 N 0 0 0
0:00:00.00 489402 N 0 0 0
0:00:00.00 489596 N 0 0 0
0:00:00.00 489785 N 0 0 0
0:00:00.00 489973 N 0 0 0
0:00:00.00 490158 N 0 0 0
0:00:00.00 490345 N 0 0 0
0:00:00.00 490531 N 0 0 0
0:00:00.00 490723 N 0 0 0
0:00:00.00 490918 N 0 0 0
0:00:00.00 491125 N 0 0 0
0:00:00.00 491339 N 0 0 0
0:00:00.00 491544 N 0 0 0
0:00:00.00 491740 N 0 0 0
0:00:00.00 491922 N 0 0 0
0:00:00.00 492106 N 0 0 0
0:00:00.00 492286 N 0 0 0
0:00:00.00 492473 N 0 0 0
0:00:00.00 492655 N 0 0 0
0:00:00.00 492853 N 0 0 0
0:00:00.00 493060 N 0 0 0
0:00:00.00 493268 N 0 0 0
0:00:00.00 493475 N 0 0 0
0:00:00.00 493673 N 0 0 0
0:00:00.00 493864 N 0 0 0
0:00:00.00 494055 N 0 0 0
0:00:00.00 494246 N 0 0 0
0:00:00.00 494431 N 0 0 0
0:00:00.00 494620 N 0 0 0
0:00:00.00 494804 N 0 0 0
0:00:00.00 494996 N 0 0 0
0:00:00.00 495193 N 0 0 0
0:00:00.00 495401 N 0 0 0
0:00:00.00 495599 N 0 0 0
0:00:00.00 495808 N 0 0 0
0:00:00.00 496012 N 0 0 0
0:00:00.00 496202 N 0 0 0
0:00:00.00 496386 N 0 0 0
0:00:00.00 496571 N 0 0 0
0:00:00.00 496753 N 0 0 0
0:00:00.00 496946 N 0 0 0
0:00:00.00 497146 N 0 0 0
0:00:00.00 497347 N 0 0 0
0:00:00.00 497556 N 0 0 0
0:00:00.00 497763 N 0 0 0
0:00:00.00 497970 N 0 0 0
0:00:00.00 498163 N 0 0 0
0:00:00.00 498353 N 0 0 0
0:00:00.00 498533 N 0 0 0
0:00:00.00 498721 N 0 0 0
0:00:00.00 498910 N 0 0 0
0:00:00.00 499102 N 0 0 0
0:00:00.00 499289 N 0 0 0
0:00:00.00 499484 N 0 0 0
0:00:00.00 499676 N 0 0 0
0:00:00.00 499874 N 0 0 0
0:00:00.00 500085 N 0 0 0
0:00:00.00 500294 N 0 0 0
0:00:00.00 500481 N 0 0 0
0:00:00.00 500663 N 0 0 0
0:00:00.00 500837 N 0 0 0
0:00:00.00 501017 N 0 0 0
0:00:00.00 501210 N 0 0 0
0:00:00.00 501395 N 0 0 0
0:00:00.00 501592 N 0 0 0
0:00:00.00 501791 N 0 0 0
0:00:00.00 502011 N 0 0 0
0:00:00.00 502173 N 0 0 0
0:00:00.00 502425 N 0 0 0
0:00:00.00 502612 N 0 0 0
0:00:00.00 502798 N 0 0 0
0:00:00.00 502983 N 0 0 0
0:00:00.00 503174 N 0 0 0
0:00:00.00 503363 N 0 0 0
0:00:00.00 503561 N 0 0 0
0:00:00.00 503753 N 0 0 0
0:00:00.00 503953 N 0 0 0
0:00:00.00 504151 N 0 0 0
0:00:00.00 504355 N 0 0 0
0:00:00.00 504556 N 0 0 0
0:00:00.00 504752 N 0 0 0
0:00:00.00 504943 N 0 0 0
0:00:00.00 505125 N 0 0 0
0:00:00.00 505307 N 0 0 0
0:00:00.00 505494 N 0 0 0
0:00:00.00 505681 N 0 0 0
0:00:00.00 505883 N 0 0 0
0:00:00.00 506097 N 0 0 0
0:00:00.00 506309 N 0 0 0
0:00:00.00 506524 N 0 0 0
0:00:00.00 506725 N 0 0 0
0:00:00.00 506918 N 0 0 0
0:00:00.00 507105 N 0 0 0
0:00:00.00 507294 N 0 0 0
0:00:00.00 507472 N 0 0 0
0:00:00.00 507661 N 0 0 0
0:00:00.00 507856 N 0 0 0
0:00:00.00 508061 N 0 0 0
0:00:00.00 508264 N 0 0 0
0:00:00.00 508469 N 0 0 0
0:00:00.00 508664 N 0 0 0
0:00:00.00 508864 N 0 0 0
0:00:00.00 509060 N 0 0 0
0:00:00.00 509252 N 0 0 0
0:00:00.00 509438 N 0 0 0
0:00:00.00 509589 N 0 0 0
0:00:00.00 509805 N 0 0 0
0:00:00.00 509990 N 0 0 0
0:00:00.00 510190 N 0 0 0
0:00:00.00 510320 N 0 0 0
0:00:00.00 510597 N 0 0 0
0:00:00.00 510806 N 0 0 0
0:00:00.00 511016 N 0 0 0
0:00:00.00 511209 N 0 0 0
0:00:00.00 511396 N 0 0 0
0:00:00.00 511580 N 0 0 0
0:00:00.00 511763 N 0 0 0
0:00:00.00 511952 N 0 0 0
0:00:00.00 512147 N 0 0 0
0:00:00.00 512339 N 0 0 0
0:00:00.00 512541 N 0 0 0
0:00:00.00 512734 N 0 0 0
0:00:00.00 512930 N 0 0 0
0:00:00.00 513119 N 0 0 0
0:00:00.00 513308 N 0 0 0
0:00:00.00 513490 N 0 0 0
0:00:00.00 513675 N 0 0 0
0:00:00.00 513859 N 0 0 0
0:00:00.00 514042 N 0 0 0
0:00:00.00 514228 N 0 0 0
0:00:00.00 514417 N 0 0 0
0:00:00.00 514606 N 0 0 0
0:00:00.00 514807 N 0 0 0
0:00:00.00 515023 N 0 0 0
0:00:00.00 515234 N 0 0 0
0:00:00.00 515434 N 0 0 0
0:00:00.00 515621 N 0 0 0
0:00:00.00 515804 N 0 0 0
0:00:00.00 515988 N 0 0 0
0:00:00.00 516179 N 0 0 0
0:00:00.00 516362 N 0 0 0
0:00:00.00 516560 N 0 0 0
0:00:00.00 516760 N 0 0 0
0:00:00.00 516924 N 0 0 0
0:00:00.00 517174 N 0 0 0
0:00:00.00 517379 N 0 0 0
0:00:00.00 517576 N 0 0 0
0:00:00.00 517763 N 0 0 0
0:00:00.00 517952 N 0 0 0
0:00:00.00 518139 N 0 0 0
0:00:00.00 518324 N 0 0 0
0:00:00.00 518519 N 0 0 0
0:00:00.00 518702 N 0 0 0
0:00:00.00 518895 N 0 0 0
0:00:00.00 519095 N 0 0 0
0:00:00.00 519291 N 0 0 0
0:00:00.00 519498 N 0 0 0
0:00:00.00 519698 N 0 0 0
0:00:00.00 519894 N 0 0 0
0:00:00.00 520069 N 0 0 0
0:00:00.00 520250 N 0 0 0
0:00:00.00 520425 N 0 0 0
0:00:00.00 520605 N 0 0 0
0:00:00.00 520805 N 0 0 0
0:00:00.00 521012 N 0 0 0
0:00:00.00 521212 N 0 0 0
0:00:00.00 521431 N 0 0 0
0:00:00.00 521633 N 0 0 0
0:00:00.00 521838 N 0 0 0
0:00:00.00 522032 N 0 0 0
0:00:00.00 522218 N 0 0 0
0:00:00.00 522403 N 0 0 0
0:00:00.00 522585 N 0 0 0
0:00:00.00 522783 N 0 0 0
0:00:00.00 522976 N 0 0 0
0:00:00.00 523134 N 0 0 0
0:00:00.00 523375 N 0 0 0
0:00:00.00 523577 N 0 0 0
0:00:00.00 523791 N 0 0 0
0:00:00.00 524011 N 0 0 0
0:00:00.00 524207 N 0 0 0
0:00:00.00 524398 N 0 0 0
0:00:00.00 524576 N 0 0 0
0:00:00.00 524754 N 0 0 0
0:00:00.00 524939 N 0 0 0
0:00:00.00 525130 N 0 0 0
0:00:00.00 525330 N 0 0 0
0:00:00.00 525539 N 0 0 0
0:00:00.00 525767 N 0 0 0
0:00:00.00 525976 N 0 0 0
0:00:00.00 526138 N 0 0 0
0:00:00.00 526239 N 0 0 0
0:00:00.00 526545 N 0 0 0
0:00:00.00 526709 N 0 0 0
0:00:00.00 526925 N 0 0 0
0:00:00.00 527108 N 0 0 0
0:00:00.00 527301 N 0 0 0
0:00:00.00 527485 N 0 0 0
0:00:00.00 527679 N 0 0 0
0:00:00.00 527875 N 0 0 0
0:00:00.00 528077 N 0 0 0
0:00:00.00 528268 N 0 0 0
0:00:00.00 528462 N 0 0 0
0:00:00.00 528642 N 0 0 0
0:00:00.00 528822 N 0 0 0
0:00:00.00 528997 N 0 0 0
0:00:00.00 529182 N 0 0 0
0:00:00.00 529360 N 0 0 0
0:00:00.00 529551 N 0 0 0
0:00:00.00 529753 N 0 0 0
0:00:00.00 529963 N 0 0 0
0:00:00.00 530170 N 0 0 0
0:00:00.00 530379 N 0 0 0
0:00:00.00 530570 N 0 0 0
0:00:00.00 530705 N 0 0 0
0:00:00.00 530937 N 0 0 0
0:00:00.00 531112 N 0 0 0
0:00:00.00 531299 N 0 0 0
0:00:00.00 531488 N 0 0 0
0:00:00.00 531686 N 0 0 0
0:00:00.00 531841 N 0 0 0
0:00:00.00 532080 N 0 0 0
0:00:00.00 532271 N 0 0 0
0:00:00.00 532471 N 0 0 0
0:00:00.00 532674 N 0 0 0
0:00:00.00 532868 N 0 0 0
0:00:00.00 533050 N 0 0 0
0:00:00.00 533201 N 0 0 0
0:00:00.00 533405 N 0 0 0
0:00:00.00 533585 N 0 0 0
0:00:00.00 533774 N 0 0 0
0:00:00.00 533963 N 0 0 0
0:00:00.00 534166 N 0 0 0
0:00:00.00 534364 N 0 0 0
0:00:00.00 534577 N 0 0 0
0:00:00.00 534730 N 0 0 0
0:00:00.00 534967 N 0 0 0
0:00:00.00 535147 N 0 0 0
0:00:00.00 535320 N 0 0 0
0:00:00.00 535511 N 0 0 0
0:00:00.00 535702 N 0 0 0
0:00:00.00 535887 N 0 0 0
0:00:00.00 536089 N 0 0 0
0:00:00.00 536276 N 0 0 0
0:00:00.00 536470 N 0 0 0
0:00:00.00 536665 N 0 0 0
0:00:00.00 536864 N 0 0 0
0:00:00.00 537057 N 0 0 0
0:00:00.00 537244 N 0 0 0
0:00:00.00 537426 N 0 0 0
0:00:00.00 537604 N 0 0 0
0:00:00.00 537784 N 0 0 0
0:00:00.00 537975 N 0 0 0
0:00:00.00 538160 N 0 0 0
0:00:00.00 538357 N 0 0 0
0:00:00.00 538567 N 0 0 0
0:00:00.00 538778 N 0 0 0
0:00:00.00 538990 N 0 0 0
0:00:00.00 539186 N 0 0 0
0:00:00.00 539372 N 0 0 0
0:00:00.00 539521 N 0 0 0
0:00:00.00 539739 N 0 0 0
0:00:00.00 539915 N 0 0 0
0:00:00.00 540108 N 0 0 0
0:00:00.00 540304 N 0 0 0
0:00:00.00 540508 N 0 0 0
0:00:00.00 540706 N 0 0 0
0:00:00.00 540866 N 0 0 0
0:00:00.00 540999 N 0 0 0
0:00:00.00 541298 N 0 0 0
0:00:00.00 541498 N 0 0 0
0:00:00.00 541687 N 0 0 0
0:00:00.00 541868 N 0 0 0
0:00:00.00 542054 N 0 0 0
0:00:00.00 542236 N 0 0 0
0:00:00.00 542423 N 0 0 0
0:00:00.00 542623 N 0 0 0
0:00:00.00 542815 N 0 0 0
0:00:00.00 543019 N 0 0 0
0:00:00.00 543218 N 0 0 0
0:00:00.00 543433 N 0 0 0
0:00:00.00 543623 N 0 0 0
0:00:00.00 543812 N 0 0 0
0:00:00.00 543992 N 0 0 0
0:00:00.00 544176 N 0 0 0
0:00:00.00 544361 N 0 0 0
0:00:00.00 544559 N 0 0 0
0:00:00.00 544754 N 0 0 0
0:00:00.00 544964 N 0 0 0
0:00:00.00 545161 N 0 0 0
0:00:00.00 545323 N 0 0 0
0:00:00.00 545551 N 0 0 0
0:00:00.00 545742 N 0 0 0
0:00:00.00 545924 N 0 0 0
0:00:00.00 546107 N 0 0 0
0:00:00.00 546289 N 0 0 0
0:00:00.00 546471 N 0 0 0
0:00:00.00 546653 N 0 0 0
0:00:00.00 546842 N 0 0 0
0:00:00.00 547031 N 0 0 0
0:00:00.00 547232 N 0 0 0
0:00:00.00 547384 N 0 0 0
0:00:00.00 547652 N 0 0 0
0:00:00.00 547848 N 0 0 0
0:00:00.00 548039 N 0 0 0
0:00:00.00 548219 N 0 0 0
0:00:00.00 548399 N 0 0 0
0:00:00.00 548581 N 0 0 0
0:00:00.00 548762 N 0 0 0
0:00:00.00 548957 N 0 0 0
0:00:00.00 549155 N 0 0 0
0:00:00.00 549369 N 0 0 0
0:00:00.00 549567 N 0 0 0
0:00:00.00 549772 N 0 0 0
0:00:00.00 549968 N 0 0 0
0:00:00.00 550157 N 0 0 0
0:00:00.00 550348 N 0 0 0
0:00:00.00 550539 N 0 0 0
0:00:00.00 550721 N 0 0 0
0:00:00.00 550919 N 0 0 0
0:00:00.00 551106 N 0 0 0
0:00:00.00 551306 N 0 0 0
0:00:00.00 551506 N 0 0 0
0:00:00.00 551709 N 0 0 0
0:00:00.00 551907 N 0 0 0
0:00:00.00 552109 N 0 0 0
0:00:00.00 552307 N 0 0 0
0:00:00.00 552496 N 0 0 0
0:00:00.00 552681 N 0 0 0
0:00:00.00 552859 N 0 0 0
0:00:00.00 553043 N 0 0 0
0:00:00.00 553234 N 0 0 0
0:00:00.00 553444 N 0 0 0
0:00:00.00 553653 N 0 0 0
0:00:00.00 553864 N 0 0 0
0:00:00.00 554063 N 0 0 0
0:00:00.00 554254 N 0 0 0
0:00:00.00 554440 N 0 0 0
0:00:00.00 554627 N 0 0 0
0:00:00.00 554805 N 0 0 0
0:00:00.00 554990 N 0 0 0
0:00:00.00 555172 N 0 0 0
0:00:00.00 555363 N 0 0 0
0:00:00.00 555550 N 0 0 0
0:00:00.00 555754 N 0 0 0
0:00:00.00 555946 N 0 0 0
0:00:00.00 556144 N 0 0 0
0:00:00.00 556348 N 0 0 0
0:00:00.00 556547 N 0 0 0
0:00:00.00 556729 N 0 0 0
0:00:00.00 556915 N 0 0 0
0:00:00.00 557093 N 0 0 0
0:00:00.00 557275 N 0 0 0
0:00:00.00 557460 N 0 0 0
0:00:00.00 557651 N 0 0 0
0:00:00.00 557852 N 0 0 0
0:00:00.00 558059 N 0 0 0
0:00:00.00 558272 N 0 0 0
0:00:00.00 558472 N 0 0 0
0:00:00.00 558673 N 0 0 0
0:00:00.00 558860 N 0 0 0
0:00:00.00 559046 N 0 0 0
0:00:00.00 559233 N 0 0 0
0:00:00.00 559429 N 0 0 0
0:00:00.00 559620 N 0 0 0
0:00:00.00 559822 N 0 0 0
0:00:00.00 560020 N 0 0 0
0:00:00.00 560227 N 0 0 0
0:00:00.00 560435 N 0 0 0
0:00:00.00 560637 N 0 0 0
0:00:00.00 560837 N 0 0 0
0:00:00.00 561029 N 0 0 0
0:00:00.00 561222 N 0 0 0
0:00:00.00 561406 N 0 0 0
0:00:00.00 561528 N 0 0 0
0:00:00.00 561784 N 0 0 0
0:00:00.00 561978 N 0 0 0
0:00:00.00 562187 N 0 0 0
0:00:00.00 562432 N 0 0 0
0:00:00.00 562660 N 0 0 0
0:00:00.00 562876 N 0 0 0
0:00:00.00 563069 N 0 0 0
0:00:00.00 563252 N 0 0 0
0:00:00.00 563438 N 0 0 0
0:00:00.00 563618 N 0 0 0
0:00:00.00 563809 N 0 0 0
0:00:00.00 564007 N 0 0 0
0:00:00.00 564215 N 0 0 0
0:00:00.00 564413 N 0 0 0
0:00:00.00 564620 N 0 0 0
0:00:00.00 564817 N 0 0 0
0:00:00.00 565013 N 0 0 0
0:00:00.00 565213 N 0 0 0
0:00:00.00 565402 N 0 0 0
0:00:00.00 565578 N 0 0 0
0:00:00.00 565756 N 0 0 0
0:00:00.00 565936 N 0 0 0
0:00:00.00 566127 N 0 0 0
0:00:00.00 566316 N 0 0 0
0:00:00.00 566518 N 0 0 0
0:00:00.00 566712 N 0 0 0
0:00:00.00 566863 N 0 0 0
0:00:00.00 567133 N 0 0 0
0:00:00.00 567331 N 0 0 0
0:00:00.00 567522 N 0 0 0
0:00:00.00 567704 N 0 0 0
0:00:00.00 567886 N 0 0 0
0:00:00.00 568075 N 0 0 0
0:00:00.00 568280 N 0 0 0
0:00:00.00 568478 N 0 0 0
0:00:00.00 568690 N 0 0 0
0:00:00.00 568890 N 0 0 0
0:00:00.00 569097 N 0 0 0
0:00:00.00 569300 N 0 0 0
0:00:00.00 569498 N 0 0 0
0:00:00.00 569689 N 0 0 0
0:00:00.00 569875 N 0 0 0
0:00:00.00 570065 N 0 0 0
0:00:00.00 570251 N 0 0 0
0:00:00.00 570449 N 0 0 0
0:00:00.00 570643 N 0 0 0
0:00:00.00 570843 N 0 0 0
0:00:00.00 571055 N 0 0 0
0:00:00.00 571279 N 0 0 0
0:00:00.00 571484 N 0 0 0
0:00:00.00 571685 N 0 0 0
0:00:00.00 571869 N 0 0 0
0:00:00.00 572056 N 0 0 0
0:00:00.00 572243 N 0 0 0
0:00:00.00 572425 N 0 0 0
0:00:00.00 572620 N 0 0 0
0:00:00.00 572816 N 0 0 0
0:00:00.00 572974 N 0 0 0
0:00:00.00 573120 N 0 0 0
0:00:00.00 573449 N 0 0 0
0:00:00.00 573653 N 0 0 0
0:00:00.00 573844 N 0 0 0
0:00:00.00 574034 N 0 0 0
0:00:00.00 574225 N 0 0 0
0:00:00.00 574409 N 0 0 0
0:00:00.00 574601 N 0 0 0
0:00:00.00 574787 N 0 0 0
0:00:00.00 574981 N 0 0 0
0:00:00.00 575183 N 0 0 0
0:00:00.00 575379 N 0 0 0
0:00:00.00 575588 N 0 0 0
0:00:00.00 575793 N 0 0 0
0:00:00.00 575993 N 0 0 0
0:00:00.00 576175 N 0 0 0
0:00:00.00 576356 N 0 0 0
0:00:00.00 576529 N 0 0 0
0:00:00.00 576709 N 0 0 0
0:00:00.00 576902 N 0 0 0
0:00:00.00 577100 N 0 0 0
0:00:00.00 577296 N 0 0 0
0:00:00.00 577503 N 0 0 0
0:00:00.00 577694 N 0 0 0
0:00:00.00 577897 N 0 0 0
0:00:00.00 578093 N 0 0 0
0:00:00.00 578279 N 0 0 0
0:00:00.00 578462 N 0 0 0
0:00:00.00 578644 N 0 0 0
0:00:00.00 578837 N 0 0 0
0:00:00.00 579028 N 0 0 0
0:00:00.00 579227 N 0 0 0
0:00:00.00 579386 N 0 0 0
0:00:00.00 579521 N 0 0 0
0:00:00.00 579832 N 0 0 0
0:00:00.00 580054 N 0 0 0
0:00:00.00 580257 N 0 0 0
0:00:00.00 580451 N 0 0 0
0:00:00.00 580631 N 0 0 0
0:00:00.00 580813 N 0 0 0
0:00:00.00 581002 N 0 0 0
0:00:00.00 581189 N 0 0 0
0:00:00.00 581387 N 0 0 0
0:00:00.00 581593 N 0 0 0
0:00:00.00 581814 N 0 0 0
0:00:00.00 582026 N 0 0 0
0:00:00.00 582233 N 0 0 0
0:00:00.00 582426 N 0 0 0
0:00:00.00 582615 N 0 0 0
0:00:00.00 582806 N 0 0 0
0:00:00.00 582997 N 0 0 0
0:00:00.00 583189 N 0 0 0
0:00:00.00 583387 N 0 0 0
0:00:00.00 583578 N 0 0 0
0:00:00.00 583780 N 0 0 0
0:00:00.00 583985 N 0 0 0
0:00:00.00 584190 N 0 0 0
0:00:00.00 584399 N 0 0 0
0:00:00.00 584599 N 0 0 0
0:00:00.00 584793 N 0 0 0
0:00:00.00 584926 N 0 0 0
0:00:00.00 585164 N 0 0 0
0:00:00.00 585347 N 0 0 0
0:00:00.00 585535 N 0 0 0
0:00:00.00 585731 N 0 0 0
0:00:00.00 585945 N 0 0 0
0:00:00.00 586152 N 0 0 0
0:00:00.00 586366 N 0 0 0
0:00:00.00 586508 N 0 0 0
0:00:00.00 586760 N 0 0 0
0:00:00.00 586944 N 0 0 0
0:00:00.00 587126 N 0 0 0
0:00:00.00 587304 N 0 0 0
0:00:00.00 587491 N 0 0 0
0:00:00.00 587682 N 0 0 0
0:00:00.00 587875 N 0 0 0
0:00:00.00 588019 N 0 0 0
0:00:00.00 588260 N 0 0 0
0:00:00.00 588449 N 0 0 0
0:00:00.00 588647 N 0 0 0
0:00:00.00 588850 N 0 0 0
0:00:00.00 589045 N 0 0 0
0:00:00.00 589225 N 0 0 0
0:00:00.00 589374 N 0 0 0
0:00:00.00 589581 N 0 0 0
0:00:00.00 589759 N 0 0 0
0:00:00.00 589954 N 0 0 0
0:00:00.00 590144 N 0 0 0
0:00:00.00 590344 N 0 0 0
0:00:00.00 590546 N 0 0 0
0:00:00.00 590758 N 0 0 0
0:00:00.00 590960 N 0 0 0
0:00:00.00 591158 N 0 0 0
0:00:00.00 591345 N 0 0 0
0:00:00.00 591530 N 0 0 0
0:00:00.00 591714 N 0 0 0
0:00:00.00 591914 N 0 0 0
0:00:00.00 592108 N 0 0 0
0:00:00.00 592313 N 0 0 0
0:00:00.00 592511 N 0 0 0
0:00:00.00 592718 N 0 0 0
0:00:00.00 592916 N 0 0 0
0:00:00.00 593118 N 0 0 0
0:00:00.00 593312 N 0 0 0
0:00:00.00 593505 N 0 0 0
0:00:00.00 593698 N 0 0 0
0:00:00.00 593883 N 0 0 0
0:00:00.00 594068 N 0 0 0
0:00:00.00 594256 N 0 0 0
0:00:00.00 594450 N 0 0 0
0:00:00.00 594657 N 0 0 0
0:00:00.00 594877 N 0 0 0
0:00:00.00 595089 N 0 0 0
0:00:00.00 595292 N 0 0 0
0:00:00.00 595415 N 0 0 0
0:00:00.00 595679 N 0 0 0
0:00:00.00 595793 N 0 0 0
0:00:00.00 596025 N 0 0 0
0:00:00.00 596201 N 0 0 0
0:00:00.00 596389 N 0 0 0
0:00:00.00 596583 N 0 0 0
0:00:00.00 596790 N 0 0 0
0:00:00.00 596990 N 0 0 0
0:00:00.00 597195 N 0 0 0
0:00:00.00 597384 N 0 0 0
0:00:00.00 597575 N 0 0 0
0:00:00.00 597766 N 0 0 0
0:00:00.00 597955 N 0 0 0
0:00:00.00 598138 N 0 0 0
0:00:00.00 598329 N 0 0 0
0:00:00.00 598513 N 0 0 0
0:00:00.00 598703 N 0 0 0
0:00:00.00 598907 N 0 0 0
0:00:00.00 599107 N 0 0 0
0:00:00.00 599317 N 0 0 0
0:00:00.00 599524 N 0 0 0
0:00:00.00 599733 N 0 0 0
0:00:00.00 599918 N 0 0 0
0:00:00.00 600106 N 0 0 0
0:00:00.00 600287 N 0 0 0
0:00:00.00 600476 N 0 0 0
0:00:00.00 600631 N 0 0 0
0:00:00.00 600889 N 0 0 0
0:00:00.00 601096 N 0 0 0
0:00:00.00 601315 N 0 0 0
0:00:00.00 601517 N 0 0 0
0:00:00.00 601724 N 0 0 0
0:00:00.00 601925 N 0 0 0
0:00:00.00 602111 N 0 0 0
0:00:00.00 602296 N 0 0 0
0:00:00.00 602483 N 0 0 0
0:00:00.00 602681 N 0 0 0
0:00:00.00 602874 N 0 0 0
0:00:00.00 603079 N 0 0 0
0:00:00.00 603279 N 0 0 0
0:00:00.00 603443 N 0 0 0
0:00:00.00 603700 N 0 0 0
0:00:00.00 603916 N 0 0 0
0:00:00.00 604116 N 0 0 0
0:00:00.00 604307 N 0 0 0
0:00:00.00 604487 N 0 0 0
0:00:00.00 604665 N 0 0 0
0:00:00.00 604858 N 0 0 0
0:00:00.00 605045 N 0 0 0
0:00:00.00 605254 N 0 0 0
0:00:00.00 605419 N 0 0 0
0:00:00.00 605673 N 0 0 0
0:00:00.00 605864 N 0 0 0
0:00:00.00 606065 N 0 0 0
0:00:00.00 606251 N 0 0 0
0:00:00.00 606434 N 0 0 0
0:00:00.00 606620 N 0 0 0
0:00:00.00 606798 N 0 0 0
0:00:00.00 606985 N 0 0 0
0:00:00.00 607176 N 0 0 0
0:00:00.00 607363 N 0 0 0
0:00:00.00 607561 N 0 0 0
0:00:00.00 607766 N 0 0 0
0:00:00.00 607964 N 0 0 0
0:00:00.00 608168 N 0 0 0
0:00:00.00 608366 N 0 0 0
0:00:00.00 608558 N 0 0 0
0:00:00.00 608742 N 0 0 0
0:00:00.00 608926 N 0 0 0
0:00:00.00 609104 N 0 0 0
0:00:00.00 609291 N 0 0 0
0:00:00.00 609494 N 0 0 0
0:00:00.00 609709 N 0 0 0
0:00:00.00 609916 N 0 0 0
0:00:00.00 610132 N 0 0 0
0:00:00.00 610326 N 0 0 0
0:00:00.00 610524 N 0 0 0
0:00:00.00 610713 N 0 0 0
0:00:00.00 610895 N 0 0 0
0:00:00.00 611084 N 0 0 0
0:00:00.00 611273 N 0 0 0
0:00:00.00 611474 N 0 0 0
0:00:00.00 611663 N 0 0 0
0:00:00.00 611867 N 0 0 0
0:00:00.00 612067 N 0 0 0
0:00:00.00 612272 N 0 0 0
0:00:00.00 612488 N 0 0 0
0:00:00.00 612697 N 0 0 0
0:00:00.00 612884 N 0 0 0
0:00:00.00 613069 N 0 0 0
0:00:00.00 613249 N 0 0 0
0:00:00.00 613433 N 0 0 0
0:00:00.00 613629 N 0 0 0
0:00:00.00 613818 N 0 0 0
0:00:00.00 614025 N 0 0 0
0:00:00.00 614225 N 0 0 0
0:00:00.00 614446 N 0 0 0
0:00:00.00 614650 N 0 0 0
0:00:00.00 614851 N 0 0 0
0:00:00.00 615038 N 0 0 0
0:00:00.00 615224 N 0 0 0
0:00:00.00 615409 N 0 0 0
0:00:00.00 615573 N 0 0 0
0:00:00.00 615794 N 0 0 0
0:00:00.00 615992 N 0 0 0
0:00:00.00 616189 N 0 0 0
0:00:00.00 616390 N 0 0 0
0:00:00.00 616597 N 0 0 0
0:00:00.00 616790 N 0 0 0
0:00:00.00 616988 N 0 0 0
0:00:00.00 617177 N 0 0 0
0:00:00.00 617362 N 0 0 0
0:00:00.00 617540 N 0 0 0
0:00:00.00 617720 N 0 0 0
0:00:00.00 617864 N 0 0 0
0:00:00.00 618082 N 0 0 0
0:00:00.00 618278 N 0 0 0
0:00:00.00 618511 N 0 0 0
0:00:00.00 618752 N 0 0 0
0:00:00.00 618955 N 0 0 0
0:00:00.00 619137 N 0 0 0
0:00:00.00 619321 N 0 0 0
0:00:00.00 619504 N 0 0 0
0:00:00.00 619682 N 0 0 0
0:00:00.00 619866 N 0 0 0
0:00:00.00 620051 N 0 0 0
0:00:00.00 620248 N 0 0 0
0:00:00.00 620442 N 0 0 0
0:00:00.00 620645 N 0 0 0
0:00:00.00 620847 N 0 0 0
0:00:00.00 621047 N 0 0 0
0:00:00.00 621243 N 0 0 0
0:00:00.00 621436 N 0 0 0
0:00:00.00 621619 N 0 0 0
0:00:00.00 621808 N 0 0 0
0:00:00.00 621988 N 0 0 0
0:00:00.00 622145 N 0 0 0
0:00:00.00 622364 N 0 0 0
0:00:00.00 622561 N 0 0 0
0:00:00.00 622759 N 0 0 0
0:00:00.00 622971 N 0 0 0
0:00:00.00 623187 N 0 0 0
0:00:00.00 623396 N 0 0 0
0:00:00.00 623590 N 0 0 0
0:00:00.00 623772 N 0 0 0
0:00:00.00 623952 N 0 0 0
0:00:00.00 624137 N 0 0 0
0:00:00.00 624341 N 0 0 0
0:00:00.00 624544 N 0 0 0
0:00:00.00 624755 N 0 0 0
0:00:00.00 624960 N 0 0 0
0:00:00.00 625163 N 0 0 0
0:00:00.00 625365 N 0 0 0
0:00:00.00 625572 N 0 0 0
0:00:00.00 625761 N 0 0 0
0:00:00.00 625952 N 0 0 0
0:00:00.00 626135 N 0 0 0
0:00:00.00 626321 N 0 0 0
0:00:00.00 626506 N 0 0 0
0:00:00.00 626701 N 0 0 0
0:00:00.00 626893 N 0 0 0
0:00:00.00 627093 N 0 0 0
0:00:00.00 627300 N 0 0 0
0:00:00.00 627509 N 0 0 0
0:00:00.00 627707 N 0 0 0
0:00:00.00 627896 N 0 0 0
0:00:00.00 628074 N 0 0 0
0:00:00.00 628252 N 0 0 0
0:00:00.00 628434 N 0 0 0
0:00:00.00 628609 N 0 0 0
0:00:00.00 628798 N 0 0 0
0:00:00.00 628990 N 0 0 0
0:00:00.00 629165 N 0 0 0
0:00:00.00 629399 N 0 0 0
0:00:00.00 629600 N 0 0 0
0:00:00.00 629789 N 0 0 0
0:00:00.00 629978 N 0 0 0
0:00:00.00 630167 N 0 0 0
0:00:00.00 630360 N 0 0 0
0:00:00.00 630542 N 0 0 0
0:00:00.00 630734 N 0 0 0
0:00:00.00 630913 N 0 0 0
0:00:00.00 631102 N 0 0 0
0:00:00.00 631296 N 0 0 0
0:00:00.00 631503 N 0 0 0
0:00:00.00 631699 N 0 0 0
0:00:00.00 631906 N 0 0 0
0:00:00.00 632106 N 0 0 0
0:00:00.00 632297 N 0 0 0
0:00:00.00 632482 N 0 0 0
0:00:00.00 632669 N 0 0 0
0:00:00.00 632855 N 0 0 0
0:00:00.00 633049 N 0 0 0
0:00:00.00 633253 N 0 0 0
0:00:00.00 633458 N 0 0 0
0:00:00.00 633670 N 0 0 0
0:00:00.00 633881 N 0 0 0
0:00:00.00 634039 N 0 0 0
0:00:00.00 634286 N 0 0 0
0:00:00.00 634478 N 0 0 0
0:00:00.00 634657 N 0 0 0
0:00:00.00 634846 N 0 0 0
0:00:00.00 635036 N 0 0 0
0:00:00.00 635236 N 0 0 0
0:00:00.00 635434 N 0 0 0
0:00:00.00 635636 N 0 0 0
0:00:00.00 635830 N 0 0 0
0:00:00.00 636030 N 0 0 0
0:00:00.00 636244 N 0 0 0
0:00:00.00 636453 N 0 0 0
0:00:00.00 636640 N 0 0 0
0:00:00.00 636820 N 0 0 0
0:00:00.00 636993 N 0 0 0
0:00:00.00 637168 N 0 0 0
0:00:00.00 637360 N 0 0 0
0:00:00.00 637544 N 0 0 0
0:00:00.00 637695 N 0 0 0
0:00:00.00 637940 N 0 0 0
0:00:00.00 638145 N 0 0 0
0:00:00.00 638343 N 0 0 0
0:00:00.00 638545 N 0 0 0
0:00:00.00 638728 N 0 0 0
0:00:00.00 638910 N 0 0 0
0:00:00.00 639095 N 0 0 0
0:00:00.00 639281 N 0 0 0
0:00:00.00 639466 N 0 0 0
0:00:00.00 639659 N 0 0 0
0:00:00.00 639851 N 0 0 0
0:00:00.00 640057 N 0 0 0
0:00:00.00 640262 N 0 0 0
0:00:00.00 640472 N 0 0 0
0:00:00.00 640624 N 0 0 0
0:00:00.00 640865 N 0 0 0
0:00:00.00 641050 N 0 0 0
0:00:00.00 641237 N 0 0 0
0:00:00.00 641419 N 0 0 0
0:00:00.00 641610 N 0 0 0
0:00:00.00 641795 N 0 0 0
0:00:00.00 641995 N 0 0 0
0:00:00.00 642211 N 0 0 0
0:00:00.00 642506 N 0 0 0
0:00:00.00 642724 N 0 0 0
0:00:00.00 642926 N 0 0 0
0:00:00.00 643113 N 0 0 0
0:00:00.00 643295 N 0 0 0
0:00:00.00 643482 N 0 0 0
0:00:00.00 643666 N 0 0 0
0:00:00.00 643864 N 0 0 0
0:00:00.00 644069 N 0 0 0
0:00:00.00 644243 N 0 0 0
0:00:00.00 644386 N 0 0 0
0:00:00.00 644740 N 0 0 0
0:00:00.00 644944 N 0 0 0
0:00:00.00 645142 N 0 0 0
0:00:00.00 645338 N 0 0 0
0:00:00.00 645523 N 0 0 0
0:00:00.00 645707 N 0 0 0
0:00:00.00 645896 N 0 0 0
0:00:00.00 646083 N 0 0 0
0:00:00.00 646281 N 0 0 0
0:00:00.00 646490 N 0 0 0
0:00:00.00 646688 N 0 0 0
0:00:00.00 646898 N 0 0 0
0:00:00.00 647105 N 0 0 0
0:00:00.00 647258 N 0 0 0
0:00:00.00 647494 N 0 0 0
0:00:00.00 647674 N 0 0 0
0:00:00.00 647854 N 0 0 0
0:00:00.00 648047 N 0 0 0
0:00:00.00 648252 N 0 0 0
0:00:00.00 648459 N 0 0 0
0:00:00.00 648679 N 0 0 0
0:00:00.00 648900 N 0 0 0
0:00:00.00 649109 N 0 0 0
0:00:00.00 649305 N 0 0 0
0:00:00.00 649501 N 0 0 0
0:00:00.00 649687 N 0 0 0
0:00:00.00 649876 N 0 0 0
