0:00:00.00 202 N 0 0 0
0:00:00.00 496 N 0 0 0
0:00:00.00 809 N 0 0 0
0:00:00.00 820 N 0 0 0
0:00:00.00 1127 N 0 0 0
0:00:00.00 1141 N 0 0 0
0:00:00.00 1436 N 0 0 0
0:00:00.00 1445 N 0 0 0
0:00:00.00 1738 N 0 0 0
0:00:00.00 2031 N 0 0 0
0:00:00.00 2323 N 0 0 0
0:00:00.00 2625 N 0 0 0
0:00:00.00 2924 N 0 0 0
0:00:00.00 2934 N 0 0 0
0:00:00.00 3232 N 0 0 0
0:00:00.00 3541 N 0 0 0
0:00:00.00 3554 N 0 0 0
0:00:00.00 3854 N 0 0 0
0:00:00.00 4151 N 0 0 0
0:00:00.00 4160 N 0 0 0
0:00:00.00 4442 N 0 0 0
0:00:00.00 4727 N 0 0 0
0:00:00.00 5021 N 0 0 0
0:00:00.00 5030 N 0 0 0
0:00:00.00 5333 N 0 0 0
0:00:00.00 5345 N 0 0 0
0:00:00.00 5661 N 0 0 0
0:00:00.00 5674 N 0 0 0
0:00:00.00 5965 N 0 0 0
0:00:00.00 5974 N 0 0 0
0:00:00.00 6259 N 0 0 0
0:00:00.00 6268 N 0 0 0
0:00:00.00 6547 N 0 0 0
0:00:00.00 6850 N 0 0 0
0:00:00.00 7147 N 0 0 0
0:00:00.00 7160 N 0 0 0
0:00:00.00 7458 N 0 0 0
0:00:00.00 7472 N 0 0 0
0:00:00.00 7771 N 0 0 0
0:00:00.00 7781 N 0 0 0
0:00:00.00 8076 N 0 0 0
0:00:00.00 8086 N 0 0 0
0:00:00.00 8379 N 0 0 0
0:00:00.00 8388 N 0 0 0
0:00:00.00 8671 N 0 0 0
0:00:00.00 8679 N 0 0 0
0:00:00.00 8953 N 0 0 0
0:00:00.00 8963 N 0 0 0
0:00:00.00 9252 N 0 0 0
0:00:00.00 9263 N 0 0 0
0:00:00.00 9553 N 0 0 0
0:00:00.00 9565 N 0 0 0
0:00:00.00 9879 N 0 0 0
0:00:00.00 9893 N 0 0 0
0:00:00.00 10189 N 0 0 0
0:00:00.00 10201 N 0 0 0
0:00:00.00 10498 N 0 0 0
0:00:00.00 10784 N 0 0 0
0:00:00.00 11066 N 0 0 0
0:00:00.00 11357 N 0 0 0
0:00:00.00 11667 N 0 0 0
0:00:00.00 11681 N 0 0 0
0:00:00.00 11995 N 0 0 0
0:00:00.00 12007 N 0 0 0
0:00:00.00 12299 N 0 0 0
0:00:00.00 12309 N 0 0 0
0:00:00.00 12600 N 0 0 0
0:00:00.00 12610 N 0 0 0
0:00:00.00 12894 N 0 0 0
0:00:00.00 12904 N 0 0 0
0:00:00.00 13179 N 0 0 0
0:00:00.00 13188 N 0 0 0
0:00:00.00 13479 N 0 0 0
0:00:00.00 13489 N 0 0 0
0:00:00.00 13698 N 0 0 0
0:00:00.00 14012 N 0 0 0
0:00:00.00 14024 N 0 0 0
0:00:00.00 14324 N 0 0 0
0:00:00.00 14337 N 0 0 0
0:00:00.00 14632 N 0 0 0
0:00:00.00 14644 N 0 0 0
0:00:00.00 14933 N 0 0 0
0:00:00.00 14942 N 0 0 0
0:00:00.00 15220 N 0 0 0
0:00:00.00 15228 N 0 0 0
0:00:00.00 15502 N 0 0 0
0:00:00.00 15799 N 0 0 0
0:00:00.00 15810 N 0 0 0
0:00:00.00 16120 N 0 0 0
0:00:00.00 16131 N 0 0 0
0:00:00.00 16438 N 0 0 0
0:00:00.00 16733 N 0 0 0
0:00:00.00 16743 N 0 0 0
0:00:00.00 17034 N 0 0 0
0:00:00.00 17323 N 0 0 0
0:00:00.00 17609 N 0 0 0
0:00:00.00 17620 N 0 0 0
0:00:00.00 17919 N 0 0 0
0:00:00.00 17930 N 0 0 0
0:00:00.00 18223 N 0 0 0
0:00:00.00 18235 N 0 0 0
0:00:00.00 18532 N 0 0 0
0:00:00.00 18542 N 0 0 0
0:00:00.00 18843 N 0 0 0
0:00:00.00 18855 N 0 0 0
0:00:00.00 19145 N 0 0 0
0:00:00.00 19155 N 0 0 0
0:00:00.00 19437 N 0 0 0
0:00:00.00 19446 N 0 0 0
0:00:00.00 19720 N 0 0 0
0:00:00.00 19729 N 0 0 0
0:00:00.00 20014 N 0 0 0
0:00:00.00 20320 N 0 0 0
0:00:00.00 20638 N 0 0 0
0:00:00.00 20649 N 0 0 0
0:00:00.00 20950 N 0 0 0
0:00:00.00 20962 N 0 0 0
0:00:00.00 21251 N 0 0 0
0:00:00.00 21543 N 0 0 0
0:00:00.00 21822 N 0 0 0
0:00:00.00 21831 N 0 0 0
0:00:00.00 22128 N 0 0 0
0:00:00.00 22140 N 0 0 0
0:00:00.00 22440 N 0 0 0
0:00:00.00 22759 N 0 0 0
0:00:00.00 22770 N 0 0 0
0:00:00.00 23067 N 0 0 0
0:00:00.00 23077 N 0 0 0
0:00:00.00 23373 N 0 0 0
0:00:00.00 23666 N 0 0 0
0:00:00.00 23956 N 0 0 0
0:00:00.00 23965 N 0 0 0
0:00:00.00 24256 N 0 0 0
0:00:00.00 24265 N 0 0 0
0:00:00.00 24553 N 0 0 0
0:00:00.00 24564 N 0 0 0
0:00:00.00 24861 N 0 0 0
0:00:00.00 24874 N 0 0 0
0:00:00.00 25175 N 0 0 0
0:00:00.00 25483 N 0 0 0
0:00:00.00 25781 N 0 0 0
0:00:00.00 26063 N 0 0 0
0:00:00.00 26354 N 0 0 0
0:00:00.00 26652 N 0 0 0
0:00:00.00 26662 N 0 0 0
0:00:00.00 26964 N 0 0 0
0:00:00.00 26977 N 0 0 0
0:00:00.00 27281 N 0 0 0
0:00:00.00 27587 N 0 0 0
0:00:00.00 27878 N 0 0 0
0:00:00.00 28171 N 0 0 0
0:00:00.00 28468 N 0 0 0
0:00:00.00 28765 N 0 0 0
0:00:00.00 28774 N 0 0 0
0:00:00.00 28978 N 0 0 0
0:00:00.00 29296 N 0 0 0
0:00:00.00 29540 N 0 0 0
0:00:00.00 29852 N 0 0 0
0:00:00.00 29864 N 0 0 0
0:00:00.00 30151 N 0 0 0
0:00:00.00 30437 N 0 0 0
0:00:00.00 30732 N 0 0 0
0:00:00.00 30743 N 0 0 0
0:00:00.00 31023 N 0 0 0
0:00:00.00 31245 N 0 0 0
0:00:00.00 31575 N 0 0 0
0:00:00.00 31826 N 0 0 0
0:00:00.00 32130 N 0 0 0
0:00:00.00 32366 N 0 0 0
0:00:00.00 32669 N 0 0 0
0:00:00.00 32900 N 0 0 0
0:00:00.00 33214 N 0 0 0
0:00:00.00 33535 N 0 0 0
0:00:00.00 33840 N 0 0 0
0:00:00.00 34140 N 0 0 0
0:00:00.00 34440 N 0 0 0
0:00:00.00 34729 N 0 0 0
0:00:00.00 35021 N 0 0 0
0:00:00.00 35312 N 0 0 0
0:00:00.00 35615 N 0 0 0
0:00:00.00 35925 N 0 0 0
0:00:00.00 36235 N 0 0 0
0:00:00.00 36535 N 0 0 0
0:00:00.00 36822 N 0 0 0
0:00:00.00 37105 N 0 0 0
0:00:00.00 37397 N 0 0 0
0:00:00.00 37721 N 0 0 0
0:00:00.00 38036 N 0 0 0
0:00:00.00 38336 N 0 0 0
0:00:00.00 38637 N 0 0 0
0:00:00.00 38927 N 0 0 0
0:00:00.00 39217 N 0 0 0
0:00:00.00 39521 N 0 0 0
0:00:00.00 39828 N 0 0 0
0:00:00.00 40144 N 0 0 0
0:00:00.00 40450 N 0 0 0
0:00:00.00 40703 N 0 0 0
0:00:00.00 41005 N 0 0 0
0:00:00.00 41299 N 0 0 0
0:00:00.00 41587 N 0 0 0
0:00:00.00 41894 N 0 0 0
0:00:00.00 42210 N 0 0 0
0:00:00.00 42221 N 0 0 0
0:00:00.00 42521 N 0 0 0
0:00:00.00 42830 N 0 0 0
0:00:00.00 43122 N 0 0 0
0:00:00.00 43402 N 0 0 0
0:00:00.00 43704 N 0 0 0
0:00:00.00 44026 N 0 0 0
0:00:00.00 44037 N 0 0 0
0:00:00.00 44358 N 0 0 0
0:00:00.00 44368 N 0 0 0
0:00:00.00 44666 N 0 0 0
0:00:00.00 44677 N 0 0 0
0:00:00.00 44971 N 0 0 0
0:00:00.00 44981 N 0 0 0
0:00:00.00 45261 N 0 0 0
0:00:00.00 45552 N 0 0 0
0:00:00.00 45862 N 0 0 0
0:00:00.00 45872 N 0 0 0
0:00:00.00 46175 N 0 0 0
0:00:00.00 46186 N 0 0 0
0:00:00.00 46488 N 0 0 0
0:00:00.00 46499 N 0 0 0
0:00:00.00 46803 N 0 0 0
0:00:00.00 46813 N 0 0 0
0:00:00.00 47112 N 0 0 0
0:00:00.00 47122 N 0 0 0
0:00:00.00 47409 N 0 0 0
0:00:00.00 47688 N 0 0 0
0:00:00.00 47975 N 0 0 0
0:00:00.00 47984 N 0 0 0
0:00:00.00 48274 N 0 0 0
0:00:00.00 48285 N 0 0 0
0:00:00.00 48589 N 0 0 0
0:00:00.00 48600 N 0 0 0
0:00:00.00 48909 N 0 0 0
0:00:00.00 48921 N 0 0 0
0:00:00.00 49215 N 0 0 0
0:00:00.00 49227 N 0 0 0
0:00:00.00 49507 N 0 0 0
0:00:00.00 49517 N 0 0 0
0:00:00.00 49797 N 0 0 0
0:00:00.00 50098 N 0 0 0
0:00:00.00 50401 N 0 0 0
0:00:00.00 50411 N 0 0 0
0:00:00.00 50712 N 0 0 0
0:00:00.00 50726 N 0 0 0
0:00:00.00 51023 N 0 0 0
0:00:00.00 51033 N 0 0 0
0:00:00.00 51325 N 0 0 0
0:00:00.00 51336 N 0 0 0
0:00:00.00 51629 N 0 0 0
0:00:00.00 51639 N 0 0 0
0:00:00.00 51922 N 0 0 0
0:00:00.00 51932 N 0 0 0
0:00:00.00 52209 N 0 0 0
0:00:00.00 52220 N 0 0 0
0:00:00.00 52510 N 0 0 0
0:00:00.00 52521 N 0 0 0
0:00:00.00 52550 N 0 0 0
0:00:00.00 52820 N 0 0 0
0:00:00.00 52834 N 0 0 0
0:00:00.00 53141 N 0 0 0
0:00:00.00 53150 N 0 0 0
0:00:00.00 53447 N 0 0 0
0:00:00.00 53459 N 0 0 0
0:00:00.00 53751 N 0 0 0
0:00:00.00 54037 N 0 0 0
0:00:00.00 54325 N 0 0 0
0:00:00.00 54623 N 0 0 0
0:00:00.00 54930 N 0 0 0
0:00:00.00 54945 N 0 0 0
0:00:00.00 55261 N 0 0 0
0:00:00.00 55552 N 0 0 0
0:00:00.00 55562 N 0 0 0
0:00:00.00 55865 N 0 0 0
0:00:00.00 56162 N 0 0 0
0:00:00.00 56439 N 0 0 0
0:00:00.00 56450 N 0 0 0
0:00:00.00 56745 N 0 0 0
0:00:00.00 57036 N 0 0 0
0:00:00.00 57047 N 0 0 0
0:00:00.00 57077 N 0 0 0
0:00:00.00 57351 N 0 0 0
0:00:00.00 57360 N 0 0 0
0:00:00.00 57661 N 0 0 0
0:00:00.00 57876 N 0 0 0
0:00:00.00 58172 N 0 0 0
0:00:00.00 58443 N 0 0 0
0:00:00.00 58745 N 0 0 0
0:00:00.00 59056 N 0 0 0
0:00:00.00 59365 N 0 0 0
0:00:00.00 59379 N 0 0 0
0:00:00.00 59683 N 0 0 0
0:00:00.00 59983 N 0 0 0
0:00:00.00 60281 N 0 0 0
0:00:00.00 60568 N 0 0 0
0:00:00.00 60859 N 0 0 0
0:00:00.00 61168 N 0 0 0
0:00:00.00 61178 N 0 0 0
0:00:00.00 61477 N 0 0 0
0:00:00.00 61487 N 0 0 0
0:00:00.00 61783 N 0 0 0
0:00:00.00 61793 N 0 0 0
0:00:00.00 62093 N 0 0 0
0:00:00.00 62105 N 0 0 0
0:00:00.00 62397 N 0 0 0
0:00:00.00 62406 N 0 0 0
0:00:00.00 62685 N 0 0 0
0:00:00.00 62694 N 0 0 0
0:00:00.00 62974 N 0 0 0
0:00:00.00 62984 N 0 0 0
0:00:00.00 63268 N 0 0 0
0:00:00.00 63277 N 0 0 0
0:00:00.00 63575 N 0 0 0
0:00:00.00 63586 N 0 0 0
0:00:00.00 63900 N 0 0 0
0:00:00.00 63911 N 0 0 0
0:00:00.00 64208 N 0 0 0
0:00:00.00 64217 N 0 0 0
0:00:00.00 64507 N 0 0 0
0:00:00.00 64519 N 0 0 0
0:00:00.00 64548 N 0 0 0
0:00:00.00 64796 N 0 0 0
0:00:00.00 65074 N 0 0 0
0:00:00.00 65362 N 0 0 0
0:00:00.00 65571 N 0 0 0
0:00:00.00 65910 N 0 0 0
0:00:00.00 66216 N 0 0 0
0:00:00.00 66525 N 0 0 0
0:00:00.00 66815 N 0 0 0
0:00:00.00 66844 N 0 0 0
0:00:00.00 67097 N 0 0 0
0:00:00.00 67358 N 0 0 0
0:00:00.00 67613 N 0 0 0
0:00:00.00 67807 N 0 0 0
0:00:00.00 68125 N 0 0 0
0:00:00.00 68137 N 0 0 0
0:00:00.00 68451 N 0 0 0
0:00:00.00 68755 N 0 0 0
0:00:00.00 69047 N 0 0 0
0:00:00.00 69328 N 0 0 0
0:00:00.00 69622 N 0 0 0
0:00:00.00 69905 N 0 0 0
0:00:00.00 69918 N 0 0 0
0:00:00.00 70217 N 0 0 0
0:00:00.00 70231 N 0 0 0
0:00:00.00 70532 N 0 0 0
0:00:00.00 70544 N 0 0 0
0:00:00.00 70840 N 0 0 0
0:00:00.00 70849 N 0 0 0
0:00:00.00 71138 N 0 0 0
0:00:00.00 71430 N 0 0 0
0:00:00.00 71717 N 0 0 0
0:00:00.00 71726 N 0 0 0
0:00:00.00 72017 N 0 0 0
0:00:00.00 72028 N 0 0 0
0:00:00.00 72324 N 0 0 0
0:00:00.00 72338 N 0 0 0
0:00:00.00 72633 N 0 0 0
0:00:00.00 72645 N 0 0 0
0:00:00.00 72934 N 0 0 0
0:00:00.00 72944 N 0 0 0
0:00:00.00 73238 N 0 0 0
0:00:00.00 73540 N 0 0 0
0:00:00.00 73811 N 0 0 0
0:00:00.00 74107 N 0 0 0
0:00:00.00 74394 N 0 0 0
0:00:00.00 74622 N 0 0 0
0:00:00.00 74935 N 0 0 0
0:00:00.00 74949 N 0 0 0
0:00:00.00 75241 N 0 0 0
0:00:00.00 75530 N 0 0 0
0:00:00.00 75732 N 0 0 0
0:00:00.00 76033 N 0 0 0
0:00:00.00 76333 N 0 0 0
0:00:00.00 76660 N 0 0 0
0:00:00.00 76968 N 0 0 0
0:00:00.00 77268 N 0 0 0
0:00:00.00 77567 N 0 0 0
0:00:00.00 77862 N 0 0 0
0:00:00.00 78143 N 0 0 0
0:00:00.00 78447 N 0 0 0
0:00:00.00 78743 N 0 0 0
0:00:00.00 78756 N 0 0 0
0:00:00.00 79056 N 0 0 0
0:00:00.00 79067 N 0 0 0
0:00:00.00 79378 N 0 0 0
0:00:00.00 79678 N 0 0 0
0:00:00.00 79966 N 0 0 0
0:00:00.00 80258 N 0 0 0
0:00:00.00 80551 N 0 0 0
0:00:00.00 80854 N 0 0 0
0:00:00.00 80868 N 0 0 0
0:00:00.00 81177 N 0 0 0
0:00:00.00 81191 N 0 0 0
0:00:00.00 81492 N 0 0 0
0:00:00.00 81781 N 0 0 0
0:00:00.00 81791 N 0 0 0
0:00:00.00 82086 N 0 0 0
0:00:00.00 82115 N 0 0 0
0:00:00.00 82362 N 0 0 0
0:00:00.00 82376 N 0 0 0
0:00:00.00 82675 N 0 0 0
0:00:00.00 82980 N 0 0 0
0:00:00.00 82991 N 0 0 0
0:00:00.00 83311 N 0 0 0
0:00:00.00 83340 N 0 0 0
0:00:00.00 83601 N 0 0 0
0:00:00.00 83613 N 0 0 0
0:00:00.00 83908 N 0 0 0
0:00:00.00 83918 N 0 0 0
0:00:00.00 84205 N 0 0 0
0:00:00.00 84214 N 0 0 0
0:00:00.00 84501 N 0 0 0
0:00:00.00 84512 N 0 0 0
0:00:00.00 84795 N 0 0 0
0:00:00.00 84804 N 0 0 0
0:00:00.00 84831 N 0 0 0
0:00:00.00 85099 N 0 0 0
0:00:00.00 85307 N 0 0 0
0:00:00.00 85633 N 0 0 0
0:00:00.00 85890 N 0 0 0
0:00:00.00 86195 N 0 0 0
0:00:00.00 86490 N 0 0 0
0:00:00.00 86498 N 0 0 0
0:00:00.00 86778 N 0 0 0
0:00:00.00 87087 N 0 0 0
0:00:00.00 87098 N 0 0 0
0:00:00.00 87410 N 0 0 0
0:00:00.00 87423 N 0 0 0
0:00:00.00 87725 N 0 0 0
0:00:00.00 87733 N 0 0 0
0:00:00.00 88029 N 0 0 0
0:00:00.00 88039 N 0 0 0
0:00:00.00 88331 N 0 0 0
0:00:00.00 88619 N 0 0 0
0:00:00.00 88629 N 0 0 0
0:00:00.00 88915 N 0 0 0
0:00:00.00 88923 N 0 0 0
0:00:00.00 89222 N 0 0 0
0:00:00.00 89532 N 0 0 0
0:00:00.00 89844 N 0 0 0
0:00:00.00 90146 N 0 0 0
0:00:00.00 90157 N 0 0 0
0:00:00.00 90447 N 0 0 0
0:00:00.00 90739 N 0 0 0
0:00:00.00 91024 N 0 0 0
0:00:00.00 91326 N 0 0 0
0:00:00.00 91336 N 0 0 0
0:00:00.00 91633 N 0 0 0
0:00:00.00 91647 N 0 0 0
0:00:00.00 91956 N 0 0 0
0:00:00.00 92265 N 0 0 0
0:00:00.00 92567 N 0 0 0
0:00:00.00 92852 N 0 0 0
0:00:00.00 93139 N 0 0 0
0:00:00.00 93334 N 0 0 0
0:00:00.00 93650 N 0 0 0
0:00:00.00 93892 N 0 0 0
0:00:00.00 94215 N 0 0 0
0:00:00.00 94502 N 0 0 0
0:00:00.00 94787 N 0 0 0
0:00:00.00 95070 N 0 0 0
0:00:00.00 95360 N 0 0 0
0:00:00.00 95628 N 0 0 0
0:00:00.00 95811 N 0 0 0
0:00:00.00 96139 N 0 0 0
0:00:00.00 96457 N 0 0 0
0:00:00.00 96766 N 0 0 0
0:00:00.00 97057 N 0 0 0
0:00:00.00 97339 N 0 0 0
0:00:00.00 97629 N 0 0 0
0:00:00.00 97934 N 0 0 0
0:00:00.00 98265 N 0 0 0
0:00:00.00 98578 N 0 0 0
0:00:00.00 98877 N 0 0 0
0:00:00.00 99177 N 0 0 0
0:00:00.00 99474 N 0 0 0
0:00:00.00 99768 N 0 0 0
0:00:00.00 100063 N 0 0 0
0:00:00.00 100377 N 0 0 0
0:00:00.00 100689 N 0 0 0
0:00:00.00 101004 N 0 0 0
0:00:00.00 101309 N 0 0 0
0:00:00.00 101598 N 0 0 0
0:00:00.00 101882 N 0 0 0
0:00:00.00 102180 N 0 0 0
0:00:00.00 102507 N 0 0 0
0:00:00.00 102830 N 0 0 0
0:00:00.00 103131 N 0 0 0
0:00:00.00 103427 N 0 0 0
0:00:00.00 103719 N 0 0 0
0:00:00.00 104009 N 0 0 0
0:00:00.00 104312 N 0 0 0
0:00:00.00 104629 N 0 0 0
0:00:00.00 104943 N 0 0 0
0:00:00.00 105249 N 0 0 0
0:00:00.00 105557 N 0 0 0
0:00:00.00 105769 N 0 0 0
0:00:00.00 106066 N 0 0 0
0:00:00.00 106310 N 0 0 0
0:00:00.00 106623 N 0 0 0
0:00:00.00 106864 N 0 0 0
0:00:00.00 107191 N 0 0 0
0:00:00.00 107501 N 0 0 0
0:00:00.00 107715 N 0 0 0
0:00:00.00 108026 N 0 0 0
0:00:00.00 108307 N 0 0 0
0:00:00.00 108317 N 0 0 0
0:00:00.00 108610 N 0 0 0
0:00:00.00 108625 N 0 0 0
0:00:00.00 108928 N 0 0 0
0:00:00.00 108938 N 0 0 0
0:00:00.00 109243 N 0 0 0
0:00:00.00 109252 N 0 0 0
0:00:00.00 109537 N 0 0 0
0:00:00.00 109550 N 0 0 0
0:00:00.00 109840 N 0 0 0
0:00:00.00 109850 N 0 0 0
0:00:00.00 110129 N 0 0 0
0:00:00.00 110137 N 0 0 0
0:00:00.00 110417 N 0 0 0
0:00:00.00 110427 N 0 0 0
0:00:00.00 110709 N 0 0 0
0:00:00.00 110718 N 0 0 0
0:00:00.00 111009 N 0 0 0
0:00:00.00 111019 N 0 0 0
0:00:00.00 111313 N 0 0 0
0:00:00.00 111326 N 0 0 0
0:00:00.00 111628 N 0 0 0
0:00:00.00 111639 N 0 0 0
0:00:00.00 111931 N 0 0 0
0:00:00.00 111968 N 0 0 0
0:00:00.00 112227 N 0 0 0
0:00:00.00 112510 N 0 0 0
0:00:00.00 112671 N 0 0 0
0:00:00.00 112687 N 0 0 0
0:00:00.00 112998 N 0 0 0
0:00:00.00 113258 N 0 0 0
0:00:00.00 113586 N 0 0 0
0:00:00.00 113888 N 0 0 0
0:00:00.00 114183 N 0 0 0
0:00:00.00 114470 N 0 0 0
0:00:00.00 114767 N 0 0 0
0:00:00.00 114779 N 0 0 0
0:00:00.00 115067 N 0 0 0
0:00:00.00 115375 N 0 0 0
0:00:00.00 115689 N 0 0 0
0:00:00.00 115699 N 0 0 0
0:00:00.00 115996 N 0 0 0
0:00:00.00 116010 N 0 0 0
0:00:00.00 116293 N 0 0 0
0:00:00.00 116305 N 0 0 0
0:00:00.00 116591 N 0 0 0
0:00:00.00 116600 N 0 0 0
0:00:00.00 116880 N 0 0 0
0:00:00.00 116890 N 0 0 0
0:00:00.00 117177 N 0 0 0
0:00:00.00 117189 N 0 0 0
0:00:00.00 117477 N 0 0 0
0:00:00.00 117490 N 0 0 0
0:00:00.00 117793 N 0 0 0
0:00:00.00 117807 N 0 0 0
0:00:00.00 118107 N 0 0 0
0:00:00.00 118120 N 0 0 0
0:00:00.00 118415 N 0 0 0
0:00:00.00 118425 N 0 0 0
0:00:00.00 118711 N 0 0 0
0:00:00.00 118996 N 0 0 0
0:00:00.00 119288 N 0 0 0
0:00:00.00 119596 N 0 0 0
0:00:00.00 119928 N 0 0 0
0:00:00.00 120238 N 0 0 0
0:00:00.00 120536 N 0 0 0
0:00:00.00 120565 N 0 0 0
0:00:00.00 120832 N 0 0 0
0:00:00.00 120860 N 0 0 0
0:00:00.00 121128 N 0 0 0
0:00:00.00 121155 N 0 0 0
0:00:00.00 121424 N 0 0 0
0:00:00.00 121452 N 0 0 0
0:00:00.00 121726 N 0 0 0
0:00:00.00 121754 N 0 0 0
0:00:00.00 122037 N 0 0 0
0:00:00.00 122337 N 0 0 0
0:00:00.00 122349 N 0 0 0
0:00:00.00 122643 N 0 0 0
0:00:00.00 122656 N 0 0 0
0:00:00.00 122955 N 0 0 0
0:00:00.00 122983 N 0 0 0
0:00:00.00 123240 N 0 0 0
0:00:00.00 123268 N 0 0 0
0:00:00.00 123533 N 0 0 0
0:00:00.00 123561 N 0 0 0
0:00:00.00 123831 N 0 0 0
0:00:00.00 123859 N 0 0 0
0:00:00.00 124143 N 0 0 0
0:00:00.00 124158 N 0 0 0
0:00:00.00 124484 N 0 0 0
0:00:00.00 124513 N 0 0 0
0:00:00.00 124788 N 0 0 0
0:00:00.00 124816 N 0 0 0
0:00:00.00 125080 N 0 0 0
0:00:00.00 125109 N 0 0 0
0:00:00.00 125371 N 0 0 0
0:00:00.00 125399 N 0 0 0
0:00:00.00 125643 N 0 0 0
0:00:00.00 125838 N 0 0 0
0:00:00.00 125855 N 0 0 0
0:00:00.00 125864 N 0 0 0
0:00:00.00 126195 N 0 0 0
0:00:00.00 126496 N 0 0 0
0:00:00.00 126505 N 0 0 0
0:00:00.00 126819 N 0 0 0
0:00:00.00 126848 N 0 0 0
0:00:00.00 127124 N 0 0 0
0:00:00.00 127153 N 0 0 0
0:00:00.00 127418 N 0 0 0
0:00:00.00 127446 N 0 0 0
0:00:00.00 127694 N 0 0 0
0:00:00.00 127708 N 0 0 0
0:00:00.00 127738 N 0 0 0
0:00:00.00 127990 N 0 0 0
0:00:00.00 128002 N 0 0 0
0:00:00.00 128294 N 0 0 0
0:00:00.00 128614 N 0 0 0
0:00:00.00 128926 N 0 0 0
0:00:00.00 129231 N 0 0 0
0:00:00.00 129522 N 0 0 0
0:00:00.00 129806 N 0 0 0
0:00:00.00 130094 N 0 0 0
0:00:00.00 130414 N 0 0 0
0:00:00.00 130743 N 0 0 0
0:00:00.00 131053 N 0 0 0
0:00:00.00 131357 N 0 0 0
0:00:00.00 131652 N 0 0 0
0:00:00.00 131938 N 0 0 0
0:00:00.00 132238 N 0 0 0
0:00:00.00 132251 N 0 0 0
0:00:00.00 132550 N 0 0 0
0:00:00.00 132867 N 0 0 0
0:00:00.00 133176 N 0 0 0
0:00:00.00 133187 N 0 0 0
0:00:00.00 133491 N 0 0 0
0:00:00.00 133501 N 0 0 0
0:00:00.00 133785 N 0 0 0
0:00:00.00 134074 N 0 0 0
0:00:00.00 134361 N 0 0 0
0:00:00.00 134665 N 0 0 0
0:00:00.00 134931 N 0 0 0
0:00:00.00 135262 N 0 0 0
0:00:00.00 135527 N 0 0 0
0:00:00.00 135694 N 0 0 0
0:00:00.00 135996 N 0 0 0
0:00:00.00 136280 N 0 0 0
0:00:00.00 136588 N 0 0 0
0:00:00.00 136900 N 0 0 0
0:00:00.00 136914 N 0 0 0
0:00:00.00 137228 N 0 0 0
0:00:00.00 137237 N 0 0 0
0:00:00.00 137537 N 0 0 0
0:00:00.00 137549 N 0 0 0
0:00:00.00 137844 N 0 0 0
0:00:00.00 138145 N 0 0 0
0:00:00.00 138426 N 0 0 0
0:00:00.00 138435 N 0 0 0
0:00:00.00 138721 N 0 0 0
0:00:00.00 138731 N 0 0 0
0:00:00.00 139027 N 0 0 0
0:00:00.00 139040 N 0 0 0
0:00:00.00 139349 N 0 0 0
0:00:00.00 139361 N 0 0 0
0:00:00.00 139547 N 0 0 0
0:00:00.00 139880 N 0 0 0
0:00:00.00 140183 N 0 0 0
0:00:00.00 140467 N 0 0 0
0:00:00.00 140746 N 0 0 0
0:00:00.00 140756 N 0 0 0
0:00:00.00 141045 N 0 0 0
0:00:00.00 141056 N 0 0 0
0:00:00.00 141364 N 0 0 0
0:00:00.00 141378 N 0 0 0
0:00:00.00 141727 N 0 0 0
0:00:00.00 142034 N 0 0 0
0:00:00.00 142324 N 0 0 0
0:00:00.00 142617 N 0 0 0
0:00:00.00 142922 N 0 0 0
0:00:00.00 143229 N 0 0 0
0:00:00.00 143548 N 0 0 0
0:00:00.00 143871 N 0 0 0
0:00:00.00 144172 N 0 0 0
0:00:00.00 144477 N 0 0 0
0:00:00.00 144769 N 0 0 0
0:00:00.00 145059 N 0 0 0
0:00:00.00 145353 N 0 0 0
0:00:00.00 145666 N 0 0 0
0:00:00.00 146004 N 0 0 0
0:00:00.00 146310 N 0 0 0
0:00:00.00 146605 N 0 0 0
0:00:00.00 146892 N 0 0 0
0:00:00.00 147177 N 0 0 0
0:00:00.00 147479 N 0 0 0
0:00:00.00 147688 N 0 0 0
0:00:00.00 148019 N 0 0 0
0:00:00.00 148271 N 0 0 0
0:00:00.00 148582 N 0 0 0
0:00:00.00 148592 N 0 0 0
0:00:00.00 148849 N 0 0 0
0:00:00.00 149153 N 0 0 0
0:00:00.00 149398 N 0 0 0
0:00:00.00 149571 N 0 0 0
0:00:00.00 150196 N 0 0 0
0:00:00.00 150519 N 0 0 0
0:00:00.00 150821 N 0 0 0
0:00:00.00 150831 N 0 0 0
0:00:00.00 151120 N 0 0 0
0:00:00.00 151406 N 0 0 0
0:00:00.00 151685 N 0 0 0
0:00:00.00 151695 N 0 0 0
0:00:00.00 151989 N 0 0 0
0:00:00.00 152004 N 0 0 0
0:00:00.00 152321 N 0 0 0
0:00:00.00 152335 N 0 0 0
0:00:00.00 152648 N 0 0 0
0:00:00.00 152936 N 0 0 0
0:00:00.00 152948 N 0 0 0
0:00:00.00 153234 N 0 0 0
0:00:00.00 153245 N 0 0 0
0:00:00.00 153519 N 0 0 0
0:00:00.00 153528 N 0 0 0
0:00:00.00 153809 N 0 0 0
0:00:00.00 153819 N 0 0 0
0:00:00.00 154128 N 0 0 0
0:00:00.00 154433 N 0 0 0
0:00:00.00 154446 N 0 0 0
0:00:00.00 154750 N 0 0 0
0:00:00.00 155052 N 0 0 0
0:00:00.00 155203 N 0 0 0
0:00:00.00 155665 N 0 0 0
0:00:00.00 155954 N 0 0 0
0:00:00.00 156249 N 0 0 0
0:00:00.00 156261 N 0 0 0
0:00:00.00 156559 N 0 0 0
0:00:00.00 156572 N 0 0 0
0:00:00.00 156819 N 0 0 0
0:00:00.00 157119 N 0 0 0
0:00:00.00 157428 N 0 0 0
0:00:00.00 157685 N 0 0 0
0:00:00.00 157958 N 0 0 0
0:00:00.00 158238 N 0 0 0
0:00:00.00 158555 N 0 0 0
0:00:00.00 158878 N 0 0 0
0:00:00.00 159183 N 0 0 0
0:00:00.00 159488 N 0 0 0
0:00:00.00 159716 N 0 0 0
0:00:00.00 160017 N 0 0 0
0:00:00.00 160318 N 0 0 0
0:00:00.00 160619 N 0 0 0
0:00:00.00 160933 N 0 0 0
0:00:00.00 161248 N 0 0 0
0:00:00.00 161559 N 0 0 0
0:00:00.00 161857 N 0 0 0
0:00:00.00 162093 N 0 0 0
0:00:00.00 162390 N 0 0 0
0:00:00.00 162690 N 0 0 0
0:00:00.00 163011 N 0 0 0
0:00:00.00 163334 N 0 0 0
0:00:00.00 163582 N 0 0 0
0:00:00.00 163891 N 0 0 0
0:00:00.00 164179 N 0 0 0
0:00:00.00 164479 N 0 0 0
0:00:00.00 164491 N 0 0 0
0:00:00.00 164788 N 0 0 0
0:00:00.00 164797 N 0 0 0
0:00:00.00 165038 N 0 0 0
0:00:00.00 165046 N 0 0 0
0:00:00.00 165170 N 0 0 0
0:00:00.00 165193 N 0 0 0
0:00:00.00 165514 N 0 0 0
0:00:00.00 165795 N 0 0 0
0:00:00.00 166086 N 0 0 0
0:00:00.00 166366 N 0 0 0
0:00:00.00 166665 N 0 0 0
0:00:00.00 166888 N 0 0 0
0:00:00.00 167200 N 0 0 0
0:00:00.00 167210 N 0 0 0
0:00:00.00 167520 N 0 0 0
0:00:00.00 167534 N 0 0 0
0:00:00.00 167836 N 0 0 0
0:00:00.00 168141 N 0 0 0
0:00:00.00 168374 N 0 0 0
0:00:00.00 168673 N 0 0 0
0:00:00.00 168968 N 0 0 0
0:00:00.00 169274 N 0 0 0
0:00:00.00 169283 N 0 0 0
0:00:00.00 169544 N 0 0 0
0:00:00.00 169873 N 0 0 0
0:00:00.00 170176 N 0 0 0
0:00:00.00 170471 N 0 0 0
0:00:00.00 170767 N 0 0 0
0:00:00.00 171045 N 0 0 0
0:00:00.00 171357 N 0 0 0
0:00:00.00 171655 N 0 0 0
0:00:00.00 171956 N 0 0 0
0:00:00.00 172268 N 0 0 0
0:00:00.00 172573 N 0 0 0
0:00:00.00 172862 N 0 0 0
0:00:00.00 173154 N 0 0 0
0:00:00.00 173444 N 0 0 0
0:00:00.00 173757 N 0 0 0
0:00:00.00 173771 N 0 0 0
0:00:00.00 174098 N 0 0 0
0:00:00.00 174403 N 0 0 0
0:00:00.00 174413 N 0 0 0
0:00:00.00 174697 N 0 0 0
0:00:00.00 174986 N 0 0 0
0:00:00.00 175276 N 0 0 0
0:00:00.00 175579 N 0 0 0
0:00:00.00 175906 N 0 0 0
0:00:00.00 176228 N 0 0 0
0:00:00.00 176529 N 0 0 0
0:00:00.00 176838 N 0 0 0
0:00:00.00 177131 N 0 0 0
0:00:00.00 177428 N 0 0 0
0:00:00.00 177720 N 0 0 0
0:00:00.00 177933 N 0 0 0
0:00:00.00 178269 N 0 0 0
0:00:00.00 178546 N 0 0 0
0:00:00.00 178864 N 0 0 0
0:00:00.00 179154 N 0 0 0
0:00:00.00 179443 N 0 0 0
0:00:00.00 179732 N 0 0 0
0:00:00.00 179743 N 0 0 0
0:00:00.00 180049 N 0 0 0
0:00:00.00 180389 N 0 0 0
0:00:00.00 180403 N 0 0 0
0:00:00.00 180710 N 0 0 0
0:00:00.00 181015 N 0 0 0
0:00:00.00 181313 N 0 0 0
0:00:00.00 181599 N 0 0 0
0:00:00.00 181903 N 0 0 0
0:00:00.00 182215 N 0 0 0
0:00:00.00 182549 N 0 0 0
0:00:00.00 182861 N 0 0 0
0:00:00.00 183172 N 0 0 0
0:00:00.00 183464 N 0 0 0
0:00:00.00 183754 N 0 0 0
0:00:00.00 184005 N 0 0 0
0:00:00.00 184317 N 0 0 0
0:00:00.00 184640 N 0 0 0
0:00:00.00 184965 N 0 0 0
0:00:00.00 184977 N 0 0 0
0:00:00.00 185273 N 0 0 0
0:00:00.00 185576 N 0 0 0
0:00:00.00 185860 N 0 0 0
0:00:00.00 186158 N 0 0 0
0:00:00.00 186472 N 0 0 0
0:00:00.00 186802 N 0 0 0
0:00:00.00 186812 N 0 0 0
0:00:00.00 187115 N 0 0 0
0:00:00.00 187422 N 0 0 0
0:00:00.00 187717 N 0 0 0
0:00:00.00 188007 N 0 0 0
0:00:00.00 188304 N 0 0 0
0:00:00.00 188603 N 0 0 0
0:00:00.00 188908 N 0 0 0
0:00:00.00 189234 N 0 0 0
0:00:00.00 189540 N 0 0 0
0:00:00.00 189841 N 0 0 0
0:00:00.00 190126 N 0 0 0
0:00:00.00 190416 N 0 0 0
0:00:00.00 190711 N 0 0 0
0:00:00.00 191023 N 0 0 0
0:00:00.00 191034 N 0 0 0
0:00:00.00 191355 N 0 0 0
0:00:00.00 191661 N 0 0 0
0:00:00.00 191957 N 0 0 0
0:00:00.00 192250 N 0 0 0
0:00:00.00 192544 N 0 0 0
0:00:00.00 192843 N 0 0 0
0:00:00.00 192854 N 0 0 0
0:00:00.00 193142 N 0 0 0
0:00:00.00 193463 N 0 0 0
0:00:00.00 193770 N 0 0 0
0:00:00.00 194074 N 0 0 0
0:00:00.00 194374 N 0 0 0
0:00:00.00 194660 N 0 0 0
0:00:00.00 194948 N 0 0 0
0:00:00.00 195254 N 0 0 0
0:00:00.00 195585 N 0 0 0
0:00:00.00 195897 N 0 0 0
0:00:00.00 196198 N 0 0 0
0:00:00.00 196486 N 0 0 0
0:00:00.00 196777 N 0 0 0
0:00:00.00 196976 N 0 0 0
0:00:00.00 197291 N 0 0 0
0:00:00.00 197567 N 0 0 0
0:00:00.00 197883 N 0 0 0
0:00:00.00 198181 N 0 0 0
0:00:00.00 198461 N 0 0 0
0:00:00.00 198767 N 0 0 0
0:00:00.00 199060 N 0 0 0
0:00:00.00 199354 N 0 0 0
0:00:00.00 199364 N 0 0 0
0:00:00.00 199658 N 0 0 0
0:00:00.00 199975 N 0 0 0
0:00:00.00 200286 N 0 0 0
0:00:00.00 200592 N 0 0 0
0:00:00.00 200878 N 0 0 0
0:00:00.00 201166 N 0 0 0
0:00:00.00 201463 N 0 0 0
0:00:00.00 201784 N 0 0 0
0:00:00.00 202117 N 0 0 0
0:00:00.00 202416 N 0 0 0
0:00:00.00 202643 N 0 0 0
0:00:00.00 202953 N 0 0 0
0:00:00.00 203237 N 0 0 0
0:00:00.00 203247 N 0 0 0
0:00:00.00 203538 N 0 0 0
0:00:00.00 203851 N 0 0 0
0:00:00.00 204181 N 0 0 0
0:00:00.00 204192 N 0 0 0
0:00:00.00 204486 N 0 0 0
0:00:00.00 204496 N 0 0 0
0:00:00.00 204797 N 0 0 0
0:00:00.00 205094 N 0 0 0
0:00:00.00 205381 N 0 0 0
0:00:00.00 205675 N 0 0 0
0:00:00.00 205974 N 0 0 0
0:00:00.00 206285 N 0 0 0
0:00:00.00 206297 N 0 0 0
0:00:00.00 206605 N 0 0 0
0:00:00.00 206615 N 0 0 0
0:00:00.00 206916 N 0 0 0
0:00:00.00 207209 N 0 0 0
0:00:00.00 207494 N 0 0 0
0:00:00.00 207782 N 0 0 0
0:00:00.00 208098 N 0 0 0
0:00:00.00 208417 N 0 0 0
0:00:00.00 208429 N 0 0 0
0:00:00.00 208723 N 0 0 0
0:00:00.00 208733 N 0 0 0
0:00:00.00 209028 N 0 0 0
0:00:00.00 209327 N 0 0 0
0:00:00.00 209615 N 0 0 0
0:00:00.00 209912 N 0 0 0
0:00:00.00 209922 N 0 0 0
0:00:00.00 210208 N 0 0 0
0:00:00.00 210218 N 0 0 0
0:00:00.00 210517 N 0 0 0
0:00:00.00 210832 N 0 0 0
0:00:00.00 211144 N 0 0 0
0:00:00.00 211154 N 0 0 0
0:00:00.00 211443 N 0 0 0
0:00:00.00 211741 N 0 0 0
0:00:00.00 212024 N 0 0 0
0:00:00.00 212321 N 0 0 0
0:00:00.00 212628 N 0 0 0
0:00:00.00 212641 N 0 0 0
0:00:00.00 212947 N 0 0 0
0:00:00.00 212959 N 0 0 0
0:00:00.00 213256 N 0 0 0
0:00:00.00 213558 N 0 0 0
0:00:00.00 213843 N 0 0 0
0:00:00.00 214139 N 0 0 0
0:00:00.00 214152 N 0 0 0
0:00:00.00 214437 N 0 0 0
0:00:00.00 214612 N 0 0 0
0:00:00.00 214937 N 0 0 0
0:00:00.00 214953 N 0 0 0
0:00:00.00 215250 N 0 0 0
0:00:00.00 215552 N 0 0 0
0:00:00.00 215792 N 0 0 0
0:00:00.00 216098 N 0 0 0
0:00:00.00 216388 N 0 0 0
0:00:00.00 216686 N 0 0 0
0:00:00.00 216992 N 0 0 0
0:00:00.00 217010 N 0 0 0
0:00:00.00 217325 N 0 0 0
0:00:00.00 217337 N 0 0 0
0:00:00.00 217631 N 0 0 0
0:00:00.00 217642 N 0 0 0
0:00:00.00 217930 N 0 0 0
0:00:00.00 218213 N 0 0 0
0:00:00.00 218508 N 0 0 0
0:00:00.00 218808 N 0 0 0
0:00:00.00 218818 N 0 0 0
0:00:00.00 219123 N 0 0 0
0:00:00.00 219138 N 0 0 0
0:00:00.00 219450 N 0 0 0
0:00:00.00 219461 N 0 0 0
0:00:00.00 219752 N 0 0 0
0:00:00.00 220047 N 0 0 0
0:00:00.00 220348 N 0 0 0
0:00:00.00 220643 N 0 0 0
0:00:00.00 220943 N 0 0 0
0:00:00.00 220954 N 0 0 0
0:00:00.00 221256 N 0 0 0
0:00:00.00 221586 N 0 0 0
0:00:00.00 221597 N 0 0 0
0:00:00.00 221891 N 0 0 0
0:00:00.00 222195 N 0 0 0
0:00:00.00 222484 N 0 0 0
0:00:00.00 222772 N 0 0 0
0:00:00.00 222782 N 0 0 0
0:00:00.00 223069 N 0 0 0
0:00:00.00 223388 N 0 0 0
0:00:00.00 223402 N 0 0 0
0:00:00.00 223747 N 0 0 0
0:00:00.00 223757 N 0 0 0
0:00:00.00 224056 N 0 0 0
0:00:00.00 224351 N 0 0 0
0:00:00.00 224641 N 0 0 0
0:00:00.00 224650 N 0 0 0
0:00:00.00 224926 N 0 0 0
0:00:00.00 225228 N 0 0 0
0:00:00.00 225240 N 0 0 0
0:00:00.00 225550 N 0 0 0
0:00:00.00 225562 N 0 0 0
0:00:00.00 225875 N 0 0 0
0:00:00.00 225887 N 0 0 0
0:00:00.00 226176 N 0 0 0
0:00:00.00 226186 N 0 0 0
0:00:00.00 226485 N 0 0 0
0:00:00.00 226496 N 0 0 0
0:00:00.00 226779 N 0 0 0
0:00:00.00 227068 N 0 0 0
0:00:00.00 227363 N 0 0 0
0:00:00.00 227666 N 0 0 0
0:00:00.00 227679 N 0 0 0
0:00:00.00 227977 N 0 0 0
0:00:00.00 228293 N 0 0 0
0:00:00.00 228599 N 0 0 0
0:00:00.00 228890 N 0 0 0
0:00:00.00 228899 N 0 0 0
0:00:00.00 229173 N 0 0 0
0:00:00.00 229473 N 0 0 0
0:00:00.00 229486 N 0 0 0
0:00:00.00 229791 N 0 0 0
0:00:00.00 229804 N 0 0 0
0:00:00.00 230124 N 0 0 0
0:00:00.00 230135 N 0 0 0
0:00:00.00 230426 N 0 0 0
0:00:00.00 230728 N 0 0 0
0:00:00.00 231021 N 0 0 0
0:00:00.00 231307 N 0 0 0
0:00:00.00 231609 N 0 0 0
0:00:00.00 231913 N 0 0 0
0:00:00.00 231924 N 0 0 0
0:00:00.00 232217 N 0 0 0
0:00:00.00 232226 N 0 0 0
0:00:00.00 232531 N 0 0 0
0:00:00.00 232542 N 0 0 0
0:00:00.00 232840 N 0 0 0
0:00:00.00 233133 N 0 0 0
0:00:00.00 233416 N 0 0 0
0:00:00.00 233425 N 0 0 0
0:00:00.00 233703 N 0 0 0
0:00:00.00 233715 N 0 0 0
0:00:00.00 234001 N 0 0 0
0:00:00.00 234011 N 0 0 0
0:00:00.00 234319 N 0 0 0
0:00:00.00 234333 N 0 0 0
0:00:00.00 234643 N 0 0 0
0:00:00.00 234653 N 0 0 0
0:00:00.00 234944 N 0 0 0
0:00:00.00 234956 N 0 0 0
0:00:00.00 235241 N 0 0 0
0:00:00.00 235250 N 0 0 0
0:00:00.00 235527 N 0 0 0
0:00:00.00 235827 N 0 0 0
0:00:00.00 236131 N 0 0 0
0:00:00.00 236144 N 0 0 0
0:00:00.00 236438 N 0 0 0
0:00:00.00 236450 N 0 0 0
0:00:00.00 236753 N 0 0 0
0:00:00.00 236763 N 0 0 0
0:00:00.00 237054 N 0 0 0
0:00:00.00 237350 N 0 0 0
0:00:00.00 237360 N 0 0 0
0:00:00.00 237645 N 0 0 0
0:00:00.00 237655 N 0 0 0
0:00:00.00 237939 N 0 0 0
0:00:00.00 237949 N 0 0 0
0:00:00.00 238236 N 0 0 0
0:00:00.00 238247 N 0 0 0
0:00:00.00 238541 N 0 0 0
0:00:00.00 238554 N 0 0 0
0:00:00.00 238872 N 0 0 0
0:00:00.00 238884 N 0 0 0
0:00:00.00 239175 N 0 0 0
0:00:00.00 239185 N 0 0 0
0:00:00.00 239474 N 0 0 0
0:00:00.00 239485 N 0 0 0
0:00:00.00 239761 N 0 0 0
0:00:00.00 240051 N 0 0 0
0:00:00.00 240344 N 0 0 0
0:00:00.00 240355 N 0 0 0
0:00:00.00 240656 N 0 0 0
0:00:00.00 240671 N 0 0 0
0:00:00.00 240982 N 0 0 0
0:00:00.00 240995 N 0 0 0
0:00:00.00 241291 N 0 0 0
0:00:00.00 241588 N 0 0 0
0:00:00.00 241884 N 0 0 0
0:00:00.00 242181 N 0 0 0
0:00:00.00 242483 N 0 0 0
0:00:00.00 242787 N 0 0 0
0:00:00.00 242798 N 0 0 0
0:00:00.00 243107 N 0 0 0
0:00:00.00 243121 N 0 0 0
0:00:00.00 243412 N 0 0 0
0:00:00.00 243423 N 0 0 0
0:00:00.00 243716 N 0 0 0
0:00:00.00 243729 N 0 0 0
0:00:00.00 244024 N 0 0 0
0:00:00.00 244296 N 0 0 0
0:00:00.00 244308 N 0 0 0
0:00:00.00 244588 N 0 0 0
0:00:00.00 244597 N 0 0 0
0:00:00.00 244893 N 0 0 0
0:00:00.00 244906 N 0 0 0
0:00:00.00 245219 N 0 0 0
0:00:00.00 245233 N 0 0 0
0:00:00.00 245533 N 0 0 0
0:00:00.00 245543 N 0 0 0
0:00:00.00 245830 N 0 0 0
0:00:00.00 246121 N 0 0 0
0:00:00.00 246409 N 0 0 0
0:00:00.00 246705 N 0 0 0
0:00:00.00 247012 N 0 0 0
0:00:00.00 247026 N 0 0 0
0:00:00.00 247327 N 0 0 0
0:00:00.00 247342 N 0 0 0
0:00:00.00 247638 N 0 0 0
0:00:00.00 247648 N 0 0 0
0:00:00.00 247938 N 0 0 0
0:00:00.00 248240 N 0 0 0
0:00:00.00 248528 N 0 0 0
0:00:00.00 248821 N 0 0 0
0:00:00.00 249119 N 0 0 0
0:00:00.00 249431 N 0 0 0
0:00:00.00 249441 N 0 0 0
0:00:00.00 249739 N 0 0 0
0:00:00.00 250051 N 0 0 0
0:00:00.00 250062 N 0 0 0
0:00:00.00 250349 N 0 0 0
0:00:00.00 250638 N 0 0 0
0:00:00.00 250857 N 0 0 0
0:00:00.00 251163 N 0 0 0
0:00:00.00 251488 N 0 0 0
0:00:00.00 251811 N 0 0 0
0:00:00.00 251828 N 0 0 0
0:00:00.00 252100 N 0 0 0
0:00:00.00 252290 N 0 0 0
0:00:00.00 252749 N 0 0 0
0:00:00.00 252761 N 0 0 0
0:00:00.00 253038 N 0 0 0
0:00:00.00 253050 N 0 0 0
0:00:00.00 253332 N 0 0 0
0:00:00.00 253529 N 0 0 0
0:00:00.00 253852 N 0 0 0
0:00:00.00 254099 N 0 0 0
0:00:00.00 254422 N 0 0 0
0:00:00.00 254664 N 0 0 0
0:00:00.00 254965 N 0 0 0
0:00:00.00 255256 N 0 0 0
0:00:00.00 255780 N 0 0 0
0:00:00.00 255792 N 0 0 0
0:00:00.00 256106 N 0 0 0
0:00:00.00 256120 N 0 0 0
0:00:00.00 256416 N 0 0 0
0:00:00.00 256427 N 0 0 0
0:00:00.00 256715 N 0 0 0
0:00:00.00 257004 N 0 0 0
0:00:00.00 257291 N 0 0 0
0:00:00.00 257301 N 0 0 0
0:00:00.00 257603 N 0 0 0
0:00:00.00 257914 N 0 0 0
0:00:00.00 258228 N 0 0 0
0:00:00.00 258539 N 0 0 0
0:00:00.00 258842 N 0 0 0
0:00:00.00 259135 N 0 0 0
0:00:00.00 259391 N 0 0 0
0:00:00.00 259704 N 0 0 0
0:00:00.00 259715 N 0 0 0
0:00:00.00 260008 N 0 0 0
0:00:00.00 260321 N 0 0 0
0:00:00.00 260643 N 0 0 0
0:00:00.00 260890 N 0 0 0
0:00:00.00 261199 N 0 0 0
0:00:00.00 261483 N 0 0 0
0:00:00.00 261765 N 0 0 0
0:00:00.00 262075 N 0 0 0
0:00:00.00 262089 N 0 0 0
0:00:00.00 262404 N 0 0 0
0:00:00.00 262419 N 0 0 0
0:00:00.00 262749 N 0 0 0
0:00:00.00 263056 N 0 0 0
0:00:00.00 263302 N 0 0 0
0:00:00.00 263605 N 0 0 0
0:00:00.00 263913 N 0 0 0
0:00:00.00 263925 N 0 0 0
0:00:00.00 264222 N 0 0 0
0:00:00.00 264233 N 0 0 0
0:00:00.00 264534 N 0 0 0
0:00:00.00 264545 N 0 0 0
0:00:00.00 264853 N 0 0 0
0:00:00.00 264864 N 0 0 0
0:00:00.00 265096 N 0 0 0
0:00:00.00 265409 N 0 0 0
0:00:00.00 265419 N 0 0 0
0:00:00.00 265706 N 0 0 0
0:00:00.00 265995 N 0 0 0
0:00:00.00 266004 N 0 0 0
0:00:00.00 266286 N 0 0 0
0:00:00.00 266295 N 0 0 0
0:00:00.00 266599 N 0 0 0
0:00:00.00 266611 N 0 0 0
0:00:00.00 266871 N 0 0 0
0:00:00.00 267186 N 0 0 0
0:00:00.00 267479 N 0 0 0
0:00:00.00 267778 N 0 0 0
0:00:00.00 268064 N 0 0 0
0:00:00.00 268233 N 0 0 0
0:00:00.00 268529 N 0 0 0
0:00:00.00 268542 N 0 0 0
0:00:00.00 268854 N 0 0 0
0:00:00.00 268864 N 0 0 0
0:00:00.00 269174 N 0 0 0
0:00:00.00 269185 N 0 0 0
0:00:00.00 269472 N 0 0 0
0:00:00.00 269717 N 0 0 0
0:00:00.00 270025 N 0 0 0
0:00:00.00 270273 N 0 0 0
0:00:00.00 270576 N 0 0 0
0:00:00.00 270824 N 0 0 0
0:00:00.00 271154 N 0 0 0
0:00:00.00 271408 N 0 0 0
0:00:00.00 271728 N 0 0 0
0:00:00.00 272023 N 0 0 0
0:00:00.00 272306 N 0 0 0
0:00:00.00 272598 N 0 0 0
0:00:00.00 272608 N 0 0 0
0:00:00.00 272908 N 0 0 0
0:00:00.00 272922 N 0 0 0
0:00:00.00 273231 N 0 0 0
0:00:00.00 273244 N 0 0 0
0:00:00.00 273550 N 0 0 0
0:00:00.00 273560 N 0 0 0
0:00:00.00 273849 N 0 0 0
0:00:00.00 274146 N 0 0 0
0:00:00.00 274386 N 0 0 0
0:00:00.00 274690 N 0 0 0
0:00:00.00 274991 N 0 0 0
0:00:00.00 275314 N 0 0 0
0:00:00.00 275325 N 0 0 0
0:00:00.00 275620 N 0 0 0
0:00:00.00 275931 N 0 0 0
0:00:00.00 275943 N 0 0 0
0:00:00.00 276243 N 0 0 0
0:00:00.00 276528 N 0 0 0
0:00:00.00 276818 N 0 0 0
0:00:00.00 276846 N 0 0 0
0:00:00.00 277104 N 0 0 0
0:00:00.00 277117 N 0 0 0
0:00:00.00 277406 N 0 0 0
0:00:00.00 277417 N 0 0 0
0:00:00.00 277674 N 0 0 0
0:00:00.00 278000 N 0 0 0
0:00:00.00 278296 N 0 0 0
0:00:00.00 278587 N 0 0 0
0:00:00.00 278874 N 0 0 0
0:00:00.00 279181 N 0 0 0
0:00:00.00 279496 N 0 0 0
0:00:00.00 279718 N 0 0 0
0:00:00.00 279735 N 0 0 0
0:00:00.00 280057 N 0 0 0
0:00:00.00 280366 N 0 0 0
0:00:00.00 280659 N 0 0 0
0:00:00.00 280946 N 0 0 0
0:00:00.00 281246 N 0 0 0
0:00:00.00 281554 N 0 0 0
0:00:00.00 281864 N 0 0 0
0:00:00.00 282187 N 0 0 0
0:00:00.00 282493 N 0 0 0
0:00:00.00 282738 N 0 0 0
0:00:00.00 283036 N 0 0 0
0:00:00.00 283076 N 0 0 0
0:00:00.00 283345 N 0 0 0
0:00:00.00 283623 N 0 0 0
0:00:00.00 283634 N 0 0 0
0:00:00.00 283944 N 0 0 0
0:00:00.00 283956 N 0 0 0
0:00:00.00 284209 N 0 0 0
0:00:00.00 284520 N 0 0 0
0:00:00.00 284782 N 0 0 0
0:00:00.00 285065 N 0 0 0
0:00:00.00 285331 N 0 0 0
0:00:00.00 285630 N 0 0 0
0:00:00.00 285883 N 0 0 0
0:00:00.00 286149 N 0 0 0
0:00:00.00 286439 N 0 0 0
0:00:00.00 286696 N 0 0 0
0:00:00.00 286960 N 0 0 0
0:00:00.00 287147 N 0 0 0
0:00:00.00 287419 N 0 0 0
0:00:00.00 287696 N 0 0 0
0:00:00.00 287953 N 0 0 0
0:00:00.00 288216 N 0 0 0
0:00:00.00 288488 N 0 0 0
0:00:00.00 289041 N 0 0 0
0:00:00.00 289286 N 0 0 0
0:00:00.00 289582 N 0 0 0
0:00:00.00 289869 N 0 0 0
0:00:00.00 289883 N 0 0 0
0:00:00.00 290172 N 0 0 0
0:00:00.00 290187 N 0 0 0
0:00:00.00 290486 N 0 0 0
0:00:00.00 290750 N 0 0 0
0:00:00.00 291026 N 0 0 0
0:00:00.00 291269 N 0 0 0
0:00:00.00 291560 N 0 0 0
0:00:00.00 291862 N 0 0 0
0:00:00.00 292133 N 0 0 0
0:00:00.00 292376 N 0 0 0
0:00:00.00 292643 N 0 0 0
0:00:00.00 292891 N 0 0 0
0:00:00.00 293467 N 0 0 0
0:00:00.00 293740 N 0 0 0
0:00:00.00 294045 N 0 0 0
0:00:00.00 294311 N 0 0 0
0:00:00.00 294609 N 0 0 0
0:00:00.00 294822 N 0 0 0
0:00:00.00 295147 N 0 0 0
0:00:00.00 295446 N 0 0 0
0:00:00.00 295459 N 0 0 0
0:00:00.00 295742 N 0 0 0
0:00:00.00 295755 N 0 0 0
0:00:00.00 296028 N 0 0 0
0:00:00.00 296322 N 0 0 0
0:00:00.00 296332 N 0 0 0
0:00:00.00 296630 N 0 0 0
0:00:00.00 296640 N 0 0 0
0:00:00.00 296943 N 0 0 0
0:00:00.00 296954 N 0 0 0
0:00:00.00 297254 N 0 0 0
0:00:00.00 297559 N 0 0 0
0:00:00.00 297573 N 0 0 0
0:00:00.00 297865 N 0 0 0
0:00:00.00 298120 N 0 0 0
0:00:00.00 298302 N 0 0 0
0:00:00.00 298616 N 0 0 0
0:00:00.00 298892 N 0 0 0
0:00:00.00 299143 N 0 0 0
0:00:00.00 299415 N 0 0 0
0:00:00.00 299667 N 0 0 0
0:00:00.00 299971 N 0 0 0
0:00:00.00 300237 N 0 0 0
0:00:00.00 300486 N 0 0 0
0:00:00.00 300674 N 0 0 0
0:00:00.00 301001 N 0 0 0
0:00:00.00 301248 N 0 0 0
0:00:00.00 301584 N 0 0 0
0:00:00.00 301809 N 0 0 0
0:00:00.00 302717 N 0 0 0
0:00:00.00 302981 N 0 0 0
0:00:00.00 303303 N 0 0 0
0:00:00.00 303576 N 0 0 0
0:00:00.00 303845 N 0 0 0
0:00:00.00 304044 N 0 0 0
0:00:00.00 304345 N 0 0 0
0:00:00.00 304479 N 0 0 0
0:00:00.00 305477 N 0 0 0
0:00:00.00 305796 N 0 0 0
0:00:00.00 306102 N 0 0 0
0:00:00.00 306401 N 0 0 0
0:00:00.00 306667 N 0 0 0
0:00:00.00 306833 N 0 0 0
0:00:00.00 306848 N 0 0 0
0:00:00.00 307163 N 0 0 0
0:00:00.00 307428 N 0 0 0
0:00:00.00 307733 N 0 0 0
0:00:00.00 308002 N 0 0 0
0:00:00.00 308320 N 0 0 0
0:00:00.00 308614 N 0 0 0
0:00:00.00 308907 N 0 0 0
0:00:00.00 309198 N 0 0 0
0:00:00.00 309502 N 0 0 0
0:00:00.00 309810 N 0 0 0
0:00:00.00 310447 N 0 0 0
0:00:00.00 310961 N 0 0 0
0:00:00.00 311508 N 0 0 0
0:00:00.00 312141 N 0 0 0
0:00:00.00 312707 N 0 0 0
0:00:00.00 313015 N 0 0 0
0:00:00.00 313312 N 0 0 0
0:00:00.00 313614 N 0 0 0
0:00:00.00 313898 N 0 0 0
0:00:00.00 313910 N 0 0 0
0:00:00.00 314212 N 0 0 0
0:00:00.00 314228 N 0 0 0
0:00:00.00 314533 N 0 0 0
0:00:00.00 314546 N 0 0 0
0:00:00.00 314852 N 0 0 0
0:00:00.00 315157 N 0 0 0
0:00:00.00 315445 N 0 0 0
0:00:00.00 315732 N 0 0 0
0:00:00.00 316026 N 0 0 0
0:00:00.00 316039 N 0 0 0
0:00:00.00 316365 N 0 0 0
0:00:00.00 316379 N 0 0 0
0:00:00.00 316662 N 0 0 0
0:00:00.00 316937 N 0 0 0
0:00:00.00 317252 N 0 0 0
0:00:00.00 317530 N 0 0 0
0:00:00.00 317821 N 0 0 0
0:00:00.00 318115 N 0 0 0
0:00:00.00 318386 N 0 0 0
0:00:00.00 318676 N 0 0 0
0:00:00.00 318977 N 0 0 0
0:00:00.00 319293 N 0 0 0
0:00:00.00 319571 N 0 0 0
0:00:00.00 319762 N 0 0 0
0:00:00.00 320031 N 0 0 0
0:00:00.00 320323 N 0 0 0
0:00:00.00 320528 N 0 0 0
0:00:00.00 320854 N 0 0 0
0:00:00.00 321168 N 0 0 0
0:00:00.00 321489 N 0 0 0
0:00:00.00 321775 N 0 0 0
0:00:00.00 322058 N 0 0 0
0:00:00.00 322370 N 0 0 0
0:00:00.00 322615 N 0 0 0
0:00:00.00 322958 N 0 0 0
0:00:00.00 323280 N 0 0 0
0:00:00.00 323558 N 0 0 0
0:00:00.00 323870 N 0 0 0
0:00:00.00 324154 N 0 0 0
0:00:00.00 324163 N 0 0 0
0:00:00.00 324458 N 0 0 0
0:00:00.00 324470 N 0 0 0
0:00:00.00 324687 N 0 0 0
0:00:00.00 325030 N 0 0 0
0:00:00.00 325325 N 0 0 0
0:00:00.00 325549 N 0 0 0
0:00:00.00 325839 N 0 0 0
0:00:00.00 326414 N 0 0 0
0:00:00.00 326678 N 0 0 0
0:00:00.00 326915 N 0 0 0
0:00:00.00 327218 N 0 0 0
0:00:00.00 327501 N 0 0 0
0:00:00.00 327762 N 0 0 0
0:00:00.00 328064 N 0 0 0
0:00:00.00 328311 N 0 0 0
0:00:00.00 328526 N 0 0 0
0:00:00.00 328534 N 0 0 0
0:00:00.00 328843 N 0 0 0
0:00:00.00 329100 N 0 0 0
0:00:00.00 329413 N 0 0 0
0:00:00.00 329721 N 0 0 0
0:00:00.00 330019 N 0 0 0
0:00:00.00 330285 N 0 0 0
0:00:00.00 330465 N 0 0 0
0:00:00.00 330474 N 0 0 0
0:00:00.00 330784 N 0 0 0
0:00:00.00 331083 N 0 0 0
0:00:00.00 331378 N 0 0 0
0:00:00.00 331682 N 0 0 0
0:00:00.00 331697 N 0 0 0
0:00:00.00 331998 N 0 0 0
0:00:00.00 332211 N 0 0 0
0:00:00.00 332482 N 0 0 0
0:00:00.00 333035 N 0 0 0
0:00:00.00 333289 N 0 0 0
0:00:00.00 333592 N 0 0 0
0:00:00.00 333925 N 0 0 0
0:00:00.00 334214 N 0 0 0
0:00:00.00 334493 N 0 0 0
0:00:00.00 334745 N 0 0 0
0:00:00.00 334937 N 0 0 0
0:00:00.00 335513 N 0 0 0
0:00:00.00 335758 N 0 0 0
0:00:00.00 336019 N 0 0 0
0:00:00.00 336289 N 0 0 0
0:00:00.00 336562 N 0 0 0
0:00:00.00 336793 N 0 0 0
0:00:00.00 337038 N 0 0 0
0:00:00.00 337275 N 0 0 0
0:00:00.00 337588 N 0 0 0
0:00:00.00 337852 N 0 0 0
0:00:00.00 338070 N 0 0 0
0:00:00.00 338353 N 0 0 0
0:00:00.00 338616 N 0 0 0
0:00:00.00 338854 N 0 0 0
0:00:00.00 339145 N 0 0 0
0:00:00.00 339323 N 0 0 0
0:00:00.00 339609 N 0 0 0
0:00:00.00 339813 N 0 0 0
0:00:00.00 340147 N 0 0 0
0:00:00.00 340158 N 0 0 0
0:00:00.00 340447 N 0 0 0
0:00:00.00 340696 N 0 0 0
0:00:00.00 340962 N 0 0 0
0:00:00.00 341217 N 0 0 0
0:00:00.00 341531 N 0 0 0
0:00:00.00 341828 N 0 0 0
0:00:00.00 341855 N 0 0 0
0:00:00.00 342121 N 0 0 0
0:00:00.00 342136 N 0 0 0
0:00:00.00 342412 N 0 0 0
0:00:00.00 342692 N 0 0 0
0:00:00.00 342960 N 0 0 0
0:00:00.00 343247 N 0 0 0
0:00:00.00 343500 N 0 0 0
0:00:00.00 343806 N 0 0 0
0:00:00.00 344068 N 0 0 0
0:00:00.00 344416 N 0 0 0
0:00:00.00 344732 N 0 0 0
0:00:00.00 345003 N 0 0 0
0:00:00.00 345208 N 0 0 0
0:00:00.00 345787 N 0 0 0
0:00:00.00 346108 N 0 0 0
0:00:00.00 346422 N 0 0 0
0:00:00.00 346453 N 0 0 0
0:00:00.00 346738 N 0 0 0
0:00:00.00 346944 N 0 0 0
0:00:00.00 347108 N 0 0 0
0:00:00.00 347425 N 0 0 0
0:00:00.00 347443 N 0 0 0
0:00:00.00 347694 N 0 0 0
0:00:00.00 347933 N 0 0 0
0:00:00.00 348194 N 0 0 0
0:00:00.00 348465 N 0 0 0
0:00:00.00 348744 N 0 0 0
0:00:00.00 349025 N 0 0 0
0:00:00.00 349325 N 0 0 0
0:00:00.00 349571 N 0 0 0
0:00:00.00 349805 N 0 0 0
0:00:00.00 350107 N 0 0 0
0:00:00.00 350414 N 0 0 0
0:00:00.00 350721 N 0 0 0
0:00:00.00 351018 N 0 0 0
0:00:00.00 351276 N 0 0 0
0:00:00.00 352136 N 0 0 0
0:00:00.00 352389 N 0 0 0
0:00:00.00 352587 N 0 0 0
0:00:00.00 353152 N 0 0 0
0:00:00.00 353413 N 0 0 0
0:00:00.00 353673 N 0 0 0
0:00:00.00 353933 N 0 0 0
0:00:00.00 354182 N 0 0 0
0:00:00.00 354418 N 0 0 0
0:00:00.00 354681 N 0 0 0
0:00:00.00 354928 N 0 0 0
0:00:00.00 355210 N 0 0 0
0:00:00.00 355554 N 0 0 0
0:00:00.00 355570 N 0 0 0
0:00:00.00 355859 N 0 0 0
0:00:00.00 356153 N 0 0 0
0:00:00.00 356395 N 0 0 0
0:00:00.00 356628 N 0 0 0
0:00:00.00 356870 N 0 0 0
0:00:00.00 357129 N 0 0 0
0:00:00.00 357388 N 0 0 0
0:00:00.00 357679 N 0 0 0
0:00:00.00 357942 N 0 0 0
0:00:00.00 358166 N 0 0 0
0:00:00.00 358396 N 0 0 0
0:00:00.00 358692 N 0 0 0
0:00:00.00 358938 N 0 0 0
0:00:00.00 359124 N 0 0 0
0:00:00.00 359416 N 0 0 0
0:00:00.00 359642 N 0 0 0
0:00:00.00 359989 N 0 0 0
0:00:00.00 360562 N 0 0 0
0:00:00.00 360820 N 0 0 0
0:00:00.00 361043 N 0 0 0
0:00:00.00 361291 N 0 0 0
0:00:00.00 361563 N 0 0 0
0:00:00.00 361911 N 0 0 0
0:00:00.00 362110 N 0 0 0
0:00:00.00 362396 N 0 0 0
0:00:00.00 362635 N 0 0 0
0:00:00.00 362924 N 0 0 0
0:00:00.00 363169 N 0 0 0
0:00:00.00 363405 N 0 0 0
0:00:00.00 363638 N 0 0 0
0:00:00.00 363945 N 0 0 0
0:00:00.00 364239 N 0 0 0
0:00:00.00 364444 N 0 0 0
0:00:00.00 364757 N 0 0 0
0:00:00.00 364768 N 0 0 0
0:00:00.00 365033 N 0 0 0
0:00:00.00 365264 N 0 0 0
0:00:00.00 365502 N 0 0 0
0:00:00.00 365744 N 0 0 0
0:00:00.00 365958 N 0 0 0
0:00:00.00 366267 N 0 0 0
0:00:00.00 366555 N 0 0 0
0:00:00.00 366825 N 0 0 0
0:00:00.00 367125 N 0 0 0
0:00:00.00 367407 N 0 0 0
0:00:00.00 367663 N 0 0 0
0:00:00.00 367858 N 0 0 0
0:00:00.00 368042 N 0 0 0
0:00:00.00 368350 N 0 0 0
0:00:00.00 368596 N 0 0 0
0:00:00.00 368913 N 0 0 0
0:00:00.00 369216 N 0 0 0
0:00:00.00 369506 N 0 0 0
0:00:00.00 369762 N 0 0 0
0:00:00.00 370006 N 0 0 0
0:00:00.00 370142 N 0 0 0
0:00:00.00 370158 N 0 0 0
0:00:00.00 370479 N 0 0 0
0:00:00.00 370727 N 0 0 0
0:00:00.00 370985 N 0 0 0
0:00:00.00 371224 N 0 0 0
0:00:00.00 371408 N 0 0 0
0:00:00.00 371664 N 0 0 0
0:00:00.00 371955 N 0 0 0
0:00:00.00 372213 N 0 0 0
0:00:00.00 372525 N 0 0 0
0:00:00.00 372732 N 0 0 0
0:00:00.00 373052 N 0 0 0
0:00:00.00 373302 N 0 0 0
0:00:00.00 373476 N 0 0 0
0:00:00.00 373770 N 0 0 0
0:00:00.00 374033 N 0 0 0
0:00:00.00 374305 N 0 0 0
0:00:00.00 374620 N 0 0 0
0:00:00.00 374809 N 0 0 0
0:00:00.00 375137 N 0 0 0
0:00:00.00 375437 N 0 0 0
0:00:00.00 375450 N 0 0 0
0:00:00.00 375685 N 0 0 0
0:00:00.00 375978 N 0 0 0
0:00:00.00 376254 N 0 0 0
0:00:00.00 376515 N 0 0 0
0:00:00.00 376790 N 0 0 0
0:00:00.00 377137 N 0 0 0
0:00:00.00 377446 N 0 0 0
0:00:00.00 377744 N 0 0 0
0:00:00.00 378242 N 0 0 0
0:00:00.00 378487 N 0 0 0
0:00:00.00 378737 N 0 0 0
0:00:00.00 379619 N 0 0 0
0:00:00.00 379916 N 0 0 0
0:00:00.00 380198 N 0 0 0
0:00:00.00 380509 N 0 0 0
0:00:00.00 380535 N 0 0 0
0:00:00.00 381039 N 0 0 0
0:00:00.00 381314 N 0 0 0
0:00:00.00 381566 N 0 0 0
0:00:00.00 382134 N 0 0 0
0:00:00.00 382394 N 0 0 0
0:00:00.00 382636 N 0 0 0
0:00:00.00 382905 N 0 0 0
0:00:00.00 383180 N 0 0 0
0:00:00.00 383488 N 0 0 0
0:00:00.00 383700 N 0 0 0
0:00:00.00 384309 N 0 0 0
0:00:00.00 384595 N 0 0 0
0:00:00.00 384813 N 0 0 0
0:00:00.00 385128 N 0 0 0
0:00:00.00 385401 N 0 0 0
0:00:00.00 385695 N 0 0 0
0:00:00.00 386017 N 0 0 0
0:00:00.00 386282 N 0 0 0
0:00:00.00 386524 N 0 0 0
0:00:00.00 386833 N 0 0 0
0:00:00.00 386859 N 0 0 0
0:00:00.00 387135 N 0 0 0
0:00:00.00 387160 N 0 0 0
0:00:00.00 387431 N 0 0 0
0:00:00.00 387458 N 0 0 0
0:00:00.00 387739 N 0 0 0
0:00:00.00 388079 N 0 0 0
0:00:00.00 388107 N 0 0 0
0:00:00.00 388381 N 0 0 0
0:00:00.00 388407 N 0 0 0
0:00:00.00 388673 N 0 0 0
0:00:00.00 388699 N 0 0 0
0:00:00.00 388961 N 0 0 0
0:00:00.00 388987 N 0 0 0
0:00:00.00 389246 N 0 0 0
0:00:00.00 389274 N 0 0 0
0:00:00.00 389558 N 0 0 0
0:00:00.00 389586 N 0 0 0
0:00:00.00 389878 N 0 0 0
0:00:00.00 390106 N 0 0 0
0:00:00.00 390428 N 0 0 0
0:00:00.00 390662 N 0 0 0
0:00:00.00 390955 N 0 0 0
0:00:00.00 391194 N 0 0 0
0:00:00.00 391449 N 0 0 0
0:00:00.00 391742 N 0 0 0
0:00:00.00 392086 N 0 0 0
0:00:00.00 392117 N 0 0 0
0:00:00.00 392399 N 0 0 0
0:00:00.00 392427 N 0 0 0
0:00:00.00 392691 N 0 0 0
0:00:00.00 392947 N 0 0 0
0:00:00.00 393213 N 0 0 0
0:00:00.00 393401 N 0 0 0
0:00:00.00 393689 N 0 0 0
0:00:00.00 393905 N 0 0 0
0:00:00.00 394266 N 0 0 0
0:00:00.00 394293 N 0 0 0
0:00:00.00 394566 N 0 0 0
0:00:00.00 394839 N 0 0 0
0:00:00.00 395041 N 0 0 0
0:00:00.00 395330 N 0 0 0
0:00:00.00 395643 N 0 0 0
0:00:00.00 395670 N 0 0 0
0:00:00.00 395952 N 0 0 0
0:00:00.00 395981 N 0 0 0
0:00:00.00 396256 N 0 0 0
0:00:00.00 396272 N 0 0 0
0:00:00.00 396593 N 0 0 0
0:00:00.00 396619 N 0 0 0
0:00:00.00 396899 N 0 0 0
0:00:00.00 397195 N 0 0 0
0:00:00.00 397203 N 0 0 0
0:00:00.00 397485 N 0 0 0
0:00:00.00 397773 N 0 0 0
0:00:00.00 398071 N 0 0 0
0:00:00.00 398389 N 0 0 0
0:00:00.00 398656 N 0 0 0
0:00:00.00 398976 N 0 0 0
0:00:00.00 399278 N 0 0 0
0:00:00.00 399571 N 0 0 0
0:00:00.00 399855 N 0 0 0
0:00:00.00 400166 N 0 0 0
0:00:00.00 400494 N 0 0 0
0:00:00.00 400854 N 0 0 0
0:00:00.00 401159 N 0 0 0
0:00:00.00 401462 N 0 0 0
0:00:00.00 401752 N 0 0 0
0:00:00.00 402050 N 0 0 0
0:00:00.00 402060 N 0 0 0
0:00:00.00 402354 N 0 0 0
0:00:00.00 402364 N 0 0 0
0:00:00.00 402678 N 0 0 0
0:00:00.00 403006 N 0 0 0
0:00:00.00 403016 N 0 0 0
0:00:00.00 403316 N 0 0 0
0:00:00.00 403325 N 0 0 0
0:00:00.00 403619 N 0 0 0
0:00:00.00 403629 N 0 0 0
0:00:00.00 403911 N 0 0 0
0:00:00.00 404195 N 0 0 0
0:00:00.00 404495 N 0 0 0
0:00:00.00 404504 N 0 0 0
0:00:00.00 404801 N 0 0 0
0:00:00.00 404813 N 0 0 0
0:00:00.00 405127 N 0 0 0
0:00:00.00 405143 N 0 0 0
0:00:00.00 405444 N 0 0 0
0:00:00.00 405744 N 0 0 0
0:00:00.00 406031 N 0 0 0
0:00:00.00 406040 N 0 0 0
0:00:00.00 406326 N 0 0 0
0:00:00.00 406336 N 0 0 0
0:00:00.00 406627 N 0 0 0
0:00:00.00 406635 N 0 0 0
0:00:00.00 406937 N 0 0 0
0:00:00.00 407257 N 0 0 0
0:00:00.00 407267 N 0 0 0
0:00:00.00 407565 N 0 0 0
0:00:00.00 407575 N 0 0 0
0:00:00.00 407863 N 0 0 0
0:00:00.00 407873 N 0 0 0
0:00:00.00 408161 N 0 0 0
0:00:00.00 408448 N 0 0 0
0:00:00.00 408744 N 0 0 0
0:00:00.00 408752 N 0 0 0
0:00:00.00 409042 N 0 0 0
0:00:00.00 409361 N 0 0 0
0:00:00.00 409372 N 0 0 0
0:00:00.00 409683 N 0 0 0
0:00:00.00 409694 N 0 0 0
0:00:00.00 409990 N 0 0 0
0:00:00.00 410276 N 0 0 0
0:00:00.00 410562 N 0 0 0
0:00:00.00 410571 N 0 0 0
0:00:00.00 410848 N 0 0 0
0:00:00.00 410857 N 0 0 0
0:00:00.00 411149 N 0 0 0
0:00:00.00 411160 N 0 0 0
0:00:00.00 411480 N 0 0 0
0:00:00.00 411493 N 0 0 0
0:00:00.00 411797 N 0 0 0
0:00:00.00 411808 N 0 0 0
0:00:00.00 412095 N 0 0 0
0:00:00.00 412104 N 0 0 0
0:00:00.00 412395 N 0 0 0
0:00:00.00 412696 N 0 0 0
0:00:00.00 412984 N 0 0 0
0:00:00.00 412994 N 0 0 0
0:00:00.00 413281 N 0 0 0
0:00:00.00 413290 N 0 0 0
0:00:00.00 413592 N 0 0 0
0:00:00.00 413603 N 0 0 0
0:00:00.00 413908 N 0 0 0
0:00:00.00 413918 N 0 0 0
0:00:00.00 414219 N 0 0 0
0:00:00.00 414228 N 0 0 0
0:00:00.00 414519 N 0 0 0
0:00:00.00 414804 N 0 0 0
0:00:00.00 415090 N 0 0 0
0:00:00.00 415099 N 0 0 0
0:00:00.00 415383 N 0 0 0
0:00:00.00 415393 N 0 0 0
0:00:00.00 415713 N 0 0 0
0:00:00.00 415726 N 0 0 0
0:00:00.00 416044 N 0 0 0
0:00:00.00 416055 N 0 0 0
0:00:00.00 416343 N 0 0 0
0:00:00.00 416352 N 0 0 0
0:00:00.00 416641 N 0 0 0
0:00:00.00 416941 N 0 0 0
0:00:00.00 417222 N 0 0 0
0:00:00.00 417231 N 0 0 0
0:00:00.00 417524 N 0 0 0
0:00:00.00 417838 N 0 0 0
0:00:00.00 417856 N 0 0 0
0:00:00.00 418156 N 0 0 0
0:00:00.00 418466 N 0 0 0
0:00:00.00 418752 N 0 0 0
0:00:00.00 419050 N 0 0 0
0:00:00.00 419344 N 0 0 0
0:00:00.00 419647 N 0 0 0
0:00:00.00 419943 N 0 0 0
0:00:00.00 419955 N 0 0 0
0:00:00.00 420261 N 0 0 0
0:00:00.00 420276 N 0 0 0
0:00:00.00 420574 N 0 0 0
0:00:00.00 420584 N 0 0 0
0:00:00.00 420888 N 0 0 0
0:00:00.00 421173 N 0 0 0
0:00:00.00 421181 N 0 0 0
0:00:00.00 421465 N 0 0 0
0:00:00.00 421766 N 0 0 0
0:00:00.00 422083 N 0 0 0
0:00:00.00 422096 N 0 0 0
0:00:00.00 422425 N 0 0 0
0:00:00.00 422436 N 0 0 0
0:00:00.00 422729 N 0 0 0
0:00:00.00 422739 N 0 0 0
0:00:00.00 423029 N 0 0 0
0:00:00.00 423039 N 0 0 0
0:00:00.00 423317 N 0 0 0
0:00:00.00 423610 N 0 0 0
0:00:00.00 423619 N 0 0 0
0:00:00.00 423919 N 0 0 0
0:00:00.00 423931 N 0 0 0
0:00:00.00 424224 N 0 0 0
0:00:00.00 424237 N 0 0 0
0:00:00.00 424550 N 0 0 0
0:00:00.00 424559 N 0 0 0
0:00:00.00 424858 N 0 0 0
0:00:00.00 424868 N 0 0 0
0:00:00.00 425167 N 0 0 0
0:00:00.00 425176 N 0 0 0
0:00:00.00 425463 N 0 0 0
0:00:00.00 425472 N 0 0 0
0:00:00.00 425748 N 0 0 0
0:00:00.00 425757 N 0 0 0
0:00:00.00 426038 N 0 0 0
0:00:00.00 426047 N 0 0 0
0:00:00.00 426345 N 0 0 0
0:00:00.00 426354 N 0 0 0
0:00:00.00 426664 N 0 0 0
0:00:00.00 426674 N 0 0 0
0:00:00.00 426976 N 0 0 0
0:00:00.00 426987 N 0 0 0
0:00:00.00 427278 N 0 0 0
0:00:00.00 427288 N 0 0 0
0:00:00.00 427573 N 0 0 0
0:00:00.00 427855 N 0 0 0
0:00:00.00 427864 N 0 0 0
0:00:00.00 428163 N 0 0 0
0:00:00.00 428176 N 0 0 0
0:00:00.00 428468 N 0 0 0
0:00:00.00 428480 N 0 0 0
0:00:00.00 428790 N 0 0 0
0:00:00.00 429101 N 0 0 0
0:00:00.00 429406 N 0 0 0
0:00:00.00 429416 N 0 0 0
0:00:00.00 429699 N 0 0 0
0:00:00.00 429993 N 0 0 0
0:00:00.00 430291 N 0 0 0
0:00:00.00 430595 N 0 0 0
0:00:00.00 430604 N 0 0 0
0:00:00.00 430903 N 0 0 0
0:00:00.00 430912 N 0 0 0
0:00:00.00 431215 N 0 0 0
0:00:00.00 431506 N 0 0 0
0:00:00.00 431814 N 0 0 0
0:00:00.00 432074 N 0 0 0
0:00:00.00 432334 N 0 0 0
0:00:00.00 432599 N 0 0 0
0:00:00.00 432916 N 0 0 0
0:00:00.00 433266 N 0 0 0
0:00:00.00 433560 N 0 0 0
0:00:00.00 433570 N 0 0 0
0:00:00.00 433854 N 0 0 0
0:00:00.00 433863 N 0 0 0
0:00:00.00 433892 N 0 0 0
0:00:00.00 434146 N 0 0 0
0:00:00.00 434165 N 0 0 0
0:00:00.00 434450 N 0 0 0
0:00:00.00 434468 N 0 0 0
0:00:00.00 434735 N 0 0 0
0:00:00.00 435065 N 0 0 0
0:00:00.00 435374 N 0 0 0
0:00:00.00 435386 N 0 0 0
0:00:00.00 435680 N 0 0 0
0:00:00.00 435690 N 0 0 0
0:00:00.00 435987 N 0 0 0
0:00:00.00 435996 N 0 0 0
0:00:00.00 436025 N 0 0 0
0:00:00.00 436282 N 0 0 0
0:00:00.00 436291 N 0 0 0
0:00:00.00 436321 N 0 0 0
0:00:00.00 436571 N 0 0 0
0:00:00.00 436581 N 0 0 0
0:00:00.00 436873 N 0 0 0
0:00:00.00 436882 N 0 0 0
0:00:00.00 436911 N 0 0 0
0:00:00.00 437173 N 0 0 0
0:00:00.00 437514 N 0 0 0
0:00:00.00 437530 N 0 0 0
0:00:00.00 437834 N 0 0 0
0:00:00.00 437844 N 0 0 0
0:00:00.00 438130 N 0 0 0
0:00:00.00 438420 N 0 0 0
0:00:00.00 438724 N 0 0 0
0:00:00.00 439016 N 0 0 0
0:00:00.00 439026 N 0 0 0
0:00:00.00 439054 N 0 0 0
0:00:00.00 439335 N 0 0 0
0:00:00.00 439349 N 0 0 0
0:00:00.00 439669 N 0 0 0
0:00:00.00 439975 N 0 0 0
0:00:00.00 440281 N 0 0 0
0:00:00.00 440586 N 0 0 0
0:00:00.00 440594 N 0 0 0
0:00:00.00 440874 N 0 0 0
0:00:00.00 440887 N 0 0 0
0:00:00.00 441179 N 0 0 0
0:00:00.00 441500 N 0 0 0
0:00:00.00 441509 N 0 0 0
0:00:00.00 441827 N 0 0 0
0:00:00.00 441836 N 0 0 0
0:00:00.00 442140 N 0 0 0
0:00:00.00 442151 N 0 0 0
0:00:00.00 442444 N 0 0 0
0:00:00.00 442455 N 0 0 0
0:00:00.00 442734 N 0 0 0
0:00:00.00 442743 N 0 0 0
0:00:00.00 443024 N 0 0 0
0:00:00.00 443036 N 0 0 0
0:00:00.00 443324 N 0 0 0
0:00:00.00 443333 N 0 0 0
0:00:00.00 443646 N 0 0 0
0:00:00.00 443659 N 0 0 0
0:00:00.00 443980 N 0 0 0
0:00:00.00 443994 N 0 0 0
0:00:00.00 444293 N 0 0 0
0:00:00.00 444591 N 0 0 0
0:00:00.00 444600 N 0 0 0
0:00:00.00 444885 N 0 0 0
0:00:00.00 445172 N 0 0 0
0:00:00.00 445479 N 0 0 0
0:00:00.00 445803 N 0 0 0
0:00:00.00 445813 N 0 0 0
0:00:00.00 446122 N 0 0 0
0:00:00.00 446429 N 0 0 0
0:00:00.00 446740 N 0 0 0
0:00:00.00 446750 N 0 0 0
0:00:00.00 447030 N 0 0 0
0:00:00.00 447319 N 0 0 0
0:00:00.00 447329 N 0 0 0
0:00:00.00 447620 N 0 0 0
0:00:00.00 447924 N 0 0 0
0:00:00.00 448209 N 0 0 0
0:00:00.00 448410 N 0 0 0
0:00:00.00 448723 N 0 0 0
0:00:00.00 449018 N 0 0 0
0:00:00.00 449034 N 0 0 0
0:00:00.00 449308 N 0 0 0
0:00:00.00 449597 N 0 0 0
0:00:00.00 449606 N 0 0 0
0:00:00.00 449911 N 0 0 0
0:00:00.00 450227 N 0 0 0
0:00:00.00 450533 N 0 0 0
0:00:00.00 450838 N 0 0 0
0:00:00.00 450854 N 0 0 0
0:00:00.00 451121 N 0 0 0
0:00:00.00 451413 N 0 0 0
0:00:00.00 451719 N 0 0 0
0:00:00.00 451729 N 0 0 0
0:00:00.00 451756 N 0 0 0
0:00:00.00 452016 N 0 0 0
0:00:00.00 452028 N 0 0 0
0:00:00.00 452320 N 0 0 0
0:00:00.00 452330 N 0 0 0
0:00:00.00 452636 N 0 0 0
0:00:00.00 452647 N 0 0 0
0:00:00.00 452953 N 0 0 0
0:00:00.00 452963 N 0 0 0
0:00:00.00 453253 N 0 0 0
0:00:00.00 453262 N 0 0 0
0:00:00.00 453543 N 0 0 0
0:00:00.00 453581 N 0 0 0
0:00:00.00 453828 N 0 0 0
0:00:00.00 453839 N 0 0 0
0:00:00.00 453867 N 0 0 0
0:00:00.00 454129 N 0 0 0
0:00:00.00 454440 N 0 0 0
0:00:00.00 454453 N 0 0 0
0:00:00.00 454764 N 0 0 0
0:00:00.00 454778 N 0 0 0
0:00:00.00 455078 N 0 0 0
0:00:00.00 455381 N 0 0 0
0:00:00.00 455667 N 0 0 0
0:00:00.00 455705 N 0 0 0
0:00:00.00 455960 N 0 0 0
0:00:00.00 455974 N 0 0 0
0:00:00.00 456267 N 0 0 0
0:00:00.00 456277 N 0 0 0
0:00:00.00 456581 N 0 0 0
0:00:00.00 456906 N 0 0 0
0:00:00.00 457207 N 0 0 0
0:00:00.00 457216 N 0 0 0
0:00:00.00 457507 N 0 0 0
0:00:00.00 457516 N 0 0 0
0:00:00.00 457817 N 0 0 0
0:00:00.00 458052 N 0 0 0
0:00:00.00 458335 N 0 0 0
0:00:00.00 458533 N 0 0 0
0:00:00.00 458857 N 0 0 0
0:00:00.00 459177 N 0 0 0
0:00:00.00 459501 N 0 0 0
0:00:00.00 459796 N 0 0 0
0:00:00.00 460082 N 0 0 0
0:00:00.00 460374 N 0 0 0
0:00:00.00 460667 N 0 0 0
0:00:00.00 460677 N 0 0 0
0:00:00.00 460983 N 0 0 0
0:00:00.00 461312 N 0 0 0
0:00:00.00 461328 N 0 0 0
0:00:00.00 461621 N 0 0 0
0:00:00.00 461916 N 0 0 0
0:00:00.00 461925 N 0 0 0
0:00:00.00 462215 N 0 0 0
0:00:00.00 462224 N 0 0 0
0:00:00.00 462507 N 0 0 0
0:00:00.00 462517 N 0 0 0
0:00:00.00 462808 N 0 0 0
0:00:00.00 462817 N 0 0 0
0:00:00.00 463116 N 0 0 0
0:00:00.00 463127 N 0 0 0
0:00:00.00 463435 N 0 0 0
0:00:00.00 463445 N 0 0 0
0:00:00.00 463737 N 0 0 0
0:00:00.00 463747 N 0 0 0
0:00:00.00 464043 N 0 0 0
0:00:00.00 464336 N 0 0 0
0:00:00.00 464624 N 0 0 0
0:00:00.00 464634 N 0 0 0
0:00:00.00 464916 N 0 0 0
0:00:00.00 465221 N 0 0 0
0:00:00.00 465554 N 0 0 0
0:00:00.00 465565 N 0 0 0
0:00:00.00 465870 N 0 0 0
0:00:00.00 465879 N 0 0 0
0:00:00.00 466165 N 0 0 0
0:00:00.00 466174 N 0 0 0
0:00:00.00 466458 N 0 0 0
0:00:00.00 466744 N 0 0 0
0:00:00.00 467040 N 0 0 0
0:00:00.00 467050 N 0 0 0
0:00:00.00 467362 N 0 0 0
0:00:00.00 467374 N 0 0 0
0:00:00.00 467683 N 0 0 0
0:00:00.00 467693 N 0 0 0
0:00:00.00 467988 N 0 0 0
0:00:00.00 468295 N 0 0 0
0:00:00.00 468305 N 0 0 0
0:00:00.00 468596 N 0 0 0
0:00:00.00 468880 N 0 0 0
0:00:00.00 469170 N 0 0 0
0:00:00.00 469180 N 0 0 0
0:00:00.00 469469 N 0 0 0
0:00:00.00 469481 N 0 0 0
0:00:00.00 469786 N 0 0 0
0:00:00.00 470100 N 0 0 0
0:00:00.00 470407 N 0 0 0
0:00:00.00 470701 N 0 0 0
0:00:00.00 470991 N 0 0 0
0:00:00.00 471278 N 0 0 0
0:00:00.00 471585 N 0 0 0
0:00:00.00 471907 N 0 0 0
0:00:00.00 471920 N 0 0 0
0:00:00.00 472221 N 0 0 0
0:00:00.00 472524 N 0 0 0
0:00:00.00 472828 N 0 0 0
0:00:00.00 473111 N 0 0 0
0:00:00.00 473408 N 0 0 0
0:00:00.00 473716 N 0 0 0
0:00:00.00 474030 N 0 0 0
0:00:00.00 474346 N 0 0 0
0:00:00.00 474656 N 0 0 0
0:00:00.00 474956 N 0 0 0
0:00:00.00 475248 N 0 0 0
0:00:00.00 475538 N 0 0 0
0:00:00.00 475840 N 0 0 0
0:00:00.00 475850 N 0 0 0
0:00:00.00 476151 N 0 0 0
0:00:00.00 476164 N 0 0 0
0:00:00.00 476480 N 0 0 0
0:00:00.00 476786 N 0 0 0
0:00:00.00 477089 N 0 0 0
0:00:00.00 477374 N 0 0 0
0:00:00.00 477670 N 0 0 0
0:00:00.00 477680 N 0 0 0
0:00:00.00 477984 N 0 0 0
0:00:00.00 477996 N 0 0 0
0:00:00.00 478323 N 0 0 0
0:00:00.00 478339 N 0 0 0
0:00:00.00 478654 N 0 0 0
0:00:00.00 478960 N 0 0 0
0:00:00.00 479257 N 0 0 0
0:00:00.00 479550 N 0 0 0
0:00:00.00 479853 N 0 0 0
0:00:00.00 480157 N 0 0 0
0:00:00.00 480167 N 0 0 0
0:00:00.00 480467 N 0 0 0
0:00:00.00 480481 N 0 0 0
0:00:00.00 480805 N 0 0 0
0:00:00.00 480817 N 0 0 0
0:00:00.00 481115 N 0 0 0
0:00:00.00 481125 N 0 0 0
0:00:00.00 481425 N 0 0 0
0:00:00.00 481702 N 0 0 0
0:00:00.00 481740 N 0 0 0
0:00:00.00 481995 N 0 0 0
0:00:00.00 482301 N 0 0 0
0:00:00.00 482315 N 0 0 0
0:00:00.00 482624 N 0 0 0
0:00:00.00 482635 N 0 0 0
0:00:00.00 482666 N 0 0 0
0:00:00.00 482971 N 0 0 0
0:00:00.00 483267 N 0 0 0
0:00:00.00 483277 N 0 0 0
0:00:00.00 483564 N 0 0 0
0:00:00.00 483855 N 0 0 0
0:00:00.00 484129 N 0 0 0
0:00:00.00 484409 N 0 0 0
0:00:00.00 484587 N 0 0 0
0:00:00.00 484604 N 0 0 0
0:00:00.00 485103 N 0 0 0
0:00:00.00 485352 N 0 0 0
0:00:00.00 485581 N 0 0 0
0:00:00.00 485825 N 0 0 0
0:00:00.00 486053 N 0 0 0
0:00:00.00 486293 N 0 0 0
0:00:00.00 486504 N 0 0 0
0:00:00.00 486732 N 0 0 0
0:00:00.00 486983 N 0 0 0
0:00:00.00 487243 N 0 0 0
0:00:00.00 487484 N 0 0 0
0:00:00.00 487716 N 0 0 0
0:00:00.00 487945 N 0 0 0
0:00:00.00 488178 N 0 0 0
0:00:00.00 488428 N 0 0 0
0:00:00.00 488684 N 0 0 0
0:00:00.00 488899 N 0 0 0
0:00:00.00 489226 N 0 0 0
0:00:00.00 489491 N 0 0 0
0:00:00.00 489745 N 0 0 0
0:00:00.00 490013 N 0 0 0
0:00:00.00 490268 N 0 0 0
0:00:00.00 490500 N 0 0 0
0:00:00.00 490728 N 0 0 0
0:00:00.00 491337 N 0 0 0
0:00:00.00 491655 N 0 0 0
0:00:00.00 491965 N 0 0 0
0:00:00.00 492262 N 0 0 0
0:00:00.00 492547 N 0 0 0
0:00:00.00 492839 N 0 0 0
0:00:00.00 493146 N 0 0 0
0:00:00.00 493463 N 0 0 0
0:00:00.00 493789 N 0 0 0
0:00:00.00 494090 N 0 0 0
0:00:00.00 494387 N 0 0 0
0:00:00.00 494398 N 0 0 0
0:00:00.00 494677 N 0 0 0
0:00:00.00 494969 N 0 0 0
0:00:00.00 495276 N 0 0 0
0:00:00.00 495593 N 0 0 0
0:00:00.00 495906 N 0 0 0
0:00:00.00 495915 N 0 0 0
0:00:00.00 496216 N 0 0 0
0:00:00.00 496520 N 0 0 0
0:00:00.00 496808 N 0 0 0
0:00:00.00 497099 N 0 0 0
0:00:00.00 497399 N 0 0 0
0:00:00.00 497410 N 0 0 0
0:00:00.00 497701 N 0 0 0
0:00:00.00 497712 N 0 0 0
0:00:00.00 498030 N 0 0 0
0:00:00.00 498042 N 0 0 0
0:00:00.00 498353 N 0 0 0
0:00:00.00 498651 N 0 0 0
0:00:00.00 498929 N 0 0 0
0:00:00.00 498938 N 0 0 0
0:00:00.00 499225 N 0 0 0
0:00:00.00 499237 N 0 0 0
0:00:00.00 499534 N 0 0 0
0:00:00.00 499546 N 0 0 0
0:00:00.00 499575 N 0 0 0
0:00:00.00 499864 N 0 0 0
0:00:00.00 500181 N 0 0 0
0:00:00.00 500195 N 0 0 0
0:00:00.00 500489 N 0 0 0
0:00:00.00 500801 N 0 0 0
0:00:00.00 500827 N 0 0 0
0:00:00.00 501082 N 0 0 0
0:00:00.00 501393 N 0 0 0
0:00:00.00 501421 N 0 0 0
0:00:00.00 501682 N 0 0 0
0:00:00.00 501693 N 0 0 0
0:00:00.00 501993 N 0 0 0
0:00:00.00 502303 N 0 0 0
0:00:00.00 502317 N 0 0 0
0:00:00.00 502349 N 0 0 0
0:00:00.00 502625 N 0 0 0
0:00:00.00 502637 N 0 0 0
0:00:00.00 502935 N 0 0 0
0:00:00.00 503212 N 0 0 0
0:00:00.00 503498 N 0 0 0
0:00:00.00 503775 N 0 0 0
0:00:00.00 503980 N 0 0 0
0:00:00.00 503988 N 0 0 0
0:00:00.00 504306 N 0 0 0
0:00:00.00 504329 N 0 0 0
0:00:00.00 504562 N 0 0 0
0:00:00.00 504873 N 0 0 0
0:00:00.00 505096 N 0 0 0
0:00:00.00 505392 N 0 0 0
0:00:00.00 505688 N 0 0 0
0:00:00.00 505987 N 0 0 0
0:00:00.00 506290 N 0 0 0
0:00:00.00 506615 N 0 0 0
0:00:00.00 506927 N 0 0 0
0:00:00.00 507227 N 0 0 0
0:00:00.00 507256 N 0 0 0
0:00:00.00 507513 N 0 0 0
0:00:00.00 507524 N 0 0 0
0:00:00.00 507811 N 0 0 0
0:00:00.00 508105 N 0 0 0
0:00:00.00 508393 N 0 0 0
0:00:00.00 508406 N 0 0 0
0:00:00.00 508717 N 0 0 0
0:00:00.00 508730 N 0 0 0
0:00:00.00 509026 N 0 0 0
0:00:00.00 509037 N 0 0 0
0:00:00.00 509342 N 0 0 0
0:00:00.00 509371 N 0 0 0
0:00:00.00 509631 N 0 0 0
0:00:00.00 509918 N 0 0 0
0:00:00.00 510209 N 0 0 0
0:00:00.00 510500 N 0 0 0
0:00:00.00 510515 N 0 0 0
0:00:00.00 510823 N 0 0 0
0:00:00.00 510836 N 0 0 0
0:00:00.00 511139 N 0 0 0
0:00:00.00 511150 N 0 0 0
0:00:00.00 511178 N 0 0 0
0:00:00.00 511437 N 0 0 0
0:00:00.00 511739 N 0 0 0
0:00:00.00 512043 N 0 0 0
0:00:00.00 512071 N 0 0 0
0:00:00.00 512336 N 0 0 0
0:00:00.00 512365 N 0 0 0
0:00:00.00 512627 N 0 0 0
0:00:00.00 512929 N 0 0 0
0:00:00.00 512943 N 0 0 0
0:00:00.00 513251 N 0 0 0
0:00:00.00 513547 N 0 0 0
0:00:00.00 513557 N 0 0 0
0:00:00.00 513859 N 0 0 0
0:00:00.00 513889 N 0 0 0
0:00:00.00 514146 N 0 0 0
0:00:00.00 514174 N 0 0 0
0:00:00.00 514421 N 0 0 0
0:00:00.00 514430 N 0 0 0
0:00:00.00 514723 N 0 0 0
0:00:00.00 514733 N 0 0 0
0:00:00.00 515045 N 0 0 0
0:00:00.00 515058 N 0 0 0
0:00:00.00 515088 N 0 0 0
0:00:00.00 515372 N 0 0 0
0:00:00.00 515382 N 0 0 0
0:00:00.00 515413 N 0 0 0
0:00:00.00 515672 N 0 0 0
0:00:00.00 515684 N 0 0 0
0:00:00.00 515968 N 0 0 0
0:00:00.00 516259 N 0 0 0
0:00:00.00 516554 N 0 0 0
0:00:00.00 516563 N 0 0 0
0:00:00.00 516857 N 0 0 0
0:00:00.00 516868 N 0 0 0
0:00:00.00 517171 N 0 0 0
0:00:00.00 517183 N 0 0 0
0:00:00.00 517491 N 0 0 0
0:00:00.00 517795 N 0 0 0
0:00:00.00 517806 N 0 0 0
0:00:00.00 518105 N 0 0 0
0:00:00.00 518395 N 0 0 0
0:00:00.00 518680 N 0 0 0
0:00:00.00 518979 N 0 0 0
0:00:00.00 518989 N 0 0 0
0:00:00.00 519292 N 0 0 0
0:00:00.00 519619 N 0 0 0
0:00:00.00 519630 N 0 0 0
0:00:00.00 519934 N 0 0 0
0:00:00.00 519944 N 0 0 0
0:00:00.00 520196 N 0 0 0
0:00:00.00 520496 N 0 0 0
0:00:00.00 520755 N 0 0 0
0:00:00.00 521073 N 0 0 0
0:00:00.00 521083 N 0 0 0
0:00:00.00 521398 N 0 0 0
0:00:00.00 521412 N 0 0 0
0:00:00.00 521760 N 0 0 0
0:00:00.00 521770 N 0 0 0
0:00:00.00 522065 N 0 0 0
0:00:00.00 522074 N 0 0 0
0:00:00.00 522369 N 0 0 0
0:00:00.00 522379 N 0 0 0
0:00:00.00 522590 N 0 0 0
0:00:00.00 522888 N 0 0 0
0:00:00.00 522897 N 0 0 0
0:00:00.00 523196 N 0 0 0
0:00:00.00 523205 N 0 0 0
0:00:00.00 523504 N 0 0 0
0:00:00.00 523515 N 0 0 0
0:00:00.00 523816 N 0 0 0
0:00:00.00 523827 N 0 0 0
0:00:00.00 524135 N 0 0 0
0:00:00.00 524145 N 0 0 0
0:00:00.00 524384 N 0 0 0
0:00:00.00 524693 N 0 0 0
0:00:00.00 524973 N 0 0 0
0:00:00.00 525267 N 0 0 0
0:00:00.00 525565 N 0 0 0
0:00:00.00 525576 N 0 0 0
0:00:00.00 525831 N 0 0 0
0:00:00.00 526176 N 0 0 0
0:00:00.00 526185 N 0 0 0
0:00:00.00 526476 N 0 0 0
0:00:00.00 526485 N 0 0 0
0:00:00.00 526771 N 0 0 0
0:00:00.00 527064 N 0 0 0
0:00:00.00 527362 N 0 0 0
0:00:00.00 527591 N 0 0 0
0:00:00.00 527913 N 0 0 0
0:00:00.00 527923 N 0 0 0
0:00:00.00 528230 N 0 0 0
0:00:00.00 528239 N 0 0 0
0:00:00.00 528540 N 0 0 0
0:00:00.00 528844 N 0 0 0
0:00:00.00 529062 N 0 0 0
0:00:00.00 529363 N 0 0 0
0:00:00.00 529372 N 0 0 0
0:00:00.00 529663 N 0 0 0
0:00:00.00 529955 N 0 0 0
0:00:00.00 530282 N 0 0 0
0:00:00.00 530294 N 0 0 0
0:00:00.00 530605 N 0 0 0
0:00:00.00 530851 N 0 0 0
0:00:00.00 531160 N 0 0 0
0:00:00.00 531446 N 0 0 0
0:00:00.00 531731 N 0 0 0
0:00:00.00 531741 N 0 0 0
0:00:00.00 532041 N 0 0 0
0:00:00.00 532050 N 0 0 0
0:00:00.00 532294 N 0 0 0
0:00:00.00 532626 N 0 0 0
0:00:00.00 532635 N 0 0 0
0:00:00.00 532931 N 0 0 0
0:00:00.00 532940 N 0 0 0
0:00:00.00 533230 N 0 0 0
0:00:00.00 533525 N 0 0 0
0:00:00.00 533819 N 0 0 0
0:00:00.00 534053 N 0 0 0
0:00:00.00 534366 N 0 0 0
0:00:00.00 534693 N 0 0 0
0:00:00.00 534703 N 0 0 0
0:00:00.00 535005 N 0 0 0
0:00:00.00 535308 N 0 0 0
0:00:00.00 535319 N 0 0 0
0:00:00.00 535603 N 0 0 0
0:00:00.00 535886 N 0 0 0
0:00:00.00 536182 N 0 0 0
0:00:00.00 536503 N 0 0 0
0:00:00.00 536515 N 0 0 0
0:00:00.00 536828 N 0 0 0
0:00:00.00 536842 N 0 0 0
0:00:00.00 537140 N 0 0 0
0:00:00.00 537397 N 0 0 0
0:00:00.00 537702 N 0 0 0
0:00:00.00 537988 N 0 0 0
0:00:00.00 538291 N 0 0 0
0:00:00.00 538301 N 0 0 0
0:00:00.00 538601 N 0 0 0
0:00:00.00 538612 N 0 0 0
0:00:00.00 538924 N 0 0 0
0:00:00.00 539181 N 0 0 0
0:00:00.00 539502 N 0 0 0
0:00:00.00 539800 N 0 0 0
0:00:00.00 540093 N 0 0 0
0:00:00.00 540383 N 0 0 0
0:00:00.00 540688 N 0 0 0
0:00:00.00 540700 N 0 0 0
0:00:00.00 540944 N 0 0 0
0:00:00.00 541284 N 0 0 0
0:00:00.00 541596 N 0 0 0
0:00:00.00 541895 N 0 0 0
0:00:00.00 542178 N 0 0 0
0:00:00.00 542406 N 0 0 0
0:00:00.00 542731 N 0 0 0
0:00:00.00 543042 N 0 0 0
0:00:00.00 543056 N 0 0 0
0:00:00.00 543366 N 0 0 0
0:00:00.00 543674 N 0 0 0
0:00:00.00 543974 N 0 0 0
0:00:00.00 544227 N 0 0 0
0:00:00.00 544531 N 0 0 0
0:00:00.00 544542 N 0 0 0
0:00:00.00 544827 N 0 0 0
0:00:00.00 545132 N 0 0 0
0:00:00.00 545441 N 0 0 0
0:00:00.00 545451 N 0 0 0
0:00:00.00 545756 N 0 0 0
0:00:00.00 545767 N 0 0 0
0:00:00.00 546009 N 0 0 0
0:00:00.00 546317 N 0 0 0
0:00:00.00 546598 N 0 0 0
0:00:00.00 546891 N 0 0 0
0:00:00.00 547186 N 0 0 0
0:00:00.00 547502 N 0 0 0
0:00:00.00 547514 N 0 0 0
0:00:00.00 547767 N 0 0 0
0:00:00.00 548083 N 0 0 0
0:00:00.00 548093 N 0 0 0
0:00:00.00 548377 N 0 0 0
0:00:00.00 548669 N 0 0 0
0:00:00.00 548971 N 0 0 0
0:00:00.00 549265 N 0 0 0
0:00:00.00 549275 N 0 0 0
0:00:00.00 549509 N 0 0 0
0:00:00.00 549832 N 0 0 0
0:00:00.00 550138 N 0 0 0
0:00:00.00 550147 N 0 0 0
0:00:00.00 550442 N 0 0 0
0:00:00.00 550735 N 0 0 0
0:00:00.00 551021 N 0 0 0
0:00:00.00 551265 N 0 0 0
0:00:00.00 551570 N 0 0 0
0:00:00.00 551888 N 0 0 0
0:00:00.00 551901 N 0 0 0
0:00:00.00 552210 N 0 0 0
0:00:00.00 552219 N 0 0 0
0:00:00.00 552517 N 0 0 0
0:00:00.00 552807 N 0 0 0
0:00:00.00 553035 N 0 0 0
0:00:00.00 553332 N 0 0 0
0:00:00.00 553631 N 0 0 0
0:00:00.00 553957 N 0 0 0
0:00:00.00 553968 N 0 0 0
0:00:00.00 554274 N 0 0 0
0:00:00.00 554504 N 0 0 0
0:00:00.00 554817 N 0 0 0
0:00:00.00 555113 N 0 0 0
0:00:00.00 555404 N 0 0 0
0:00:00.00 555704 N 0 0 0
0:00:00.00 556005 N 0 0 0
0:00:00.00 556015 N 0 0 0
0:00:00.00 556328 N 0 0 0
0:00:00.00 556637 N 0 0 0
0:00:00.00 556939 N 0 0 0
0:00:00.00 557233 N 0 0 0
0:00:00.00 557521 N 0 0 0
0:00:00.00 557810 N 0 0 0
0:00:00.00 558124 N 0 0 0
0:00:00.00 558135 N 0 0 0
0:00:00.00 558454 N 0 0 0
0:00:00.00 558466 N 0 0 0
0:00:00.00 558766 N 0 0 0
0:00:00.00 559067 N 0 0 0
0:00:00.00 559360 N 0 0 0
0:00:00.00 559642 N 0 0 0
0:00:00.00 559947 N 0 0 0
0:00:00.00 560260 N 0 0 0
0:00:00.00 560584 N 0 0 0
0:00:00.00 560895 N 0 0 0
0:00:00.00 561201 N 0 0 0
0:00:00.00 561495 N 0 0 0
0:00:00.00 561784 N 0 0 0
0:00:00.00 562078 N 0 0 0
0:00:00.00 562382 N 0 0 0
0:00:00.00 562699 N 0 0 0
0:00:00.00 563015 N 0 0 0
0:00:00.00 563324 N 0 0 0
0:00:00.00 563620 N 0 0 0
0:00:00.00 563900 N 0 0 0
0:00:00.00 564193 N 0 0 0
0:00:00.00 564514 N 0 0 0
0:00:00.00 564841 N 0 0 0
0:00:00.00 564853 N 0 0 0
0:00:00.00 565153 N 0 0 0
0:00:00.00 565459 N 0 0 0
0:00:00.00 565751 N 0 0 0
0:00:00.00 566039 N 0 0 0
0:00:00.00 566347 N 0 0 0
0:00:00.00 566645 N 0 0 0
0:00:00.00 566658 N 0 0 0
0:00:00.00 566960 N 0 0 0
0:00:00.00 566972 N 0 0 0
0:00:00.00 567281 N 0 0 0
0:00:00.00 567591 N 0 0 0
0:00:00.00 567890 N 0 0 0
0:00:00.00 568170 N 0 0 0
0:00:00.00 568460 N 0 0 0
0:00:00.00 568763 N 0 0 0
0:00:00.00 569082 N 0 0 0
0:00:00.00 569093 N 0 0 0
0:00:00.00 569410 N 0 0 0
0:00:00.00 569711 N 0 0 0
0:00:00.00 570005 N 0 0 0
0:00:00.00 570292 N 0 0 0
0:00:00.00 570595 N 0 0 0
0:00:00.00 570893 N 0 0 0
0:00:00.00 570904 N 0 0 0
0:00:00.00 571208 N 0 0 0
0:00:00.00 571220 N 0 0 0
0:00:00.00 571528 N 0 0 0
0:00:00.00 571830 N 0 0 0
0:00:00.00 572135 N 0 0 0
0:00:00.00 572427 N 0 0 0
0:00:00.00 572719 N 0 0 0
0:00:00.00 573018 N 0 0 0
0:00:00.00 573327 N 0 0 0
0:00:00.00 573340 N 0 0 0
0:00:00.00 573668 N 0 0 0
0:00:00.00 573974 N 0 0 0
0:00:00.00 574270 N 0 0 0
0:00:00.00 574554 N 0 0 0
0:00:00.00 574848 N 0 0 0
0:00:00.00 575150 N 0 0 0
0:00:00.00 575472 N 0 0 0
0:00:00.00 575487 N 0 0 0
0:00:00.00 575810 N 0 0 0
0:00:00.00 575823 N 0 0 0
0:00:00.00 576112 N 0 0 0
0:00:00.00 576412 N 0 0 0
0:00:00.00 576424 N 0 0 0
0:00:00.00 576713 N 0 0 0
0:00:00.00 577004 N 0 0 0
0:00:00.00 577014 N 0 0 0
0:00:00.00 577304 N 0 0 0
0:00:00.00 577612 N 0 0 0
0:00:00.00 577940 N 0 0 0
0:00:00.00 578249 N 0 0 0
0:00:00.00 578258 N 0 0 0
0:00:00.00 578556 N 0 0 0
0:00:00.00 578843 N 0 0 0
0:00:00.00 579131 N 0 0 0
0:00:00.00 579426 N 0 0 0
0:00:00.00 579745 N 0 0 0
0:00:00.00 579759 N 0 0 0
0:00:00.00 580093 N 0 0 0
0:00:00.00 580104 N 0 0 0
0:00:00.00 580401 N 0 0 0
0:00:00.00 580698 N 0 0 0
0:00:00.00 580994 N 0 0 0
0:00:00.00 581281 N 0 0 0
0:00:00.00 581582 N 0 0 0
0:00:00.00 581894 N 0 0 0
0:00:00.00 582216 N 0 0 0
0:00:00.00 582519 N 0 0 0
0:00:00.00 582831 N 0 0 0
0:00:00.00 583121 N 0 0 0
0:00:00.00 583406 N 0 0 0
0:00:00.00 583704 N 0 0 0
0:00:00.00 584008 N 0 0 0
0:00:00.00 584326 N 0 0 0
0:00:00.00 584641 N 0 0 0
0:00:00.00 584946 N 0 0 0
0:00:00.00 585240 N 0 0 0
0:00:00.00 585521 N 0 0 0
0:00:00.00 585720 N 0 0 0
0:00:00.00 586041 N 0 0 0
0:00:00.00 586366 N 0 0 0
0:00:00.00 586674 N 0 0 0
0:00:00.00 586685 N 0 0 0
0:00:00.00 586978 N 0 0 0
0:00:00.00 587278 N 0 0 0
0:00:00.00 587569 N 0 0 0
0:00:00.00 587868 N 0 0 0
0:00:00.00 588164 N 0 0 0
0:00:00.00 588468 N 0 0 0
0:00:00.00 588786 N 0 0 0
0:00:00.00 589102 N 0 0 0
0:00:00.00 589399 N 0 0 0
0:00:00.00 589686 N 0 0 0
0:00:00.00 589971 N 0 0 0
0:00:00.00 590266 N 0 0 0
0:00:00.00 590576 N 0 0 0
0:00:00.00 590892 N 0 0 0
0:00:00.00 591200 N 0 0 0
0:00:00.00 591501 N 0 0 0
0:00:00.00 591790 N 0 0 0
0:00:00.00 592085 N 0 0 0
0:00:00.00 592386 N 0 0 0
0:00:00.00 592695 N 0 0 0
0:00:00.00 593009 N 0 0 0
0:00:00.00 593322 N 0 0 0
0:00:00.00 593618 N 0 0 0
0:00:00.00 593914 N 0 0 0
0:00:00.00 594206 N 0 0 0
0:00:00.00 594500 N 0 0 0
0:00:00.00 594802 N 0 0 0
0:00:00.00 595122 N 0 0 0
0:00:00.00 595134 N 0 0 0
0:00:00.00 595443 N 0 0 0
0:00:00.00 595752 N 0 0 0
0:00:00.00 596041 N 0 0 0
0:00:00.00 596326 N 0 0 0
0:00:00.00 596620 N 0 0 0
0:00:00.00 596927 N 0 0 0
0:00:00.00 596940 N 0 0 0
0:00:00.00 597262 N 0 0 0
0:00:00.00 597277 N 0 0 0
0:00:00.00 597580 N 0 0 0
0:00:00.00 597594 N 0 0 0
0:00:00.00 597877 N 0 0 0
0:00:00.00 598171 N 0 0 0
0:00:00.00 598472 N 0 0 0
0:00:00.00 598769 N 0 0 0
0:00:00.00 598779 N 0 0 0
0:00:00.00 599069 N 0 0 0
0:00:00.00 599082 N 0 0 0
0:00:00.00 599384 N 0 0 0
0:00:00.00 599398 N 0 0 0
0:00:00.00 599704 N 0 0 0
0:00:00.00 599713 N 0 0 0
0:00:00.00 600011 N 0 0 0
0:00:00.00 600021 N 0 0 0
0:00:00.00 600313 N 0 0 0
0:00:00.00 600322 N 0 0 0
0:00:00.00 600597 N 0 0 0
0:00:00.00 600605 N 0 0 0
0:00:00.00 600889 N 0 0 0
0:00:00.00 600899 N 0 0 0
0:00:00.00 601191 N 0 0 0
0:00:00.00 601203 N 0 0 0
0:00:00.00 601523 N 0 0 0
0:00:00.00 601751 N 0 0 0
0:00:00.00 602069 N 0 0 0
0:00:00.00 602303 N 0 0 0
0:00:00.00 602608 N 0 0 0
0:00:00.00 602892 N 0 0 0
0:00:00.00 603188 N 0 0 0
0:00:00.00 603506 N 0 0 0
0:00:00.00 603829 N 0 0 0
0:00:00.00 604131 N 0 0 0
0:00:00.00 604441 N 0 0 0
0:00:00.00 604738 N 0 0 0
0:00:00.00 605025 N 0 0 0
0:00:00.00 605320 N 0 0 0
0:00:00.00 605623 N 0 0 0
0:00:00.00 605938 N 0 0 0
0:00:00.00 605949 N 0 0 0
0:00:00.00 606255 N 0 0 0
0:00:00.00 606265 N 0 0 0
0:00:00.00 606565 N 0 0 0
0:00:00.00 606855 N 0 0 0
0:00:00.00 607140 N 0 0 0
0:00:00.00 607433 N 0 0 0
0:00:00.00 607445 N 0 0 0
0:00:00.00 607751 N 0 0 0
0:00:00.00 607761 N 0 0 0
0:00:00.00 608079 N 0 0 0
0:00:00.00 608387 N 0 0 0
0:00:00.00 608693 N 0 0 0
0:00:00.00 608989 N 0 0 0
0:00:00.00 609278 N 0 0 0
0:00:00.00 609579 N 0 0 0
0:00:00.00 609884 N 0 0 0
0:00:00.00 609895 N 0 0 0
0:00:00.00 610191 N 0 0 0
0:00:00.00 610201 N 0 0 0
0:00:00.00 610509 N 0 0 0
0:00:00.00 610519 N 0 0 0
0:00:00.00 610820 N 0 0 0
0:00:00.00 611115 N 0 0 0
0:00:00.00 611403 N 0 0 0
0:00:00.00 611691 N 0 0 0
0:00:00.00 611990 N 0 0 0
0:00:00.00 612313 N 0 0 0
0:00:00.00 612323 N 0 0 0
0:00:00.00 612641 N 0 0 0
0:00:00.00 612943 N 0 0 0
0:00:00.00 613239 N 0 0 0
0:00:00.00 613529 N 0 0 0
0:00:00.00 613831 N 0 0 0
0:00:00.00 613842 N 0 0 0
0:00:00.00 614141 N 0 0 0
0:00:00.00 614154 N 0 0 0
0:00:00.00 614453 N 0 0 0
0:00:00.00 614463 N 0 0 0
0:00:00.00 614772 N 0 0 0
0:00:00.00 615079 N 0 0 0
0:00:00.00 615379 N 0 0 0
0:00:00.00 615675 N 0 0 0
0:00:00.00 615967 N 0 0 0
0:00:00.00 616265 N 0 0 0
0:00:00.00 616275 N 0 0 0
0:00:00.00 616583 N 0 0 0
0:00:00.00 616595 N 0 0 0
0:00:00.00 616924 N 0 0 0
0:00:00.00 617227 N 0 0 0
0:00:00.00 617238 N 0 0 0
0:00:00.00 617525 N 0 0 0
0:00:00.00 617534 N 0 0 0
0:00:00.00 617816 N 0 0 0
0:00:00.00 618103 N 0 0 0
0:00:00.00 618408 N 0 0 0
0:00:00.00 618418 N 0 0 0
0:00:00.00 618741 N 0 0 0
0:00:00.00 618757 N 0 0 0
0:00:00.00 619070 N 0 0 0
0:00:00.00 619376 N 0 0 0
0:00:00.00 619385 N 0 0 0
0:00:00.00 619674 N 0 0 0
0:00:00.00 619684 N 0 0 0
0:00:00.00 619968 N 0 0 0
0:00:00.00 620272 N 0 0 0
0:00:00.00 620284 N 0 0 0
0:00:00.00 620569 N 0 0 0
0:00:00.00 620580 N 0 0 0
0:00:00.00 620885 N 0 0 0
0:00:00.00 620897 N 0 0 0
0:00:00.00 621211 N 0 0 0
0:00:00.00 621221 N 0 0 0
0:00:00.00 621519 N 0 0 0
0:00:00.00 621823 N 0 0 0
0:00:00.00 622114 N 0 0 0
0:00:00.00 622400 N 0 0 0
0:00:00.00 622695 N 0 0 0
0:00:00.00 623025 N 0 0 0
0:00:00.00 623349 N 0 0 0
0:00:00.00 623359 N 0 0 0
0:00:00.00 623388 N 0 0 0
0:00:00.00 623652 N 0 0 0
0:00:00.00 623953 N 0 0 0
0:00:00.00 623961 N 0 0 0
0:00:00.00 624241 N 0 0 0
0:00:00.00 624250 N 0 0 0
0:00:00.00 624535 N 0 0 0
0:00:00.00 624545 N 0 0 0
0:00:00.00 624838 N 0 0 0
0:00:00.00 624847 N 0 0 0
0:00:00.00 625144 N 0 0 0
0:00:00.00 625464 N 0 0 0
0:00:00.00 625474 N 0 0 0
0:00:00.00 625771 N 0 0 0
0:00:00.00 625782 N 0 0 0
0:00:00.00 626080 N 0 0 0
0:00:00.00 626089 N 0 0 0
0:00:00.00 626375 N 0 0 0
0:00:00.00 626384 N 0 0 0
0:00:00.00 626656 N 0 0 0
0:00:00.00 626947 N 0 0 0
0:00:00.00 627258 N 0 0 0
0:00:00.00 627572 N 0 0 0
0:00:00.00 627881 N 0 0 0
0:00:00.00 628187 N 0 0 0
0:00:00.00 628478 N 0 0 0
0:00:00.00 628762 N 0 0 0
0:00:00.00 629067 N 0 0 0
0:00:00.00 629374 N 0 0 0
0:00:00.00 629698 N 0 0 0
0:00:00.00 630007 N 0 0 0
0:00:00.00 630311 N 0 0 0
0:00:00.00 630606 N 0 0 0
0:00:00.00 630896 N 0 0 0
0:00:00.00 631190 N 0 0 0
0:00:00.00 631490 N 0 0 0
0:00:00.00 631801 N 0 0 0
0:00:00.00 632125 N 0 0 0
0:00:00.00 632139 N 0 0 0
0:00:00.00 632439 N 0 0 0
0:00:00.00 632733 N 0 0 0
0:00:00.00 633015 N 0 0 0
0:00:00.00 633310 N 0 0 0
0:00:00.00 633322 N 0 0 0
0:00:00.00 633608 N 0 0 0
0:00:00.00 633621 N 0 0 0
0:00:00.00 633930 N 0 0 0
0:00:00.00 633944 N 0 0 0
0:00:00.00 634256 N 0 0 0
0:00:00.00 634266 N 0 0 0
0:00:00.00 634560 N 0 0 0
0:00:00.00 634850 N 0 0 0
0:00:00.00 635144 N 0 0 0
0:00:00.00 635441 N 0 0 0
0:00:00.00 635746 N 0 0 0
0:00:00.00 636057 N 0 0 0
0:00:00.00 636071 N 0 0 0
0:00:00.00 636371 N 0 0 0
0:00:00.00 636381 N 0 0 0
0:00:00.00 636675 N 0 0 0
0:00:00.00 636686 N 0 0 0
0:00:00.00 636979 N 0 0 0
0:00:00.00 637269 N 0 0 0
0:00:00.00 637563 N 0 0 0
0:00:00.00 637573 N 0 0 0
0:00:00.00 637860 N 0 0 0
0:00:00.00 637868 N 0 0 0
0:00:00.00 638170 N 0 0 0
0:00:00.00 638180 N 0 0 0
0:00:00.00 638511 N 0 0 0
0:00:00.00 638817 N 0 0 0
0:00:00.00 639111 N 0 0 0
0:00:00.00 639401 N 0 0 0
0:00:00.00 639694 N 0 0 0
0:00:00.00 639993 N 0 0 0
0:00:00.00 640321 N 0 0 0
0:00:00.00 640337 N 0 0 0
0:00:00.00 640650 N 0 0 0
0:00:00.00 640952 N 0 0 0
0:00:00.00 641256 N 0 0 0
0:00:00.00 641551 N 0 0 0
0:00:00.00 641848 N 0 0 0
0:00:00.00 642149 N 0 0 0
0:00:00.00 642451 N 0 0 0
0:00:00.00 642772 N 0 0 0
0:00:00.00 643081 N 0 0 0
0:00:00.00 643381 N 0 0 0
0:00:00.00 643673 N 0 0 0
0:00:00.00 643963 N 0 0 0
0:00:00.00 644252 N 0 0 0
0:00:00.00 644571 N 0 0 0
0:00:00.00 644586 N 0 0 0
0:00:00.00 644895 N 0 0 0
0:00:00.00 645203 N 0 0 0
0:00:00.00 645504 N 0 0 0
0:00:00.00 645797 N 0 0 0
0:00:00.00 646080 N 0 0 0
0:00:00.00 646385 N 0 0 0
0:00:00.00 646397 N 0 0 0
0:00:00.00 646698 N 0 0 0
0:00:00.00 646710 N 0 0 0
0:00:00.00 647016 N 0 0 0
0:00:00.00 647320 N 0 0 0
0:00:00.00 647626 N 0 0 0
0:00:00.00 647921 N 0 0 0
0:00:00.00 647930 N 0 0 0
0:00:00.00 648210 N 0 0 0
0:00:00.00 648504 N 0 0 0
0:00:00.00 648801 N 0 0 0
0:00:00.00 648814 N 0 0 0
0:00:00.00 649110 N 0 0 0
0:00:00.00 649123 N 0 0 0
0:00:00.00 649425 N 0 0 0
0:00:00.00 649735 N 0 0 0
