0:00:00.00 301 N 0 0 0
0:00:00.00 615 N 0 0 0
0:00:00.00 888 N 0 0 0
0:00:00.00 1207 N 0 0 0
0:00:00.00 1418 N 0 0 0
0:00:00.00 1709 N 0 0 0
0:00:00.00 1925 N 0 0 0
0:00:00.00 2208 N 0 0 0
0:00:00.00 2479 N 0 0 0
0:00:00.00 2725 N 0 0 0
0:00:00.00 3012 N 0 0 0
0:00:00.00 3231 N 0 0 0
0:00:00.00 3458 N 0 0 0
0:00:00.00 3865 N 0 0 0
0:00:00.00 4278 N 0 0 0
0:00:00.00 4581 N 0 0 0
0:00:00.00 4904 N 0 0 0
0:00:00.00 5205 N 0 0 0
0:00:00.00 5572 N 0 0 0
0:00:00.00 5848 N 0 0 0
0:00:00.00 6060 N 0 0 0
0:00:00.00 6356 N 0 0 0
0:00:00.00 6688 N 0 0 0
0:00:00.00 7119 N 0 0 0
0:00:00.00 7388 N 0 0 0
0:00:00.00 7801 N 0 0 0
0:00:00.00 8213 N 0 0 0
0:00:00.00 8449 N 0 0 0
0:00:00.00 8731 N 0 0 0
0:00:00.00 8991 N 0 0 0
0:00:00.00 9237 N 0 0 0
0:00:00.00 9543 N 0 0 0
0:00:00.00 9883 N 0 0 0
0:00:00.00 10236 N 0 0 0
0:00:00.00 10533 N 0 0 0
0:00:00.00 10792 N 0 0 0
0:00:00.00 11024 N 0 0 0
0:00:00.00 11278 N 0 0 0
0:00:00.00 11544 N 0 0 0
0:00:00.00 11808 N 0 0 0
0:00:00.00 12147 N 0 0 0
0:00:00.00 12349 N 0 0 0
0:00:00.00 12707 N 0 0 0
0:00:00.00 13014 N 0 0 0
0:00:00.00 13316 N 0 0 0
0:00:00.00 13608 N 0 0 0
0:00:00.00 13864 N 0 0 0
0:00:00.00 14142 N 0 0 0
0:00:00.00 14416 N 0 0 0
0:00:00.00 14643 N 0 0 0
0:00:00.00 14963 N 0 0 0
0:00:00.00 15231 N 0 0 0
0:00:00.00 15579 N 0 0 0
0:00:00.00 15846 N 0 0 0
0:00:00.00 16094 N 0 0 0
0:00:00.00 16363 N 0 0 0
0:00:00.00 16618 N 0 0 0
0:00:00.00 16892 N 0 0 0
0:00:00.00 17196 N 0 0 0
0:00:00.00 17470 N 0 0 0
0:00:00.00 17751 N 0 0 0
0:00:00.00 17993 N 0 0 0
0:00:00.00 18290 N 0 0 0
0:00:00.00 18567 N 0 0 0
0:00:00.00 18793 N 0 0 0
0:00:00.00 19173 N 0 0 0
0:00:00.00 19458 N 0 0 0
0:00:00.00 19826 N 0 0 0
0:00:00.00 20030 N 0 0 0
0:00:00.00 20281 N 0 0 0
0:00:00.00 20654 N 0 0 0
0:00:00.00 20946 N 0 0 0
0:00:00.00 21179 N 0 0 0
0:00:00.00 21598 N 0 0 0
0:00:00.00 21841 N 0 0 0
0:00:00.00 22049 N 0 0 0
0:00:00.00 22299 N 0 0 0
0:00:00.00 22548 N 0 0 0
0:00:00.00 22842 N 0 0 0
0:00:00.00 23054 N 0 0 0
0:00:00.00 23353 N 0 0 0
0:00:00.00 23633 N 0 0 0
0:00:00.00 23880 N 0 0 0
0:00:00.00 24231 N 0 0 0
0:00:00.00 24438 N 0 0 0
0:00:00.00 24749 N 0 0 0
0:00:00.00 25016 N 0 0 0
0:00:00.00 25311 N 0 0 0
0:00:00.00 25516 N 0 0 0
0:00:00.00 25832 N 0 0 0
0:00:00.00 26102 N 0 0 0
0:00:00.00 26441 N 0 0 0
0:00:00.00 26653 N 0 0 0
0:00:00.00 26944 N 0 0 0
0:00:00.00 27174 N 0 0 0
0:00:00.00 27476 N 0 0 0
0:00:00.00 27696 N 0 0 0
0:00:00.00 27988 N 0 0 0
0:00:00.00 28306 N 0 0 0
0:00:00.00 28519 N 0 0 0
0:00:00.00 28783 N 0 0 0
0:00:00.00 29086 N 0 0 0
0:00:00.00 29354 N 0 0 0
0:00:00.00 29597 N 0 0 0
0:00:00.00 29844 N 0 0 0
0:00:00.00 30054 N 0 0 0
0:00:00.00 30379 N 0 0 0
0:00:00.00 30676 N 0 0 0
0:00:00.00 30968 N 0 0 0
0:00:00.00 31186 N 0 0 0
0:00:00.00 31454 N 0 0 0
0:00:00.00 31726 N 0 0 0
0:00:00.00 31980 N 0 0 0
0:00:00.00 32286 N 0 0 0
0:00:00.00 32634 N 0 0 0
0:00:00.00 32994 N 0 0 0
0:00:00.00 33246 N 0 0 0
0:00:00.00 33568 N 0 0 0
0:00:00.00 33849 N 0 0 0
0:00:00.00 34120 N 0 0 0
0:00:00.00 34414 N 0 0 0
0:00:00.00 34651 N 0 0 0
0:00:00.00 34854 N 0 0 0
0:00:00.00 35215 N 0 0 0
0:00:00.00 35453 N 0 0 0
0:00:00.00 35658 N 0 0 0
0:00:00.00 35907 N 0 0 0
0:00:00.00 36249 N 0 0 0
0:00:00.00 36459 N 0 0 0
0:00:00.00 36800 N 0 0 0
0:00:00.00 37051 N 0 0 0
0:00:00.00 37355 N 0 0 0
0:00:00.00 37660 N 0 0 0
0:00:00.00 37891 N 0 0 0
0:00:00.00 38182 N 0 0 0
0:00:00.00 38406 N 0 0 0
0:00:00.00 38688 N 0 0 0
0:00:00.00 38944 N 0 0 0
0:00:00.00 39235 N 0 0 0
0:00:00.00 39526 N 0 0 0
0:00:00.00 39749 N 0 0 0
0:00:00.00 40022 N 0 0 0
0:00:00.00 40329 N 0 0 0
0:00:00.00 40641 N 0 0 0
0:00:00.00 40994 N 0 0 0
0:00:00.00 41237 N 0 0 0
0:00:00.00 41498 N 0 0 0
0:00:00.00 41930 N 0 0 0
0:00:00.00 42225 N 0 0 0
0:00:00.00 42450 N 0 0 0
0:00:00.00 42894 N 0 0 0
0:00:00.00 43096 N 0 0 0
0:00:00.00 43421 N 0 0 0
0:00:00.00 43694 N 0 0 0
0:00:00.00 44025 N 0 0 0
0:00:00.00 44249 N 0 0 0
0:00:00.00 44537 N 0 0 0
0:00:00.00 44855 N 0 0 0
0:00:00.00 45197 N 0 0 0
0:00:00.00 45458 N 0 0 0
0:00:00.00 45679 N 0 0 0
0:00:00.00 45901 N 0 0 0
0:00:00.00 46132 N 0 0 0
0:00:00.00 46446 N 0 0 0
0:00:00.00 46786 N 0 0 0
0:00:00.00 47114 N 0 0 0
0:00:00.00 47440 N 0 0 0
0:00:00.00 47659 N 0 0 0
0:00:00.00 47962 N 0 0 0
0:00:00.00 48234 N 0 0 0
0:00:00.00 48510 N 0 0 0
0:00:00.00 48784 N 0 0 0
0:00:00.00 49107 N 0 0 0
0:00:00.00 49365 N 0 0 0
0:00:00.00 49582 N 0 0 0
0:00:00.00 49809 N 0 0 0
0:00:00.00 50131 N 0 0 0
0:00:00.00 50513 N 0 0 0
0:00:00.00 50742 N 0 0 0
0:00:00.00 51109 N 0 0 0
0:00:00.00 51365 N 0 0 0
0:00:00.00 51705 N 0 0 0
0:00:00.00 52019 N 0 0 0
0:00:00.00 52298 N 0 0 0
0:00:00.00 52588 N 0 0 0
0:00:00.00 52957 N 0 0 0
0:00:00.00 53277 N 0 0 0
0:00:00.00 53604 N 0 0 0
0:00:00.00 53844 N 0 0 0
0:00:00.00 54100 N 0 0 0
0:00:00.00 54304 N 0 0 0
0:00:00.00 54633 N 0 0 0
0:00:00.00 54912 N 0 0 0
0:00:00.00 55161 N 0 0 0
0:00:00.00 55428 N 0 0 0
0:00:00.00 55720 N 0 0 0
0:00:00.00 55931 N 0 0 0
0:00:00.00 56301 N 0 0 0
0:00:00.00 56580 N 0 0 0
0:00:00.00 56900 N 0 0 0
0:00:00.00 57154 N 0 0 0
0:00:00.00 57401 N 0 0 0
0:00:00.00 57701 N 0 0 0
0:00:00.00 57937 N 0 0 0
0:00:00.00 58181 N 0 0 0
0:00:00.00 58397 N 0 0 0
0:00:00.00 58666 N 0 0 0
0:00:00.00 58954 N 0 0 0
0:00:00.00 59249 N 0 0 0
0:00:00.00 59630 N 0 0 0
0:00:00.00 59865 N 0 0 0
0:00:00.00 60195 N 0 0 0
0:00:00.00 60463 N 0 0 0
0:00:00.00 60752 N 0 0 0
0:00:00.00 61019 N 0 0 0
0:00:00.00 61351 N 0 0 0
0:00:00.00 61681 N 0 0 0
0:00:00.00 61910 N 0 0 0
0:00:00.00 62208 N 0 0 0
0:00:00.00 62439 N 0 0 0
0:00:00.00 62731 N 0 0 0
0:00:00.00 63026 N 0 0 0
0:00:00.00 63191 N 0 0 0
0:00:00.00 63581 N 0 0 0
0:00:00.00 63906 N 0 0 0
0:00:00.00 64130 N 0 0 0
0:00:00.00 64384 N 0 0 0
0:00:00.00 64697 N 0 0 0
0:00:00.00 64992 N 0 0 0
0:00:00.00 65381 N 0 0 0
0:00:00.00 65657 N 0 0 0
0:00:00.00 65963 N 0 0 0
0:00:00.00 66316 N 0 0 0
0:00:00.00 66549 N 0 0 0
0:00:00.00 66835 N 0 0 0
0:00:00.00 67104 N 0 0 0
0:00:00.00 67421 N 0 0 0
0:00:00.00 67709 N 0 0 0
0:00:00.00 67891 N 0 0 0
0:00:00.00 68210 N 0 0 0
0:00:00.00 68447 N 0 0 0
0:00:00.00 68722 N 0 0 0
0:00:00.00 68971 N 0 0 0
0:00:00.00 69215 N 0 0 0
0:00:00.00 69486 N 0 0 0
0:00:00.00 69780 N 0 0 0
0:00:00.00 70068 N 0 0 0
0:00:00.00 70328 N 0 0 0
0:00:00.00 70590 N 0 0 0
0:00:00.00 70914 N 0 0 0
0:00:00.00 71250 N 0 0 0
0:00:00.00 71562 N 0 0 0
0:00:00.00 71818 N 0 0 0
0:00:00.00 72113 N 0 0 0
0:00:00.00 72458 N 0 0 0
0:00:00.00 72737 N 0 0 0
0:00:00.00 73110 N 0 0 0
0:00:00.00 73323 N 0 0 0
0:00:00.00 73883 N 0 0 0
0:00:00.00 74122 N 0 0 0
0:00:00.00 74402 N 0 0 0
0:00:00.00 74649 N 0 0 0
0:00:00.00 74935 N 0 0 0
0:00:00.00 75275 N 0 0 0
0:00:00.00 75544 N 0 0 0
0:00:00.00 75808 N 0 0 0
0:00:00.00 76107 N 0 0 0
0:00:00.00 76404 N 0 0 0
0:00:00.00 76925 N 0 0 0
0:00:00.00 77210 N 0 0 0
0:00:00.00 77487 N 0 0 0
0:00:00.00 77701 N 0 0 0
0:00:00.00 77958 N 0 0 0
0:00:00.00 78234 N 0 0 0
0:00:00.00 78484 N 0 0 0
0:00:00.00 78779 N 0 0 0
0:00:00.00 78982 N 0 0 0
0:00:00.00 79367 N 0 0 0
0:00:00.00 79615 N 0 0 0
0:00:00.00 79859 N 0 0 0
0:00:00.00 80188 N 0 0 0
0:00:00.00 80460 N 0 0 0
0:00:00.00 80726 N 0 0 0
0:00:00.00 81027 N 0 0 0
0:00:00.00 81381 N 0 0 0
0:00:00.00 81757 N 0 0 0
0:00:00.00 82021 N 0 0 0
0:00:00.00 82287 N 0 0 0
0:00:00.00 82514 N 0 0 0
0:00:00.00 82803 N 0 0 0
0:00:00.00 83161 N 0 0 0
0:00:00.00 83371 N 0 0 0
0:00:00.00 83698 N 0 0 0
0:00:00.00 83965 N 0 0 0
0:00:00.00 84281 N 0 0 0
0:00:00.00 84587 N 0 0 0
0:00:00.00 84855 N 0 0 0
0:00:00.00 85075 N 0 0 0
0:00:00.00 85355 N 0 0 0
0:00:00.00 85567 N 0 0 0
0:00:00.00 85891 N 0 0 0
0:00:00.00 86195 N 0 0 0
0:00:00.00 86469 N 0 0 0
0:00:00.00 86694 N 0 0 0
0:00:00.00 87013 N 0 0 0
0:00:00.00 87398 N 0 0 0
0:00:00.00 87669 N 0 0 0
0:00:00.00 87920 N 0 0 0
0:00:00.00 88222 N 0 0 0
0:00:00.00 88506 N 0 0 0
0:00:00.00 88710 N 0 0 0
0:00:00.00 89041 N 0 0 0
0:00:00.00 89311 N 0 0 0
0:00:00.00 89568 N 0 0 0
0:00:00.00 89874 N 0 0 0
0:00:00.00 90190 N 0 0 0
0:00:00.00 90581 N 0 0 0
0:00:00.00 90888 N 0 0 0
0:00:00.00 91231 N 0 0 0
0:00:00.00 91451 N 0 0 0
0:00:00.00 91648 N 0 0 0
0:00:00.00 91861 N 0 0 0
0:00:00.00 92297 N 0 0 0
0:00:00.00 92569 N 0 0 0
0:00:00.00 92778 N 0 0 0
0:00:00.00 93029 N 0 0 0
0:00:00.00 93329 N 0 0 0
0:00:00.00 93613 N 0 0 0
0:00:00.00 93856 N 0 0 0
0:00:00.00 94100 N 0 0 0
0:00:00.00 94306 N 0 0 0
0:00:00.00 94617 N 0 0 0
0:00:00.00 94964 N 0 0 0
0:00:00.00 95255 N 0 0 0
0:00:00.00 95534 N 0 0 0
0:00:00.00 95860 N 0 0 0
0:00:00.00 96141 N 0 0 0
0:00:00.00 96445 N 0 0 0
0:00:00.00 96849 N 0 0 0
0:00:00.00 97068 N 0 0 0
0:00:00.00 97354 N 0 0 0
0:00:00.00 97638 N 0 0 0
0:00:00.00 97917 N 0 0 0
0:00:00.00 98233 N 0 0 0
0:00:00.00 98440 N 0 0 0
0:00:00.00 98752 N 0 0 0
0:00:00.00 98949 N 0 0 0
0:00:00.00 99247 N 0 0 0
0:00:00.00 99537 N 0 0 0
0:00:00.00 99812 N 0 0 0
0:00:00.00 100032 N 0 0 0
0:00:00.00 100386 N 0 0 0
0:00:00.00 100594 N 0 0 0
0:00:00.00 100862 N 0 0 0
0:00:00.00 101091 N 0 0 0
0:00:00.00 101348 N 0 0 0
0:00:00.00 101571 N 0 0 0
0:00:00.00 101951 N 0 0 0
0:00:00.00 102319 N 0 0 0
0:00:00.00 102556 N 0 0 0
0:00:00.00 102836 N 0 0 0
0:00:00.00 103092 N 0 0 0
0:00:00.00 103413 N 0 0 0
0:00:00.00 103688 N 0 0 0
0:00:00.00 103908 N 0 0 0
0:00:00.00 104215 N 0 0 0
0:00:00.00 104431 N 0 0 0
0:00:00.00 104702 N 0 0 0
0:00:00.00 105013 N 0 0 0
0:00:00.00 105254 N 0 0 0
0:00:00.00 105524 N 0 0 0
0:00:00.00 105741 N 0 0 0
0:00:00.00 106029 N 0 0 0
0:00:00.00 106334 N 0 0 0
0:00:00.00 106602 N 0 0 0
0:00:00.00 106985 N 0 0 0
0:00:00.00 107319 N 0 0 0
0:00:00.00 107624 N 0 0 0
0:00:00.00 107917 N 0 0 0
0:00:00.00 108184 N 0 0 0
0:00:00.00 108412 N 0 0 0
0:00:00.00 109341 N 0 0 0
0:00:00.00 109695 N 0 0 0
0:00:00.00 110010 N 0 0 0
0:00:00.00 110252 N 0 0 0
0:00:00.00 110616 N 0 0 0
0:00:00.00 110945 N 0 0 0
0:00:00.00 111263 N 0 0 0
0:00:00.00 111572 N 0 0 0
0:00:00.00 111879 N 0 0 0
0:00:00.00 112186 N 0 0 0
0:00:00.00 112458 N 0 0 0
0:00:00.00 112828 N 0 0 0
0:00:00.00 113130 N 0 0 0
0:00:00.00 113444 N 0 0 0
0:00:00.00 113749 N 0 0 0
0:00:00.00 114059 N 0 0 0
0:00:00.00 114353 N 0 0 0
0:00:00.00 114685 N 0 0 0
0:00:00.00 114966 N 0 0 0
0:00:00.00 115301 N 0 0 0
0:00:00.00 115593 N 0 0 0
0:00:00.00 115925 N 0 0 0
0:00:00.00 116212 N 0 0 0
0:00:00.00 116544 N 0 0 0
0:00:00.00 117121 N 0 0 0
0:00:00.00 117416 N 0 0 0
0:00:00.00 117704 N 0 0 0
0:00:00.00 117999 N 0 0 0
0:00:00.00 118258 N 0 0 0
0:00:00.00 118534 N 0 0 0
0:00:00.00 118766 N 0 0 0
0:00:00.00 119063 N 0 0 0
0:00:00.00 119362 N 0 0 0
0:00:00.00 119657 N 0 0 0
0:00:00.00 119935 N 0 0 0
0:00:00.00 120169 N 0 0 0
0:00:00.00 120456 N 0 0 0
0:00:00.00 120731 N 0 0 0
0:00:00.00 120967 N 0 0 0
0:00:00.00 121278 N 0 0 0
0:00:00.00 121599 N 0 0 0
0:00:00.00 121851 N 0 0 0
0:00:00.00 122176 N 0 0 0
0:00:00.00 122486 N 0 0 0
0:00:00.00 122810 N 0 0 0
0:00:00.00 123013 N 0 0 0
0:00:00.00 123280 N 0 0 0
0:00:00.00 123625 N 0 0 0
0:00:00.00 123921 N 0 0 0
0:00:00.00 124144 N 0 0 0
0:00:00.00 124438 N 0 0 0
0:00:00.00 124744 N 0 0 0
0:00:00.00 124973 N 0 0 0
0:00:00.00 125274 N 0 0 0
0:00:00.00 125538 N 0 0 0
0:00:00.00 125859 N 0 0 0
0:00:00.00 126100 N 0 0 0
0:00:00.00 126342 N 0 0 0
0:00:00.00 126583 N 0 0 0
0:00:00.00 126809 N 0 0 0
0:00:00.00 127046 N 0 0 0
0:00:00.00 127352 N 0 0 0
0:00:00.00 127633 N 0 0 0
0:00:00.00 127846 N 0 0 0
0:00:00.00 128111 N 0 0 0
0:00:00.00 128379 N 0 0 0
0:00:00.00 128646 N 0 0 0
0:00:00.00 128885 N 0 0 0
0:00:00.00 129161 N 0 0 0
0:00:00.00 129499 N 0 0 0
0:00:00.00 129781 N 0 0 0
0:00:00.00 130067 N 0 0 0
0:00:00.00 130339 N 0 0 0
0:00:00.00 130626 N 0 0 0
0:00:00.00 130957 N 0 0 0
0:00:00.00 131230 N 0 0 0
0:00:00.00 131563 N 0 0 0
0:00:00.00 131859 N 0 0 0
0:00:00.00 132106 N 0 0 0
0:00:00.00 132335 N 0 0 0
0:00:00.00 132630 N 0 0 0
0:00:00.00 132996 N 0 0 0
0:00:00.00 133224 N 0 0 0
0:00:00.00 133549 N 0 0 0
0:00:00.00 133821 N 0 0 0
0:00:00.00 134075 N 0 0 0
0:00:00.00 134307 N 0 0 0
0:00:00.00 134519 N 0 0 0
0:00:00.00 134949 N 0 0 0
0:00:00.00 135172 N 0 0 0
0:00:00.00 135444 N 0 0 0
0:00:00.00 135751 N 0 0 0
0:00:00.00 135958 N 0 0 0
0:00:00.00 136234 N 0 0 0
0:00:00.00 136503 N 0 0 0
0:00:00.00 136736 N 0 0 0
0:00:00.00 137001 N 0 0 0
0:00:00.00 137305 N 0 0 0
0:00:00.00 137609 N 0 0 0
0:00:00.00 137835 N 0 0 0
0:00:00.00 138114 N 0 0 0
0:00:00.00 138376 N 0 0 0
0:00:00.00 138675 N 0 0 0
0:00:00.00 138939 N 0 0 0
0:00:00.00 139189 N 0 0 0
0:00:00.00 139467 N 0 0 0
0:00:00.00 139749 N 0 0 0
0:00:00.00 140051 N 0 0 0
0:00:00.00 140342 N 0 0 0
0:00:00.00 140674 N 0 0 0
0:00:00.00 140877 N 0 0 0
0:00:00.00 141181 N 0 0 0
0:00:00.00 141491 N 0 0 0
0:00:00.00 141748 N 0 0 0
0:00:00.00 142100 N 0 0 0
0:00:00.00 142335 N 0 0 0
0:00:00.00 142600 N 0 0 0
0:00:00.00 142836 N 0 0 0
0:00:00.00 143185 N 0 0 0
0:00:00.00 143439 N 0 0 0
0:00:00.00 143655 N 0 0 0
0:00:00.00 143947 N 0 0 0
0:00:00.00 144223 N 0 0 0
0:00:00.00 144426 N 0 0 0
0:00:00.00 144724 N 0 0 0
0:00:00.00 144948 N 0 0 0
0:00:00.00 145205 N 0 0 0
0:00:00.00 145443 N 0 0 0
0:00:00.00 145683 N 0 0 0
0:00:00.00 145928 N 0 0 0
0:00:00.00 146285 N 0 0 0
0:00:00.00 146597 N 0 0 0
0:00:00.00 146841 N 0 0 0
0:00:00.00 147075 N 0 0 0
0:00:00.00 147318 N 0 0 0
0:00:00.00 147588 N 0 0 0
0:00:00.00 147798 N 0 0 0
0:00:00.00 148069 N 0 0 0
0:00:00.00 148348 N 0 0 0
0:00:00.00 148809 N 0 0 0
0:00:00.00 149075 N 0 0 0
0:00:00.00 149404 N 0 0 0
0:00:00.00 149619 N 0 0 0
0:00:00.00 149873 N 0 0 0
0:00:00.00 150186 N 0 0 0
0:00:00.00 150473 N 0 0 0
0:00:00.00 150726 N 0 0 0
0:00:00.00 150971 N 0 0 0
0:00:00.00 151307 N 0 0 0
0:00:00.00 151577 N 0 0 0
0:00:00.00 151806 N 0 0 0
0:00:00.00 152060 N 0 0 0
0:00:00.00 152287 N 0 0 0
0:00:00.00 152555 N 0 0 0
0:00:00.00 152780 N 0 0 0
0:00:00.00 153052 N 0 0 0
0:00:00.00 153267 N 0 0 0
0:00:00.00 153576 N 0 0 0
0:00:00.00 153864 N 0 0 0
0:00:00.00 154093 N 0 0 0
0:00:00.00 154400 N 0 0 0
0:00:00.00 154669 N 0 0 0
0:00:00.00 154897 N 0 0 0
0:00:00.00 155102 N 0 0 0
0:00:00.00 155396 N 0 0 0
0:00:00.00 155657 N 0 0 0
0:00:00.00 155887 N 0 0 0
0:00:00.00 156161 N 0 0 0
0:00:00.00 156436 N 0 0 0
0:00:00.00 156714 N 0 0 0
0:00:00.00 157004 N 0 0 0
0:00:00.00 157290 N 0 0 0
0:00:00.00 157603 N 0 0 0
0:00:00.00 157902 N 0 0 0
0:00:00.00 158191 N 0 0 0
0:00:00.00 158488 N 0 0 0
0:00:00.00 158794 N 0 0 0
0:00:00.00 159033 N 0 0 0
0:00:00.00 159343 N 0 0 0
0:00:00.00 159641 N 0 0 0
0:00:00.00 159947 N 0 0 0
0:00:00.00 160230 N 0 0 0
0:00:00.00 160523 N 0 0 0
0:00:00.00 160771 N 0 0 0
0:00:00.00 161012 N 0 0 0
0:00:00.00 161288 N 0 0 0
0:00:00.00 161601 N 0 0 0
0:00:00.00 161851 N 0 0 0
0:00:00.00 162155 N 0 0 0
0:00:00.00 162448 N 0 0 0
0:00:00.00 162739 N 0 0 0
0:00:00.00 163059 N 0 0 0
0:00:00.00 163325 N 0 0 0
0:00:00.00 163633 N 0 0 0
0:00:00.00 164094 N 0 0 0
0:00:00.00 164338 N 0 0 0
0:00:00.00 164740 N 0 0 0
0:00:00.00 165065 N 0 0 0
0:00:00.00 165518 N 0 0 0
0:00:00.00 165807 N 0 0 0
0:00:00.00 166131 N 0 0 0
0:00:00.00 166376 N 0 0 0
0:00:00.00 166653 N 0 0 0
0:00:00.00 166966 N 0 0 0
0:00:00.00 167247 N 0 0 0
0:00:00.00 167561 N 0 0 0
0:00:00.00 167848 N 0 0 0
0:00:00.00 168153 N 0 0 0
0:00:00.00 168449 N 0 0 0
0:00:00.00 168857 N 0 0 0
0:00:00.00 169075 N 0 0 0
0:00:00.00 169320 N 0 0 0
0:00:00.00 169587 N 0 0 0
0:00:00.00 169876 N 0 0 0
0:00:00.00 170166 N 0 0 0
0:00:00.00 170449 N 0 0 0
0:00:00.00 170740 N 0 0 0
0:00:00.00 171038 N 0 0 0
0:00:00.00 171325 N 0 0 0
0:00:00.00 171583 N 0 0 0
0:00:00.00 171910 N 0 0 0
0:00:00.00 172214 N 0 0 0
0:00:00.00 172468 N 0 0 0
0:00:00.00 172858 N 0 0 0
0:00:00.00 173168 N 0 0 0
0:00:00.00 173414 N 0 0 0
0:00:00.00 173639 N 0 0 0
0:00:00.00 173995 N 0 0 0
0:00:00.00 174257 N 0 0 0
0:00:00.00 174580 N 0 0 0
0:00:00.00 174812 N 0 0 0
0:00:00.00 175060 N 0 0 0
0:00:00.00 175383 N 0 0 0
0:00:00.00 175670 N 0 0 0
0:00:00.00 175969 N 0 0 0
0:00:00.00 176262 N 0 0 0
0:00:00.00 176521 N 0 0 0
0:00:00.00 176798 N 0 0 0
0:00:00.00 177125 N 0 0 0
0:00:00.00 177335 N 0 0 0
0:00:00.00 177681 N 0 0 0
0:00:00.00 177981 N 0 0 0
0:00:00.00 178200 N 0 0 0
0:00:00.00 178476 N 0 0 0
0:00:00.00 178802 N 0 0 0
0:00:00.00 179106 N 0 0 0
0:00:00.00 179402 N 0 0 0
0:00:00.00 179664 N 0 0 0
0:00:00.00 179981 N 0 0 0
0:00:00.00 180239 N 0 0 0
0:00:00.00 180536 N 0 0 0
0:00:00.00 180838 N 0 0 0
0:00:00.00 181165 N 0 0 0
0:00:00.00 181437 N 0 0 0
0:00:00.00 181735 N 0 0 0
0:00:00.00 182018 N 0 0 0
0:00:00.00 182318 N 0 0 0
0:00:00.00 182549 N 0 0 0
0:00:00.00 182832 N 0 0 0
0:00:00.00 183204 N 0 0 0
0:00:00.00 183798 N 0 0 0
0:00:00.00 184093 N 0 0 0
0:00:00.00 184389 N 0 0 0
0:00:00.00 184677 N 0 0 0
0:00:00.00 184944 N 0 0 0
0:00:00.00 185219 N 0 0 0
0:00:00.00 185496 N 0 0 0
0:00:00.00 185799 N 0 0 0
0:00:00.00 186167 N 0 0 0
0:00:00.00 186509 N 0 0 0
0:00:00.00 186743 N 0 0 0
0:00:00.00 186959 N 0 0 0
0:00:00.00 187251 N 0 0 0
0:00:00.00 187534 N 0 0 0
0:00:00.00 187797 N 0 0 0
0:00:00.00 188059 N 0 0 0
0:00:00.00 188306 N 0 0 0
0:00:00.00 188559 N 0 0 0
0:00:00.00 188761 N 0 0 0
0:00:00.00 189017 N 0 0 0
0:00:00.00 189229 N 0 0 0
0:00:00.00 189471 N 0 0 0
0:00:00.00 189759 N 0 0 0
0:00:00.00 190024 N 0 0 0
0:00:00.00 190363 N 0 0 0
0:00:00.00 190821 N 0 0 0
0:00:00.00 191127 N 0 0 0
0:00:00.00 191563 N 0 0 0
0:00:00.00 191947 N 0 0 0
0:00:00.00 192239 N 0 0 0
0:00:00.00 192544 N 0 0 0
0:00:00.00 192742 N 0 0 0
0:00:00.00 193035 N 0 0 0
0:00:00.00 193325 N 0 0 0
0:00:00.00 193589 N 0 0 0
0:00:00.00 193799 N 0 0 0
0:00:00.00 194150 N 0 0 0
0:00:00.00 194348 N 0 0 0
0:00:00.00 194615 N 0 0 0
0:00:00.00 194905 N 0 0 0
0:00:00.00 195193 N 0 0 0
0:00:00.00 195399 N 0 0 0
0:00:00.00 195763 N 0 0 0
0:00:00.00 196065 N 0 0 0
0:00:00.00 196269 N 0 0 0
0:00:00.00 196611 N 0 0 0
0:00:00.00 196917 N 0 0 0
0:00:00.00 197229 N 0 0 0
0:00:00.00 197537 N 0 0 0
0:00:00.00 197827 N 0 0 0
0:00:00.00 198126 N 0 0 0
0:00:00.00 198345 N 0 0 0
0:00:00.00 198627 N 0 0 0
0:00:00.00 198910 N 0 0 0
0:00:00.00 199166 N 0 0 0
0:00:00.00 199401 N 0 0 0
0:00:00.00 199744 N 0 0 0
0:00:00.00 200090 N 0 0 0
0:00:00.00 200351 N 0 0 0
0:00:00.00 200637 N 0 0 0
0:00:00.00 200926 N 0 0 0
0:00:00.00 201140 N 0 0 0
0:00:00.00 201380 N 0 0 0
0:00:00.00 201707 N 0 0 0
0:00:00.00 202052 N 0 0 0
0:00:00.00 202375 N 0 0 0
0:00:00.00 202672 N 0 0 0
0:00:00.00 203001 N 0 0 0
0:00:00.00 203301 N 0 0 0
0:00:00.00 203586 N 0 0 0
0:00:00.00 203905 N 0 0 0
0:00:00.00 204190 N 0 0 0
0:00:00.00 204480 N 0 0 0
0:00:00.00 204794 N 0 0 0
0:00:00.00 205079 N 0 0 0
0:00:00.00 205358 N 0 0 0
0:00:00.00 205584 N 0 0 0
0:00:00.00 205813 N 0 0 0
0:00:00.00 206100 N 0 0 0
0:00:00.00 206429 N 0 0 0
0:00:00.00 206657 N 0 0 0
0:00:00.00 206934 N 0 0 0
0:00:00.00 207190 N 0 0 0
0:00:00.00 207423 N 0 0 0
0:00:00.00 207715 N 0 0 0
0:00:00.00 208017 N 0 0 0
0:00:00.00 208300 N 0 0 0
0:00:00.00 208561 N 0 0 0
0:00:00.00 208771 N 0 0 0
0:00:00.00 209023 N 0 0 0
0:00:00.00 209283 N 0 0 0
0:00:00.00 209564 N 0 0 0
0:00:00.00 209840 N 0 0 0
0:00:00.00 210119 N 0 0 0
0:00:00.00 210400 N 0 0 0
0:00:00.00 210622 N 0 0 0
0:00:00.00 210968 N 0 0 0
0:00:00.00 211248 N 0 0 0
0:00:00.00 211529 N 0 0 0
0:00:00.00 211795 N 0 0 0
0:00:00.00 212102 N 0 0 0
0:00:00.00 212380 N 0 0 0
0:00:00.00 212612 N 0 0 0
0:00:00.00 212948 N 0 0 0
0:00:00.00 213245 N 0 0 0
0:00:00.00 213531 N 0 0 0
0:00:00.00 213784 N 0 0 0
0:00:00.00 214043 N 0 0 0
0:00:00.00 214348 N 0 0 0
0:00:00.00 214686 N 0 0 0
0:00:00.00 214957 N 0 0 0
0:00:00.00 215249 N 0 0 0
0:00:00.00 215543 N 0 0 0
0:00:00.00 215804 N 0 0 0
0:00:00.00 216017 N 0 0 0
0:00:00.00 216254 N 0 0 0
0:00:00.00 216523 N 0 0 0
0:00:00.00 216806 N 0 0 0
0:00:00.00 217043 N 0 0 0
0:00:00.00 217265 N 0 0 0
0:00:00.00 217523 N 0 0 0
0:00:00.00 217799 N 0 0 0
0:00:00.00 218039 N 0 0 0
0:00:00.00 218454 N 0 0 0
0:00:00.00 218768 N 0 0 0
0:00:00.00 219127 N 0 0 0
0:00:00.00 219490 N 0 0 0
0:00:00.00 219696 N 0 0 0
0:00:00.00 220049 N 0 0 0
0:00:00.00 220251 N 0 0 0
0:00:00.00 220519 N 0 0 0
0:00:00.00 220815 N 0 0 0
0:00:00.00 221060 N 0 0 0
0:00:00.00 221277 N 0 0 0
0:00:00.00 221532 N 0 0 0
0:00:00.00 221806 N 0 0 0
0:00:00.00 222063 N 0 0 0
0:00:00.00 222342 N 0 0 0
0:00:00.00 222590 N 0 0 0
0:00:00.00 222851 N 0 0 0
0:00:00.00 223076 N 0 0 0
0:00:00.00 223364 N 0 0 0
0:00:00.00 223566 N 0 0 0
0:00:00.00 223856 N 0 0 0
0:00:00.00 224172 N 0 0 0
0:00:00.00 224412 N 0 0 0
0:00:00.00 224710 N 0 0 0
0:00:00.00 224979 N 0 0 0
0:00:00.00 225275 N 0 0 0
0:00:00.00 225483 N 0 0 0
0:00:00.00 225779 N 0 0 0
0:00:00.00 226066 N 0 0 0
0:00:00.00 226288 N 0 0 0
0:00:00.00 226584 N 0 0 0
0:00:00.00 226816 N 0 0 0
0:00:00.00 227079 N 0 0 0
0:00:00.00 227374 N 0 0 0
0:00:00.00 227657 N 0 0 0
0:00:00.00 227966 N 0 0 0
0:00:00.00 228231 N 0 0 0
0:00:00.00 228453 N 0 0 0
0:00:00.00 228728 N 0 0 0
0:00:00.00 228994 N 0 0 0
0:00:00.00 229269 N 0 0 0
0:00:00.00 229474 N 0 0 0
0:00:00.00 229739 N 0 0 0
0:00:00.00 230002 N 0 0 0
0:00:00.00 230242 N 0 0 0
0:00:00.00 230520 N 0 0 0
0:00:00.00 230726 N 0 0 0
0:00:00.00 231073 N 0 0 0
0:00:00.00 231285 N 0 0 0
0:00:00.00 231643 N 0 0 0
0:00:00.00 232005 N 0 0 0
0:00:00.00 232224 N 0 0 0
0:00:00.00 232465 N 0 0 0
0:00:00.00 232741 N 0 0 0
0:00:00.00 233037 N 0 0 0
0:00:00.00 233391 N 0 0 0
0:00:00.00 233771 N 0 0 0
0:00:00.00 234047 N 0 0 0
0:00:00.00 234265 N 0 0 0
0:00:00.00 234565 N 0 0 0
0:00:00.00 234920 N 0 0 0
0:00:00.00 235139 N 0 0 0
0:00:00.00 235424 N 0 0 0
0:00:00.00 235807 N 0 0 0
0:00:00.00 236176 N 0 0 0
0:00:00.00 236452 N 0 0 0
0:00:00.00 236757 N 0 0 0
0:00:00.00 237022 N 0 0 0
0:00:00.00 237252 N 0 0 0
0:00:00.00 237500 N 0 0 0
0:00:00.00 237764 N 0 0 0
0:00:00.00 237991 N 0 0 0
0:00:00.00 238249 N 0 0 0
0:00:00.00 238572 N 0 0 0
0:00:00.00 238853 N 0 0 0
0:00:00.00 239130 N 0 0 0
0:00:00.00 239492 N 0 0 0
0:00:00.00 239767 N 0 0 0
0:00:00.00 240071 N 0 0 0
0:00:00.00 240392 N 0 0 0
0:00:00.00 240705 N 0 0 0
0:00:00.00 240982 N 0 0 0
0:00:00.00 241296 N 0 0 0
0:00:00.00 241553 N 0 0 0
0:00:00.00 241836 N 0 0 0
0:00:00.00 242135 N 0 0 0
0:00:00.00 242454 N 0 0 0
0:00:00.00 242675 N 0 0 0
0:00:00.00 242952 N 0 0 0
0:00:00.00 243233 N 0 0 0
0:00:00.00 243501 N 0 0 0
0:00:00.00 243834 N 0 0 0
0:00:00.00 244115 N 0 0 0
0:00:00.00 244415 N 0 0 0
0:00:00.00 244668 N 0 0 0
0:00:00.00 244922 N 0 0 0
0:00:00.00 245167 N 0 0 0
0:00:00.00 245504 N 0 0 0
0:00:00.00 245822 N 0 0 0
0:00:00.00 246172 N 0 0 0
0:00:00.00 246440 N 0 0 0
0:00:00.00 246755 N 0 0 0
0:00:00.00 247152 N 0 0 0
0:00:00.00 247404 N 0 0 0
0:00:00.00 247622 N 0 0 0
0:00:00.00 247935 N 0 0 0
0:00:00.00 248209 N 0 0 0
0:00:00.00 248416 N 0 0 0
0:00:00.00 248743 N 0 0 0
0:00:00.00 249034 N 0 0 0
0:00:00.00 249379 N 0 0 0
0:00:00.00 249632 N 0 0 0
0:00:00.00 249906 N 0 0 0
0:00:00.00 250244 N 0 0 0
0:00:00.00 250769 N 0 0 0
0:00:00.00 251056 N 0 0 0
0:00:00.00 251328 N 0 0 0
0:00:00.00 251646 N 0 0 0
0:00:00.00 251896 N 0 0 0
0:00:00.00 252128 N 0 0 0
0:00:00.00 252438 N 0 0 0
0:00:00.00 252713 N 0 0 0
0:00:00.00 252937 N 0 0 0
0:00:00.00 253140 N 0 0 0
0:00:00.00 253511 N 0 0 0
0:00:00.00 253725 N 0 0 0
0:00:00.00 254084 N 0 0 0
0:00:00.00 254293 N 0 0 0
0:00:00.00 254522 N 0 0 0
0:00:00.00 254780 N 0 0 0
0:00:00.00 255044 N 0 0 0
0:00:00.00 255272 N 0 0 0
0:00:00.00 255560 N 0 0 0
0:00:00.00 255816 N 0 0 0
0:00:00.00 256110 N 0 0 0
0:00:00.00 256392 N 0 0 0
0:00:00.00 256640 N 0 0 0
0:00:00.00 256875 N 0 0 0
0:00:00.00 257326 N 0 0 0
0:00:00.00 257608 N 0 0 0
0:00:00.00 257830 N 0 0 0
0:00:00.00 258131 N 0 0 0
0:00:00.00 258402 N 0 0 0
0:00:00.00 258681 N 0 0 0
0:00:00.00 258914 N 0 0 0
0:00:00.00 259197 N 0 0 0
0:00:00.00 259405 N 0 0 0
0:00:00.00 259733 N 0 0 0
0:00:00.00 259976 N 0 0 0
0:00:00.00 260265 N 0 0 0
0:00:00.00 260571 N 0 0 0
0:00:00.00 260791 N 0 0 0
0:00:00.00 261098 N 0 0 0
0:00:00.00 261326 N 0 0 0
0:00:00.00 261665 N 0 0 0
0:00:00.00 261992 N 0 0 0
0:00:00.00 262307 N 0 0 0
0:00:00.00 262572 N 0 0 0
0:00:00.00 262923 N 0 0 0
0:00:00.00 263240 N 0 0 0
0:00:00.00 263449 N 0 0 0
0:00:00.00 263787 N 0 0 0
0:00:00.00 264010 N 0 0 0
0:00:00.00 264323 N 0 0 0
0:00:00.00 264528 N 0 0 0
0:00:00.00 264844 N 0 0 0
0:00:00.00 265159 N 0 0 0
0:00:00.00 265464 N 0 0 0
0:00:00.00 265666 N 0 0 0
0:00:00.00 265978 N 0 0 0
0:00:00.00 266210 N 0 0 0
0:00:00.00 266546 N 0 0 0
0:00:00.00 267015 N 0 0 0
0:00:00.00 267241 N 0 0 0
0:00:00.00 267517 N 0 0 0
0:00:00.00 267754 N 0 0 0
0:00:00.00 268026 N 0 0 0
0:00:00.00 268235 N 0 0 0
0:00:00.00 268451 N 0 0 0
0:00:00.00 268789 N 0 0 0
0:00:00.00 269083 N 0 0 0
0:00:00.00 269392 N 0 0 0
0:00:00.00 269673 N 0 0 0
0:00:00.00 269900 N 0 0 0
0:00:00.00 270156 N 0 0 0
0:00:00.00 270470 N 0 0 0
0:00:00.00 270775 N 0 0 0
0:00:00.00 270974 N 0 0 0
0:00:00.00 271323 N 0 0 0
0:00:00.00 271588 N 0 0 0
0:00:00.00 271828 N 0 0 0
0:00:00.00 272118 N 0 0 0
0:00:00.00 272336 N 0 0 0
0:00:00.00 272642 N 0 0 0
0:00:00.00 272941 N 0 0 0
0:00:00.00 273214 N 0 0 0
0:00:00.00 273479 N 0 0 0
0:00:00.00 273722 N 0 0 0
0:00:00.00 273960 N 0 0 0
0:00:00.00 274294 N 0 0 0
0:00:00.00 274626 N 0 0 0
0:00:00.00 274884 N 0 0 0
0:00:00.00 275190 N 0 0 0
0:00:00.00 275513 N 0 0 0
0:00:00.00 275842 N 0 0 0
0:00:00.00 276107 N 0 0 0
0:00:00.00 276351 N 0 0 0
0:00:00.00 276711 N 0 0 0
0:00:00.00 276981 N 0 0 0
0:00:00.00 277318 N 0 0 0
0:00:00.00 277515 N 0 0 0
0:00:00.00 277856 N 0 0 0
0:00:00.00 278061 N 0 0 0
0:00:00.00 278340 N 0 0 0
0:00:00.00 278602 N 0 0 0
0:00:00.00 278795 N 0 0 0
0:00:00.00 279045 N 0 0 0
0:00:00.00 279266 N 0 0 0
0:00:00.00 279579 N 0 0 0
0:00:00.00 279847 N 0 0 0
0:00:00.00 280179 N 0 0 0
0:00:00.00 280479 N 0 0 0
0:00:00.00 280872 N 0 0 0
0:00:00.00 281155 N 0 0 0
0:00:00.00 281417 N 0 0 0
0:00:00.00 281671 N 0 0 0
0:00:00.00 282054 N 0 0 0
0:00:00.00 282339 N 0 0 0
0:00:00.00 282655 N 0 0 0
0:00:00.00 282935 N 0 0 0
0:00:00.00 283260 N 0 0 0
0:00:00.00 283602 N 0 0 0
0:00:00.00 283863 N 0 0 0
0:00:00.00 284061 N 0 0 0
0:00:00.00 284382 N 0 0 0
0:00:00.00 284588 N 0 0 0
0:00:00.00 284903 N 0 0 0
0:00:00.00 285196 N 0 0 0
0:00:00.00 285416 N 0 0 0
0:00:00.00 285615 N 0 0 0
0:00:00.00 285881 N 0 0 0
0:00:00.00 286151 N 0 0 0
0:00:00.00 286439 N 0 0 0
0:00:00.00 286658 N 0 0 0
0:00:00.00 286944 N 0 0 0
0:00:00.00 287159 N 0 0 0
0:00:00.00 287623 N 0 0 0
0:00:00.00 287944 N 0 0 0
0:00:00.00 288236 N 0 0 0
0:00:00.00 288476 N 0 0 0
0:00:00.00 288769 N 0 0 0
0:00:00.00 289083 N 0 0 0
0:00:00.00 289355 N 0 0 0
0:00:00.00 289685 N 0 0 0
0:00:00.00 289973 N 0 0 0
0:00:00.00 290257 N 0 0 0
0:00:00.00 290520 N 0 0 0
0:00:00.00 290749 N 0 0 0
0:00:00.00 291024 N 0 0 0
0:00:00.00 291327 N 0 0 0
0:00:00.00 291556 N 0 0 0
0:00:00.00 291866 N 0 0 0
0:00:00.00 292175 N 0 0 0
0:00:00.00 292512 N 0 0 0
0:00:00.00 292842 N 0 0 0
0:00:00.00 293201 N 0 0 0
0:00:00.00 293462 N 0 0 0
0:00:00.00 293698 N 0 0 0
0:00:00.00 293944 N 0 0 0
0:00:00.00 294227 N 0 0 0
0:00:00.00 294488 N 0 0 0
0:00:00.00 294805 N 0 0 0
0:00:00.00 295134 N 0 0 0
0:00:00.00 295351 N 0 0 0
0:00:00.00 295676 N 0 0 0
0:00:00.00 295943 N 0 0 0
0:00:00.00 296261 N 0 0 0
0:00:00.00 296523 N 0 0 0
0:00:00.00 296769 N 0 0 0
0:00:00.00 297071 N 0 0 0
0:00:00.00 297358 N 0 0 0
0:00:00.00 297595 N 0 0 0
0:00:00.00 297823 N 0 0 0
0:00:00.00 298087 N 0 0 0
0:00:00.00 298604 N 0 0 0
0:00:00.00 298820 N 0 0 0
0:00:00.00 299197 N 0 0 0
0:00:00.00 299394 N 0 0 0
0:00:00.00 299764 N 0 0 0
0:00:00.00 300082 N 0 0 0
0:00:00.00 301004 N 0 0 0
0:00:00.00 301336 N 0 0 0
0:00:00.00 301583 N 0 0 0
0:00:00.00 301942 N 0 0 0
0:00:00.00 302498 N 0 0 0
0:00:00.00 302797 N 0 0 0
0:00:00.00 303146 N 0 0 0
0:00:00.00 303430 N 0 0 0
0:00:00.00 303765 N 0 0 0
0:00:00.00 304384 N 0 0 0
0:00:00.00 304683 N 0 0 0
0:00:00.00 304991 N 0 0 0
0:00:00.00 305288 N 0 0 0
0:00:00.00 305567 N 0 0 0
0:00:00.00 306103 N 0 0 0
0:00:00.00 306422 N 0 0 0
0:00:00.00 306748 N 0 0 0
0:00:00.00 307024 N 0 0 0
0:00:00.00 307324 N 0 0 0
0:00:00.00 307567 N 0 0 0
0:00:00.00 307839 N 0 0 0
0:00:00.00 308105 N 0 0 0
0:00:00.00 308358 N 0 0 0
0:00:00.00 308582 N 0 0 0
0:00:00.00 308853 N 0 0 0
0:00:00.00 309154 N 0 0 0
0:00:00.00 309384 N 0 0 0
0:00:00.00 309666 N 0 0 0
0:00:00.00 309962 N 0 0 0
0:00:00.00 310271 N 0 0 0
0:00:00.00 310602 N 0 0 0
0:00:00.00 310934 N 0 0 0
0:00:00.00 311229 N 0 0 0
0:00:00.00 311452 N 0 0 0
0:00:00.00 311715 N 0 0 0
0:00:00.00 311943 N 0 0 0
0:00:00.00 312215 N 0 0 0
0:00:00.00 312513 N 0 0 0
0:00:00.00 312711 N 0 0 0
0:00:00.00 312959 N 0 0 0
0:00:00.00 313230 N 0 0 0
0:00:00.00 313440 N 0 0 0
0:00:00.00 313747 N 0 0 0
0:00:00.00 314155 N 0 0 0
0:00:00.00 314372 N 0 0 0
0:00:00.00 314624 N 0 0 0
0:00:00.00 314852 N 0 0 0
0:00:00.00 315165 N 0 0 0
0:00:00.00 315360 N 0 0 0
0:00:00.00 315640 N 0 0 0
0:00:00.00 315918 N 0 0 0
0:00:00.00 316139 N 0 0 0
0:00:00.00 316390 N 0 0 0
0:00:00.00 316636 N 0 0 0
0:00:00.00 316872 N 0 0 0
0:00:00.00 317192 N 0 0 0
0:00:00.00 317388 N 0 0 0
0:00:00.00 317706 N 0 0 0
0:00:00.00 317983 N 0 0 0
0:00:00.00 318263 N 0 0 0
0:00:00.00 318524 N 0 0 0
0:00:00.00 318778 N 0 0 0
0:00:00.00 319094 N 0 0 0
0:00:00.00 319343 N 0 0 0
0:00:00.00 319637 N 0 0 0
0:00:00.00 319933 N 0 0 0
0:00:00.00 320202 N 0 0 0
0:00:00.00 320459 N 0 0 0
0:00:00.00 320690 N 0 0 0
0:00:00.00 320950 N 0 0 0
0:00:00.00 321260 N 0 0 0
0:00:00.00 321835 N 0 0 0
0:00:00.00 322164 N 0 0 0
0:00:00.00 322728 N 0 0 0
0:00:00.00 323049 N 0 0 0
0:00:00.00 323607 N 0 0 0
0:00:00.00 323908 N 0 0 0
0:00:00.00 324470 N 0 0 0
0:00:00.00 324762 N 0 0 0
0:00:00.00 325306 N 0 0 0
0:00:00.00 325599 N 0 0 0
0:00:00.00 326130 N 0 0 0
0:00:00.00 326453 N 0 0 0
0:00:00.00 326740 N 0 0 0
0:00:00.00 327012 N 0 0 0
0:00:00.00 327283 N 0 0 0
0:00:00.00 327537 N 0 0 0
0:00:00.00 327817 N 0 0 0
0:00:00.00 328031 N 0 0 0
0:00:00.00 328328 N 0 0 0
0:00:00.00 328563 N 0 0 0
0:00:00.00 328877 N 0 0 0
0:00:00.00 329148 N 0 0 0
0:00:00.00 329351 N 0 0 0
0:00:00.00 329627 N 0 0 0
0:00:00.00 329890 N 0 0 0
0:00:00.00 330126 N 0 0 0
0:00:00.00 330452 N 0 0 0
0:00:00.00 330769 N 0 0 0
0:00:00.00 331328 N 0 0 0
0:00:00.00 331642 N 0 0 0
0:00:00.00 332188 N 0 0 0
0:00:00.00 332486 N 0 0 0
0:00:00.00 333035 N 0 0 0
0:00:00.00 333324 N 0 0 0
0:00:00.00 333883 N 0 0 0
0:00:00.00 334169 N 0 0 0
0:00:00.00 334702 N 0 0 0
0:00:00.00 335002 N 0 0 0
0:00:00.00 335543 N 0 0 0
0:00:00.00 335836 N 0 0 0
0:00:00.00 336383 N 0 0 0
0:00:00.00 336686 N 0 0 0
0:00:00.00 337220 N 0 0 0
0:00:00.00 337522 N 0 0 0
0:00:00.00 338051 N 0 0 0
0:00:00.00 338340 N 0 0 0
0:00:00.00 338885 N 0 0 0
0:00:00.00 339172 N 0 0 0
0:00:00.00 339466 N 0 0 0
0:00:00.00 339732 N 0 0 0
0:00:00.00 340328 N 0 0 0
0:00:00.00 340638 N 0 0 0
0:00:00.00 341202 N 0 0 0
0:00:00.00 341501 N 0 0 0
0:00:00.00 342037 N 0 0 0
0:00:00.00 342333 N 0 0 0
0:00:00.00 342868 N 0 0 0
0:00:00.00 343157 N 0 0 0
0:00:00.00 343687 N 0 0 0
0:00:00.00 343986 N 0 0 0
0:00:00.00 344519 N 0 0 0
0:00:00.00 344814 N 0 0 0
0:00:00.00 345355 N 0 0 0
0:00:00.00 345633 N 0 0 0
0:00:00.00 346031 N 0 0 0
0:00:00.00 346585 N 0 0 0
0:00:00.00 346882 N 0 0 0
0:00:00.00 347426 N 0 0 0
0:00:00.00 347724 N 0 0 0
0:00:00.00 348248 N 0 0 0
0:00:00.00 348809 N 0 0 0
0:00:00.00 349098 N 0 0 0
0:00:00.00 349621 N 0 0 0
0:00:00.00 349921 N 0 0 0
0:00:00.00 350453 N 0 0 0
0:00:00.00 350744 N 0 0 0
0:00:00.00 351284 N 0 0 0
0:00:00.00 351832 N 0 0 0
0:00:00.00 352126 N 0 0 0
0:00:00.00 352661 N 0 0 0
0:00:00.00 352949 N 0 0 0
0:00:00.00 353490 N 0 0 0
0:00:00.00 354024 N 0 0 0
0:00:00.00 354329 N 0 0 0
0:00:00.00 354854 N 0 0 0
0:00:00.00 355156 N 0 0 0
0:00:00.00 355685 N 0 0 0
0:00:00.00 355980 N 0 0 0
0:00:00.00 356495 N 0 0 0
0:00:00.00 356786 N 0 0 0
0:00:00.00 357306 N 0 0 0
0:00:00.00 357605 N 0 0 0
0:00:00.00 358139 N 0 0 0
0:00:00.00 358442 N 0 0 0
0:00:00.00 358962 N 0 0 0
0:00:00.00 359268 N 0 0 0
0:00:00.00 359813 N 0 0 0
0:00:00.00 360342 N 0 0 0
0:00:00.00 360883 N 0 0 0
0:00:00.00 361405 N 0 0 0
0:00:00.00 361697 N 0 0 0
0:00:00.00 362217 N 0 0 0
0:00:00.00 362512 N 0 0 0
0:00:00.00 363038 N 0 0 0
0:00:00.00 363592 N 0 0 0
0:00:00.00 363876 N 0 0 0
0:00:00.00 364401 N 0 0 0
0:00:00.00 364949 N 0 0 0
0:00:00.00 365146 N 0 0 0
0:00:00.00 365498 N 0 0 0
0:00:00.00 366043 N 0 0 0
0:00:00.00 366324 N 0 0 0
0:00:00.00 366847 N 0 0 0
0:00:00.00 367142 N 0 0 0
0:00:00.00 367662 N 0 0 0
0:00:00.00 367958 N 0 0 0
0:00:00.00 368482 N 0 0 0
0:00:00.00 369031 N 0 0 0
0:00:00.00 369571 N 0 0 0
0:00:00.00 370108 N 0 0 0
0:00:00.00 370307 N 0 0 0
0:00:00.00 370656 N 0 0 0
0:00:00.00 371195 N 0 0 0
0:00:00.00 371484 N 0 0 0
0:00:00.00 372017 N 0 0 0
0:00:00.00 372553 N 0 0 0
0:00:00.00 373106 N 0 0 0
0:00:00.00 373392 N 0 0 0
0:00:00.00 373906 N 0 0 0
0:00:00.00 374185 N 0 0 0
0:00:00.00 374483 N 0 0 0
0:00:00.00 374773 N 0 0 0
0:00:00.00 375063 N 0 0 0
0:00:00.00 375366 N 0 0 0
0:00:00.00 375674 N 0 0 0
0:00:00.00 376230 N 0 0 0
0:00:00.00 376789 N 0 0 0
0:00:00.00 377335 N 0 0 0
0:00:00.00 377728 N 0 0 0
0:00:00.00 377976 N 0 0 0
0:00:00.00 378171 N 0 0 0
0:00:00.00 378437 N 0 0 0
0:00:00.00 378627 N 0 0 0
0:00:00.00 378842 N 0 0 0
0:00:00.00 379111 N 0 0 0
0:00:00.00 379358 N 0 0 0
0:00:00.00 379609 N 0 0 0
0:00:00.00 379895 N 0 0 0
0:00:00.00 380126 N 0 0 0
0:00:00.00 380405 N 0 0 0
0:00:00.00 380642 N 0 0 0
0:00:00.00 380882 N 0 0 0
0:00:00.00 381334 N 0 0 0
0:00:00.00 381666 N 0 0 0
0:00:00.00 381975 N 0 0 0
0:00:00.00 382288 N 0 0 0
0:00:00.00 382595 N 0 0 0
0:00:00.00 382908 N 0 0 0
0:00:00.00 383216 N 0 0 0
0:00:00.00 383518 N 0 0 0
0:00:00.00 384074 N 0 0 0
0:00:00.00 384380 N 0 0 0
0:00:00.00 384684 N 0 0 0
0:00:00.00 384987 N 0 0 0
0:00:00.00 385298 N 0 0 0
0:00:00.00 385601 N 0 0 0
0:00:00.00 385907 N 0 0 0
0:00:00.00 386213 N 0 0 0
0:00:00.00 386521 N 0 0 0
0:00:00.00 386836 N 0 0 0
0:00:00.00 387371 N 0 0 0
0:00:00.00 387934 N 0 0 0
0:00:00.00 388475 N 0 0 0
0:00:00.00 388780 N 0 0 0
0:00:00.00 389080 N 0 0 0
0:00:00.00 389392 N 0 0 0
0:00:00.00 389913 N 0 0 0
0:00:00.00 390230 N 0 0 0
0:00:00.00 390536 N 0 0 0
0:00:00.00 390745 N 0 0 0
0:00:00.00 391003 N 0 0 0
0:00:00.00 391377 N 0 0 0
0:00:00.00 391938 N 0 0 0
0:00:00.00 392482 N 0 0 0
0:00:00.00 393042 N 0 0 0
0:00:00.00 393580 N 0 0 0
0:00:00.00 394120 N 0 0 0
0:00:00.00 394419 N 0 0 0
0:00:00.00 394706 N 0 0 0
0:00:00.00 395266 N 0 0 0
0:00:00.00 395558 N 0 0 0
0:00:00.00 396074 N 0 0 0
0:00:00.00 396377 N 0 0 0
0:00:00.00 396902 N 0 0 0
0:00:00.00 397200 N 0 0 0
0:00:00.00 397509 N 0 0 0
0:00:00.00 398041 N 0 0 0
0:00:00.00 398341 N 0 0 0
0:00:00.00 398871 N 0 0 0
0:00:00.00 399177 N 0 0 0
0:00:00.00 399478 N 0 0 0
0:00:00.00 399769 N 0 0 0
0:00:00.00 400305 N 0 0 0
0:00:00.00 400848 N 0 0 0
0:00:00.00 401392 N 0 0 0
0:00:00.00 401888 N 0 0 0
0:00:00.00 402188 N 0 0 0
0:00:00.00 402525 N 0 0 0
0:00:00.00 402786 N 0 0 0
0:00:00.00 403014 N 0 0 0
0:00:00.00 403240 N 0 0 0
0:00:00.00 403489 N 0 0 0
0:00:00.00 403729 N 0 0 0
0:00:00.00 403936 N 0 0 0
0:00:00.00 404231 N 0 0 0
0:00:00.00 404501 N 0 0 0
0:00:00.00 404857 N 0 0 0
0:00:00.00 405213 N 0 0 0
0:00:00.00 405511 N 0 0 0
0:00:00.00 405747 N 0 0 0
0:00:00.00 405991 N 0 0 0
0:00:00.00 406199 N 0 0 0
0:00:00.00 406461 N 0 0 0
0:00:00.00 406672 N 0 0 0
0:00:00.00 406915 N 0 0 0
0:00:00.00 407232 N 0 0 0
0:00:00.00 407489 N 0 0 0
0:00:00.00 407716 N 0 0 0
0:00:00.00 408010 N 0 0 0
0:00:00.00 408212 N 0 0 0
0:00:00.00 408505 N 0 0 0
0:00:00.00 408751 N 0 0 0
0:00:00.00 409004 N 0 0 0
0:00:00.00 409309 N 0 0 0
0:00:00.00 409594 N 0 0 0
0:00:00.00 409889 N 0 0 0
0:00:00.00 410133 N 0 0 0
0:00:00.00 410371 N 0 0 0
0:00:00.00 410683 N 0 0 0
0:00:00.00 411032 N 0 0 0
0:00:00.00 411354 N 0 0 0
0:00:00.00 411661 N 0 0 0
0:00:00.00 411864 N 0 0 0
0:00:00.00 412214 N 0 0 0
0:00:00.00 412421 N 0 0 0
0:00:00.00 412749 N 0 0 0
0:00:00.00 413298 N 0 0 0
0:00:00.00 413617 N 0 0 0
0:00:00.00 413915 N 0 0 0
0:00:00.00 414220 N 0 0 0
0:00:00.00 414515 N 0 0 0
0:00:00.00 414834 N 0 0 0
0:00:00.00 415151 N 0 0 0
0:00:00.00 415462 N 0 0 0
0:00:00.00 415815 N 0 0 0
0:00:00.00 416114 N 0 0 0
0:00:00.00 416431 N 0 0 0
0:00:00.00 416755 N 0 0 0
0:00:00.00 417070 N 0 0 0
0:00:00.00 417390 N 0 0 0
0:00:00.00 417964 N 0 0 0
0:00:00.00 418523 N 0 0 0
0:00:00.00 418840 N 0 0 0
0:00:00.00 419148 N 0 0 0
0:00:00.00 419450 N 0 0 0
0:00:00.00 419761 N 0 0 0
0:00:00.00 420070 N 0 0 0
0:00:00.00 420380 N 0 0 0
0:00:00.00 420957 N 0 0 0
0:00:00.00 421522 N 0 0 0
0:00:00.00 422070 N 0 0 0
0:00:00.00 422623 N 0 0 0
0:00:00.00 423161 N 0 0 0
0:00:00.00 423465 N 0 0 0
0:00:00.00 423772 N 0 0 0
0:00:00.00 424065 N 0 0 0
0:00:00.00 424597 N 0 0 0
0:00:00.00 424910 N 0 0 0
0:00:00.00 425208 N 0 0 0
0:00:00.00 425514 N 0 0 0
0:00:00.00 425816 N 0 0 0
0:00:00.00 426126 N 0 0 0
0:00:00.00 426437 N 0 0 0
0:00:00.00 426985 N 0 0 0
0:00:00.00 427546 N 0 0 0
0:00:00.00 428092 N 0 0 0
0:00:00.00 428649 N 0 0 0
0:00:00.00 428840 N 0 0 0
0:00:00.00 429191 N 0 0 0
0:00:00.00 429738 N 0 0 0
0:00:00.00 430032 N 0 0 0
0:00:00.00 430320 N 0 0 0
0:00:00.00 430615 N 0 0 0
0:00:00.00 430919 N 0 0 0
0:00:00.00 431214 N 0 0 0
0:00:00.00 431517 N 0 0 0
0:00:00.00 431829 N 0 0 0
0:00:00.00 432151 N 0 0 0
0:00:00.00 432472 N 0 0 0
0:00:00.00 433042 N 0 0 0
0:00:00.00 433618 N 0 0 0
0:00:00.00 433940 N 0 0 0
0:00:00.00 434246 N 0 0 0
0:00:00.00 434557 N 0 0 0
0:00:00.00 435083 N 0 0 0
0:00:00.00 435390 N 0 0 0
0:00:00.00 435697 N 0 0 0
0:00:00.00 436009 N 0 0 0
0:00:00.00 436543 N 0 0 0
0:00:00.00 437110 N 0 0 0
0:00:00.00 437653 N 0 0 0
0:00:00.00 437847 N 0 0 0
0:00:00.00 438208 N 0 0 0
0:00:00.00 438409 N 0 0 0
0:00:00.00 438754 N 0 0 0
0:00:00.00 438944 N 0 0 0
0:00:00.00 439173 N 0 0 0
0:00:00.00 439402 N 0 0 0
0:00:00.00 439827 N 0 0 0
0:00:00.00 440119 N 0 0 0
0:00:00.00 440351 N 0 0 0
0:00:00.00 440584 N 0 0 0
0:00:00.00 440863 N 0 0 0
0:00:00.00 441151 N 0 0 0
0:00:00.00 441427 N 0 0 0
0:00:00.00 441645 N 0 0 0
0:00:00.00 441940 N 0 0 0
0:00:00.00 442257 N 0 0 0
0:00:00.00 442545 N 0 0 0
0:00:00.00 442809 N 0 0 0
0:00:00.00 443037 N 0 0 0
0:00:00.00 443351 N 0 0 0
0:00:00.00 443666 N 0 0 0
0:00:00.00 443941 N 0 0 0
0:00:00.00 444205 N 0 0 0
0:00:00.00 444462 N 0 0 0
0:00:00.00 444769 N 0 0 0
0:00:00.00 445072 N 0 0 0
0:00:00.00 445373 N 0 0 0
0:00:00.00 445709 N 0 0 0
0:00:00.00 445942 N 0 0 0
0:00:00.00 446206 N 0 0 0
0:00:00.00 446433 N 0 0 0
0:00:00.00 446699 N 0 0 0
0:00:00.00 446957 N 0 0 0
0:00:00.00 447262 N 0 0 0
0:00:00.00 447518 N 0 0 0
0:00:00.00 447870 N 0 0 0
0:00:00.00 448180 N 0 0 0
0:00:00.00 448407 N 0 0 0
0:00:00.00 448679 N 0 0 0
0:00:00.00 448997 N 0 0 0
0:00:00.00 449311 N 0 0 0
0:00:00.00 449636 N 0 0 0
0:00:00.00 449919 N 0 0 0
0:00:00.00 450132 N 0 0 0
0:00:00.00 450433 N 0 0 0
0:00:00.00 450710 N 0 0 0
0:00:00.00 451153 N 0 0 0
0:00:00.00 451499 N 0 0 0
0:00:00.00 451773 N 0 0 0
0:00:00.00 452011 N 0 0 0
0:00:00.00 452239 N 0 0 0
0:00:00.00 452501 N 0 0 0
0:00:00.00 452701 N 0 0 0
0:00:00.00 453071 N 0 0 0
0:00:00.00 453386 N 0 0 0
0:00:00.00 453652 N 0 0 0
0:00:00.00 453991 N 0 0 0
0:00:00.00 454516 N 0 0 0
0:00:00.00 454803 N 0 0 0
0:00:00.00 454994 N 0 0 0
0:00:00.00 455232 N 0 0 0
0:00:00.00 455477 N 0 0 0
0:00:00.00 455692 N 0 0 0
0:00:00.00 455976 N 0 0 0
0:00:00.00 456312 N 0 0 0
0:00:00.00 456539 N 0 0 0
0:00:00.00 456756 N 0 0 0
0:00:00.00 457084 N 0 0 0
0:00:00.00 457365 N 0 0 0
0:00:00.00 457637 N 0 0 0
0:00:00.00 457952 N 0 0 0
0:00:00.00 458191 N 0 0 0
0:00:00.00 458466 N 0 0 0
0:00:00.00 458778 N 0 0 0
0:00:00.00 459051 N 0 0 0
0:00:00.00 459300 N 0 0 0
0:00:00.00 459589 N 0 0 0
0:00:00.00 459910 N 0 0 0
0:00:00.00 460118 N 0 0 0
0:00:00.00 460413 N 0 0 0
0:00:00.00 460697 N 0 0 0
0:00:00.00 460930 N 0 0 0
0:00:00.00 461231 N 0 0 0
0:00:00.00 461513 N 0 0 0
0:00:00.00 461766 N 0 0 0
0:00:00.00 462070 N 0 0 0
0:00:00.00 462371 N 0 0 0
0:00:00.00 462597 N 0 0 0
0:00:00.00 462867 N 0 0 0
0:00:00.00 463106 N 0 0 0
0:00:00.00 463422 N 0 0 0
0:00:00.00 463679 N 0 0 0
0:00:00.00 463902 N 0 0 0
0:00:00.00 464185 N 0 0 0
0:00:00.00 464434 N 0 0 0
0:00:00.00 464756 N 0 0 0
0:00:00.00 465088 N 0 0 0
0:00:00.00 465449 N 0 0 0
0:00:00.00 465832 N 0 0 0
0:00:00.00 466132 N 0 0 0
0:00:00.00 466394 N 0 0 0
0:00:00.00 466691 N 0 0 0
0:00:00.00 466972 N 0 0 0
0:00:00.00 467190 N 0 0 0
0:00:00.00 467454 N 0 0 0
0:00:00.00 467753 N 0 0 0
0:00:00.00 468032 N 0 0 0
0:00:00.00 468346 N 0 0 0
0:00:00.00 468563 N 0 0 0
0:00:00.00 468850 N 0 0 0
0:00:00.00 469148 N 0 0 0
0:00:00.00 469459 N 0 0 0
0:00:00.00 469846 N 0 0 0
0:00:00.00 470171 N 0 0 0
0:00:00.00 470449 N 0 0 0
0:00:00.00 470743 N 0 0 0
0:00:00.00 470964 N 0 0 0
0:00:00.00 471322 N 0 0 0
0:00:00.00 471667 N 0 0 0
0:00:00.00 471986 N 0 0 0
0:00:00.00 472259 N 0 0 0
0:00:00.00 472587 N 0 0 0
0:00:00.00 472839 N 0 0 0
0:00:00.00 473094 N 0 0 0
0:00:00.00 473325 N 0 0 0
0:00:00.00 473544 N 0 0 0
0:00:00.00 473856 N 0 0 0
0:00:00.00 474117 N 0 0 0
0:00:00.00 474335 N 0 0 0
0:00:00.00 474702 N 0 0 0
0:00:00.00 474976 N 0 0 0
0:00:00.00 475208 N 0 0 0
0:00:00.00 475506 N 0 0 0
0:00:00.00 475782 N 0 0 0
0:00:00.00 475984 N 0 0 0
0:00:00.00 476298 N 0 0 0
0:00:00.00 476586 N 0 0 0
0:00:00.00 476876 N 0 0 0
0:00:00.00 477091 N 0 0 0
0:00:00.00 477458 N 0 0 0
0:00:00.00 477775 N 0 0 0
0:00:00.00 478098 N 0 0 0
0:00:00.00 478298 N 0 0 0
0:00:00.00 478576 N 0 0 0
0:00:00.00 478878 N 0 0 0
0:00:00.00 479189 N 0 0 0
0:00:00.00 479459 N 0 0 0
0:00:00.00 479688 N 0 0 0
0:00:00.00 480005 N 0 0 0
0:00:00.00 481113 N 0 0 0
0:00:00.00 481439 N 0 0 0
0:00:00.00 481719 N 0 0 0
0:00:00.00 482012 N 0 0 0
0:00:00.00 482552 N 0 0 0
0:00:00.00 482839 N 0 0 0
0:00:00.00 483371 N 0 0 0
0:00:00.00 483665 N 0 0 0
0:00:00.00 484212 N 0 0 0
0:00:00.00 484505 N 0 0 0
0:00:00.00 484994 N 0 0 0
0:00:00.00 485405 N 0 0 0
0:00:00.00 485978 N 0 0 0
0:00:00.00 486278 N 0 0 0
0:00:00.00 486817 N 0 0 0
0:00:00.00 487109 N 0 0 0
0:00:00.00 487660 N 0 0 0
0:00:00.00 487949 N 0 0 0
0:00:00.00 488495 N 0 0 0
0:00:00.00 488792 N 0 0 0
0:00:00.00 489326 N 0 0 0
0:00:00.00 489620 N 0 0 0
0:00:00.00 490169 N 0 0 0
0:00:00.00 490457 N 0 0 0
0:00:00.00 490989 N 0 0 0
0:00:00.00 491289 N 0 0 0
0:00:00.00 491824 N 0 0 0
0:00:00.00 492116 N 0 0 0
0:00:00.00 492659 N 0 0 0
0:00:00.00 493218 N 0 0 0
0:00:00.00 493520 N 0 0 0
0:00:00.00 494035 N 0 0 0
0:00:00.00 494335 N 0 0 0
0:00:00.00 494875 N 0 0 0
0:00:00.00 495165 N 0 0 0
0:00:00.00 495698 N 0 0 0
0:00:00.00 496001 N 0 0 0
0:00:00.00 496517 N 0 0 0
0:00:00.00 497069 N 0 0 0
0:00:00.00 497279 N 0 0 0
0:00:00.00 497632 N 0 0 0
0:00:00.00 497831 N 0 0 0
0:00:00.00 498188 N 0 0 0
0:00:00.00 498755 N 0 0 0
0:00:00.00 499308 N 0 0 0
0:00:00.00 499869 N 0 0 0
0:00:00.00 500418 N 0 0 0
0:00:00.00 500977 N 0 0 0
0:00:00.00 501526 N 0 0 0
0:00:00.00 501720 N 0 0 0
0:00:00.00 502021 N 0 0 0
0:00:00.00 502250 N 0 0 0
0:00:00.00 502485 N 0 0 0
0:00:00.00 502780 N 0 0 0
0:00:00.00 502988 N 0 0 0
0:00:00.00 503299 N 0 0 0
0:00:00.00 503584 N 0 0 0
0:00:00.00 503824 N 0 0 0
0:00:00.00 504110 N 0 0 0
0:00:00.00 504426 N 0 0 0
0:00:00.00 504766 N 0 0 0
0:00:00.00 505061 N 0 0 0
0:00:00.00 505348 N 0 0 0
0:00:00.00 505760 N 0 0 0
0:00:00.00 506038 N 0 0 0
0:00:00.00 506284 N 0 0 0
0:00:00.00 506518 N 0 0 0
0:00:00.00 506745 N 0 0 0
0:00:00.00 507023 N 0 0 0
0:00:00.00 507318 N 0 0 0
0:00:00.00 507661 N 0 0 0
0:00:00.00 507925 N 0 0 0
0:00:00.00 508181 N 0 0 0
0:00:00.00 508487 N 0 0 0
0:00:00.00 508804 N 0 0 0
0:00:00.00 509074 N 0 0 0
0:00:00.00 509310 N 0 0 0
0:00:00.00 509613 N 0 0 0
0:00:00.00 509888 N 0 0 0
0:00:00.00 510116 N 0 0 0
0:00:00.00 510355 N 0 0 0
0:00:00.00 510611 N 0 0 0
0:00:00.00 510894 N 0 0 0
0:00:00.00 511346 N 0 0 0
0:00:00.00 511641 N 0 0 0
0:00:00.00 511950 N 0 0 0
0:00:00.00 512160 N 0 0 0
0:00:00.00 512447 N 0 0 0
0:00:00.00 512738 N 0 0 0
0:00:00.00 512990 N 0 0 0
0:00:00.00 513242 N 0 0 0
0:00:00.00 513517 N 0 0 0
0:00:00.00 513809 N 0 0 0
0:00:00.00 514139 N 0 0 0
0:00:00.00 514470 N 0 0 0
0:00:00.00 514708 N 0 0 0
0:00:00.00 514991 N 0 0 0
0:00:00.00 515327 N 0 0 0
0:00:00.00 515652 N 0 0 0
0:00:00.00 515910 N 0 0 0
0:00:00.00 516107 N 0 0 0
0:00:00.00 516463 N 0 0 0
0:00:00.00 516740 N 0 0 0
0:00:00.00 516936 N 0 0 0
0:00:00.00 517263 N 0 0 0
0:00:00.00 517605 N 0 0 0
0:00:00.00 517917 N 0 0 0
0:00:00.00 518275 N 0 0 0
0:00:00.00 518601 N 0 0 0
0:00:00.00 518922 N 0 0 0
0:00:00.00 519182 N 0 0 0
0:00:00.00 519423 N 0 0 0
0:00:00.00 519727 N 0 0 0
0:00:00.00 520079 N 0 0 0
0:00:00.00 520417 N 0 0 0
0:00:00.00 520716 N 0 0 0
0:00:00.00 521000 N 0 0 0
0:00:00.00 521241 N 0 0 0
0:00:00.00 521442 N 0 0 0
0:00:00.00 521788 N 0 0 0
0:00:00.00 522107 N 0 0 0
0:00:00.00 522369 N 0 0 0
0:00:00.00 522570 N 0 0 0
0:00:00.00 522892 N 0 0 0
0:00:00.00 523177 N 0 0 0
0:00:00.00 523460 N 0 0 0
0:00:00.00 523751 N 0 0 0
0:00:00.00 523957 N 0 0 0
0:00:00.00 524198 N 0 0 0
0:00:00.00 524511 N 0 0 0
0:00:00.00 524756 N 0 0 0
0:00:00.00 525014 N 0 0 0
0:00:00.00 525282 N 0 0 0
0:00:00.00 525607 N 0 0 0
0:00:00.00 525825 N 0 0 0
0:00:00.00 526037 N 0 0 0
0:00:00.00 526361 N 0 0 0
0:00:00.00 526691 N 0 0 0
0:00:00.00 527012 N 0 0 0
0:00:00.00 527397 N 0 0 0
0:00:00.00 527678 N 0 0 0
0:00:00.00 527920 N 0 0 0
0:00:00.00 528186 N 0 0 0
0:00:00.00 528503 N 0 0 0
0:00:00.00 528802 N 0 0 0
0:00:00.00 529047 N 0 0 0
0:00:00.00 529300 N 0 0 0
0:00:00.00 529639 N 0 0 0
0:00:00.00 529964 N 0 0 0
0:00:00.00 530225 N 0 0 0
0:00:00.00 530435 N 0 0 0
0:00:00.00 530718 N 0 0 0
0:00:00.00 530929 N 0 0 0
0:00:00.00 531224 N 0 0 0
0:00:00.00 531486 N 0 0 0
0:00:00.00 531719 N 0 0 0
0:00:00.00 531925 N 0 0 0
0:00:00.00 532182 N 0 0 0
0:00:00.00 532430 N 0 0 0
0:00:00.00 532766 N 0 0 0
0:00:00.00 532978 N 0 0 0
0:00:00.00 533254 N 0 0 0
0:00:00.00 533472 N 0 0 0
0:00:00.00 533759 N 0 0 0
0:00:00.00 534098 N 0 0 0
0:00:00.00 534383 N 0 0 0
0:00:00.00 534669 N 0 0 0
0:00:00.00 534929 N 0 0 0
0:00:00.00 535132 N 0 0 0
0:00:00.00 535428 N 0 0 0
0:00:00.00 535610 N 0 0 0
0:00:00.00 535979 N 0 0 0
0:00:00.00 536249 N 0 0 0
0:00:00.00 536501 N 0 0 0
0:00:00.00 536793 N 0 0 0
0:00:00.00 537091 N 0 0 0
0:00:00.00 537454 N 0 0 0
0:00:00.00 537735 N 0 0 0
0:00:00.00 537973 N 0 0 0
0:00:00.00 538274 N 0 0 0
0:00:00.00 538596 N 0 0 0
0:00:00.00 538830 N 0 0 0
0:00:00.00 539157 N 0 0 0
0:00:00.00 539449 N 0 0 0
0:00:00.00 539726 N 0 0 0
0:00:00.00 539970 N 0 0 0
0:00:00.00 540280 N 0 0 0
0:00:00.00 540587 N 0 0 0
0:00:00.00 540889 N 0 0 0
0:00:00.00 541111 N 0 0 0
0:00:00.00 541434 N 0 0 0
0:00:00.00 541737 N 0 0 0
0:00:00.00 542054 N 0 0 0
0:00:00.00 542416 N 0 0 0
0:00:00.00 542721 N 0 0 0
0:00:00.00 543018 N 0 0 0
0:00:00.00 543274 N 0 0 0
0:00:00.00 543613 N 0 0 0
0:00:00.00 543955 N 0 0 0
0:00:00.00 544211 N 0 0 0
0:00:00.00 544484 N 0 0 0
0:00:00.00 544694 N 0 0 0
0:00:00.00 545089 N 0 0 0
0:00:00.00 545447 N 0 0 0
0:00:00.00 545808 N 0 0 0
0:00:00.00 546124 N 0 0 0
0:00:00.00 546382 N 0 0 0
0:00:00.00 546573 N 0 0 0
0:00:00.00 546777 N 0 0 0
0:00:00.00 547055 N 0 0 0
0:00:00.00 547354 N 0 0 0
0:00:00.00 547560 N 0 0 0
0:00:00.00 547881 N 0 0 0
0:00:00.00 548210 N 0 0 0
0:00:00.00 548525 N 0 0 0
0:00:00.00 548822 N 0 0 0
0:00:00.00 549176 N 0 0 0
0:00:00.00 549517 N 0 0 0
0:00:00.00 549775 N 0 0 0
0:00:00.00 550036 N 0 0 0
0:00:00.00 550310 N 0 0 0
0:00:00.00 550534 N 0 0 0
0:00:00.00 550961 N 0 0 0
0:00:00.00 551197 N 0 0 0
0:00:00.00 551411 N 0 0 0
0:00:00.00 551735 N 0 0 0
0:00:00.00 552052 N 0 0 0
0:00:00.00 552405 N 0 0 0
0:00:00.00 552678 N 0 0 0
0:00:00.00 553046 N 0 0 0
0:00:00.00 553248 N 0 0 0
0:00:00.00 553661 N 0 0 0
0:00:00.00 553956 N 0 0 0
0:00:00.00 554237 N 0 0 0
0:00:00.00 554453 N 0 0 0
0:00:00.00 554678 N 0 0 0
0:00:00.00 555014 N 0 0 0
0:00:00.00 555208 N 0 0 0
0:00:00.00 555478 N 0 0 0
0:00:00.00 555765 N 0 0 0
0:00:00.00 556090 N 0 0 0
0:00:00.00 556523 N 0 0 0
0:00:00.00 556853 N 0 0 0
0:00:00.00 557128 N 0 0 0
0:00:00.00 557372 N 0 0 0
0:00:00.00 557626 N 0 0 0
0:00:00.00 557825 N 0 0 0
0:00:00.00 558166 N 0 0 0
0:00:00.00 558364 N 0 0 0
0:00:00.00 558675 N 0 0 0
0:00:00.00 558942 N 0 0 0
0:00:00.00 559196 N 0 0 0
0:00:00.00 559449 N 0 0 0
0:00:00.00 559710 N 0 0 0
0:00:00.00 560050 N 0 0 0
0:00:00.00 560359 N 0 0 0
0:00:00.00 560613 N 0 0 0
0:00:00.00 560949 N 0 0 0
0:00:00.00 561271 N 0 0 0
0:00:00.00 561512 N 0 0 0
0:00:00.00 561829 N 0 0 0
0:00:00.00 562143 N 0 0 0
0:00:00.00 562372 N 0 0 0
0:00:00.00 562626 N 0 0 0
0:00:00.00 562909 N 0 0 0
0:00:00.00 563312 N 0 0 0
0:00:00.00 563614 N 0 0 0
0:00:00.00 563948 N 0 0 0
0:00:00.00 564284 N 0 0 0
0:00:00.00 564609 N 0 0 0
0:00:00.00 564906 N 0 0 0
0:00:00.00 565125 N 0 0 0
0:00:00.00 565328 N 0 0 0
0:00:00.00 565547 N 0 0 0
0:00:00.00 565804 N 0 0 0
0:00:00.00 566068 N 0 0 0
0:00:00.00 566381 N 0 0 0
0:00:00.00 566779 N 0 0 0
0:00:00.00 567111 N 0 0 0
0:00:00.00 567392 N 0 0 0
0:00:00.00 567636 N 0 0 0
0:00:00.00 567912 N 0 0 0
0:00:00.00 568187 N 0 0 0
0:00:00.00 568534 N 0 0 0
0:00:00.00 568861 N 0 0 0
0:00:00.00 569214 N 0 0 0
0:00:00.00 569453 N 0 0 0
0:00:00.00 569692 N 0 0 0
0:00:00.00 569991 N 0 0 0
0:00:00.00 570251 N 0 0 0
0:00:00.00 570555 N 0 0 0
0:00:00.00 570888 N 0 0 0
0:00:00.00 571135 N 0 0 0
0:00:00.00 571409 N 0 0 0
0:00:00.00 571650 N 0 0 0
0:00:00.00 571932 N 0 0 0
0:00:00.00 572248 N 0 0 0
0:00:00.00 572564 N 0 0 0
0:00:00.00 572878 N 0 0 0
0:00:00.00 573208 N 0 0 0
0:00:00.00 573457 N 0 0 0
0:00:00.00 573732 N 0 0 0
0:00:00.00 573964 N 0 0 0
0:00:00.00 574260 N 0 0 0
0:00:00.00 574508 N 0 0 0
0:00:00.00 574898 N 0 0 0
0:00:00.00 575254 N 0 0 0
0:00:00.00 575510 N 0 0 0
0:00:00.00 575814 N 0 0 0
0:00:00.00 576114 N 0 0 0
0:00:00.00 576373 N 0 0 0
0:00:00.00 576591 N 0 0 0
0:00:00.00 576865 N 0 0 0
0:00:00.00 577296 N 0 0 0
0:00:00.00 577622 N 0 0 0
0:00:00.00 577857 N 0 0 0
0:00:00.00 578155 N 0 0 0
0:00:00.00 578531 N 0 0 0
0:00:00.00 578806 N 0 0 0
0:00:00.00 579127 N 0 0 0
0:00:00.00 579393 N 0 0 0
0:00:00.00 579653 N 0 0 0
0:00:00.00 579905 N 0 0 0
0:00:00.00 580197 N 0 0 0
0:00:00.00 580532 N 0 0 0
0:00:00.00 580801 N 0 0 0
0:00:00.00 581117 N 0 0 0
0:00:00.00 581374 N 0 0 0
0:00:00.00 581733 N 0 0 0
0:00:00.00 581950 N 0 0 0
0:00:00.00 582318 N 0 0 0
0:00:00.00 582531 N 0 0 0
0:00:00.00 582807 N 0 0 0
0:00:00.00 583081 N 0 0 0
0:00:00.00 583393 N 0 0 0
0:00:00.00 583590 N 0 0 0
0:00:00.00 583915 N 0 0 0
0:00:00.00 584228 N 0 0 0
0:00:00.00 584457 N 0 0 0
0:00:00.00 584711 N 0 0 0
0:00:00.00 584977 N 0 0 0
0:00:00.00 585200 N 0 0 0
0:00:00.00 585459 N 0 0 0
0:00:00.00 585683 N 0 0 0
0:00:00.00 585993 N 0 0 0
0:00:00.00 586308 N 0 0 0
0:00:00.00 586639 N 0 0 0
0:00:00.00 587011 N 0 0 0
0:00:00.00 587231 N 0 0 0
0:00:00.00 587477 N 0 0 0
0:00:00.00 587708 N 0 0 0
0:00:00.00 588098 N 0 0 0
0:00:00.00 588310 N 0 0 0
0:00:00.00 588628 N 0 0 0
0:00:00.00 588905 N 0 0 0
0:00:00.00 589145 N 0 0 0
0:00:00.00 589467 N 0 0 0
0:00:00.00 589744 N 0 0 0
0:00:00.00 589966 N 0 0 0
0:00:00.00 590254 N 0 0 0
0:00:00.00 590547 N 0 0 0
0:00:00.00 590851 N 0 0 0
0:00:00.00 591114 N 0 0 0
0:00:00.00 591392 N 0 0 0
0:00:00.00 591610 N 0 0 0
0:00:00.00 591937 N 0 0 0
0:00:00.00 592297 N 0 0 0
0:00:00.00 592634 N 0 0 0
0:00:00.00 592931 N 0 0 0
0:00:00.00 593234 N 0 0 0
0:00:00.00 593530 N 0 0 0
0:00:00.00 593888 N 0 0 0
0:00:00.00 594184 N 0 0 0
0:00:00.00 594445 N 0 0 0
0:00:00.00 594738 N 0 0 0
0:00:00.00 595043 N 0 0 0
0:00:00.00 595394 N 0 0 0
0:00:00.00 595703 N 0 0 0
0:00:00.00 595955 N 0 0 0
0:00:00.00 596252 N 0 0 0
0:00:00.00 596598 N 0 0 0
0:00:00.00 596914 N 0 0 0
0:00:00.00 597172 N 0 0 0
0:00:00.00 597534 N 0 0 0
0:00:00.00 597805 N 0 0 0
0:00:00.00 598063 N 0 0 0
0:00:00.00 598280 N 0 0 0
0:00:00.00 598538 N 0 0 0
0:00:00.00 598819 N 0 0 0
0:00:00.00 599040 N 0 0 0
0:00:00.00 599315 N 0 0 0
0:00:00.00 599570 N 0 0 0
0:00:00.00 599854 N 0 0 0
0:00:00.00 600067 N 0 0 0
0:00:00.00 600344 N 0 0 0
0:00:00.00 600761 N 0 0 0
0:00:00.00 601099 N 0 0 0
0:00:00.00 601400 N 0 0 0
0:00:00.00 601690 N 0 0 0
0:00:00.00 601959 N 0 0 0
0:00:00.00 602289 N 0 0 0
0:00:00.00 602553 N 0 0 0
0:00:00.00 602828 N 0 0 0
0:00:00.00 603115 N 0 0 0
0:00:00.00 603324 N 0 0 0
0:00:00.00 603661 N 0 0 0
0:00:00.00 603976 N 0 0 0
0:00:00.00 604255 N 0 0 0
0:00:00.00 604593 N 0 0 0
0:00:00.00 604862 N 0 0 0
0:00:00.00 605286 N 0 0 0
0:00:00.00 605566 N 0 0 0
0:00:00.00 605862 N 0 0 0
0:00:00.00 606169 N 0 0 0
0:00:00.00 606388 N 0 0 0
0:00:00.00 606666 N 0 0 0
0:00:00.00 606927 N 0 0 0
0:00:00.00 607402 N 0 0 0
0:00:00.00 607788 N 0 0 0
0:00:00.00 608095 N 0 0 0
0:00:00.00 608422 N 0 0 0
0:00:00.00 608640 N 0 0 0
0:00:00.00 608955 N 0 0 0
0:00:00.00 609391 N 0 0 0
0:00:00.00 609701 N 0 0 0
0:00:00.00 609964 N 0 0 0
0:00:00.00 610247 N 0 0 0
0:00:00.00 610578 N 0 0 0
0:00:00.00 610866 N 0 0 0
0:00:00.00 611200 N 0 0 0
0:00:00.00 611458 N 0 0 0
0:00:00.00 611760 N 0 0 0
0:00:00.00 612090 N 0 0 0
0:00:00.00 612368 N 0 0 0
0:00:00.00 612750 N 0 0 0
0:00:00.00 612967 N 0 0 0
0:00:00.00 613226 N 0 0 0
0:00:00.00 613501 N 0 0 0
0:00:00.00 613803 N 0 0 0
0:00:00.00 614093 N 0 0 0
0:00:00.00 614384 N 0 0 0
0:00:00.00 614682 N 0 0 0
0:00:00.00 615052 N 0 0 0
0:00:00.00 615365 N 0 0 0
0:00:00.00 615615 N 0 0 0
0:00:00.00 615826 N 0 0 0
0:00:00.00 616100 N 0 0 0
0:00:00.00 616384 N 0 0 0
0:00:00.00 616684 N 0 0 0
0:00:00.00 616991 N 0 0 0
0:00:00.00 617274 N 0 0 0
0:00:00.00 617542 N 0 0 0
0:00:00.00 617795 N 0 0 0
0:00:00.00 618237 N 0 0 0
0:00:00.00 618487 N 0 0 0
0:00:00.00 618726 N 0 0 0
0:00:00.00 619026 N 0 0 0
0:00:00.00 619322 N 0 0 0
0:00:00.00 619622 N 0 0 0
0:00:00.00 619891 N 0 0 0
0:00:00.00 620239 N 0 0 0
0:00:00.00 620547 N 0 0 0
0:00:00.00 620764 N 0 0 0
0:00:00.00 621071 N 0 0 0
0:00:00.00 621289 N 0 0 0
0:00:00.00 621561 N 0 0 0
0:00:00.00 621773 N 0 0 0
0:00:00.00 622026 N 0 0 0
0:00:00.00 622289 N 0 0 0
0:00:00.00 622513 N 0 0 0
0:00:00.00 622796 N 0 0 0
0:00:00.00 623048 N 0 0 0
0:00:00.00 623325 N 0 0 0
0:00:00.00 623648 N 0 0 0
0:00:00.00 623919 N 0 0 0
0:00:00.00 624216 N 0 0 0
0:00:00.00 624506 N 0 0 0
0:00:00.00 624815 N 0 0 0
0:00:00.00 625108 N 0 0 0
0:00:00.00 625389 N 0 0 0
0:00:00.00 625707 N 0 0 0
0:00:00.00 625920 N 0 0 0
0:00:00.00 626224 N 0 0 0
0:00:00.00 626516 N 0 0 0
0:00:00.00 626806 N 0 0 0
0:00:00.00 627110 N 0 0 0
0:00:00.00 627332 N 0 0 0
0:00:00.00 627659 N 0 0 0
0:00:00.00 627991 N 0 0 0
0:00:00.00 628199 N 0 0 0
0:00:00.00 628577 N 0 0 0
0:00:00.00 628773 N 0 0 0
0:00:00.00 629047 N 0 0 0
0:00:00.00 629327 N 0 0 0
0:00:00.00 629604 N 0 0 0
0:00:00.00 629833 N 0 0 0
0:00:00.00 630049 N 0 0 0
0:00:00.00 630351 N 0 0 0
0:00:00.00 630666 N 0 0 0
0:00:00.00 630962 N 0 0 0
0:00:00.00 631250 N 0 0 0
0:00:00.00 631546 N 0 0 0
0:00:00.00 631843 N 0 0 0
0:00:00.00 632147 N 0 0 0
0:00:00.00 632437 N 0 0 0
0:00:00.00 632729 N 0 0 0
0:00:00.00 633033 N 0 0 0
0:00:00.00 633323 N 0 0 0
0:00:00.00 633615 N 0 0 0
0:00:00.00 633910 N 0 0 0
0:00:00.00 634198 N 0 0 0
0:00:00.00 634428 N 0 0 0
0:00:00.00 634714 N 0 0 0
0:00:00.00 634992 N 0 0 0
0:00:00.00 635413 N 0 0 0
0:00:00.00 635714 N 0 0 0
0:00:00.00 635933 N 0 0 0
0:00:00.00 636196 N 0 0 0
0:00:00.00 636466 N 0 0 0
0:00:00.00 636787 N 0 0 0
0:00:00.00 637067 N 0 0 0
0:00:00.00 637503 N 0 0 0
0:00:00.00 637808 N 0 0 0
0:00:00.00 638109 N 0 0 0
0:00:00.00 638364 N 0 0 0
0:00:00.00 638751 N 0 0 0
0:00:00.00 638990 N 0 0 0
0:00:00.00 639212 N 0 0 0
0:00:00.00 639578 N 0 0 0
0:00:00.00 639806 N 0 0 0
0:00:00.00 640171 N 0 0 0
0:00:00.00 640468 N 0 0 0
0:00:00.00 640790 N 0 0 0
0:00:00.00 641083 N 0 0 0
0:00:00.00 641298 N 0 0 0
0:00:00.00 641669 N 0 0 0
0:00:00.00 641977 N 0 0 0
0:00:00.00 642312 N 0 0 0
0:00:00.00 642606 N 0 0 0
0:00:00.00 642845 N 0 0 0
0:00:00.00 643200 N 0 0 0
0:00:00.00 643426 N 0 0 0
0:00:00.00 643652 N 0 0 0
0:00:00.00 643983 N 0 0 0
0:00:00.00 644339 N 0 0 0
0:00:00.00 644648 N 0 0 0
0:00:00.00 644931 N 0 0 0
0:00:00.00 645227 N 0 0 0
0:00:00.00 645447 N 0 0 0
0:00:00.00 645760 N 0 0 0
0:00:00.00 646065 N 0 0 0
0:00:00.00 646273 N 0 0 0
0:00:00.00 646561 N 0 0 0
0:00:00.00 646834 N 0 0 0
0:00:00.00 647144 N 0 0 0
0:00:00.00 647439 N 0 0 0
0:00:00.00 647881 N 0 0 0
0:00:00.00 648129 N 0 0 0
0:00:00.00 648398 N 0 0 0
0:00:00.00 648691 N 0 0 0
0:00:00.00 648838 N 0 0 0
0:00:00.00 649175 N 0 0 0
0:00:00.00 649449 N 0 0 0
0:00:00.00 649738 N 0 0 0
