0:00:00.00 16 N 0 0 0
0:00:00.00 313 N 0 0 0
0:00:00.00 612 N 0 0 0
0:00:00.00 916 N 0 0 0
0:00:00.00 1213 N 0 0 0
0:00:00.00 1517 N 0 0 0
0:00:00.00 1816 N 0 0 0
0:00:00.00 2120 N 0 0 0
0:00:00.00 2425 N 0 0 0
0:00:00.00 2722 N 0 0 0
0:00:00.00 3026 N 0 0 0
0:00:00.00 3330 N 0 0 0
0:00:00.00 3622 N 0 0 0
0:00:00.00 3926 N 0 0 0
0:00:00.00 4225 N 0 0 0
0:00:00.00 4531 N 0 0 0
0:00:00.00 4831 N 0 0 0
0:00:00.00 5128 N 0 0 0
0:00:00.00 5434 N 0 0 0
0:00:00.00 5740 N 0 0 0
0:00:00.00 6035 N 0 0 0
0:00:00.00 6340 N 0 0 0
0:00:00.00 6638 N 0 0 0
0:00:00.00 6943 N 0 0 0
0:00:00.00 7243 N 0 0 0
0:00:00.00 7535 N 0 0 0
0:00:00.00 7841 N 0 0 0
0:00:00.00 8143 N 0 0 0
0:00:00.00 8440 N 0 0 0
0:00:00.00 8739 N 0 0 0
0:00:00.00 9038 N 0 0 0
0:00:00.00 9342 N 0 0 0
0:00:00.00 9637 N 0 0 0
0:00:00.00 9934 N 0 0 0
0:00:00.00 10238 N 0 0 0
0:00:00.00 10537 N 0 0 0
0:00:00.00 10834 N 0 0 0
0:00:00.00 11138 N 0 0 0
0:00:00.00 11437 N 0 0 0
0:00:00.00 11743 N 0 0 0
0:00:00.00 12040 N 0 0 0
0:00:00.00 12335 N 0 0 0
0:00:00.00 12645 N 0 0 0
0:00:00.00 12947 N 0 0 0
0:00:00.00 13244 N 0 0 0
0:00:00.00 13550 N 0 0 0
0:00:00.00 13847 N 0 0 0
0:00:00.00 14155 N 0 0 0
0:00:00.00 14454 N 0 0 0
0:00:00.00 14755 N 0 0 0
0:00:00.00 15066 N 0 0 0
0:00:00.00 15367 N 0 0 0
0:00:00.00 15660 N 0 0 0
0:00:00.00 15962 N 0 0 0
0:00:00.00 16259 N 0 0 0
0:00:00.00 16551 N 0 0 0
0:00:00.00 16846 N 0 0 0
0:00:00.00 17140 N 0 0 0
0:00:00.00 17442 N 0 0 0
0:00:00.00 17743 N 0 0 0
0:00:00.00 17935 N 0 0 0
0:00:00.00 18288 N 0 0 0
0:00:00.00 18598 N 0 0 0
0:00:00.00 18907 N 0 0 0
0:00:00.00 19215 N 0 0 0
0:00:00.00 19523 N 0 0 0
0:00:00.00 19840 N 0 0 0
0:00:00.00 20147 N 0 0 0
0:00:00.00 20443 N 0 0 0
0:00:00.00 20740 N 0 0 0
0:00:00.00 21047 N 0 0 0
0:00:00.00 21350 N 0 0 0
0:00:00.00 21643 N 0 0 0
0:00:00.00 21946 N 0 0 0
0:00:00.00 22248 N 0 0 0
0:00:00.00 22543 N 0 0 0
0:00:00.00 22842 N 0 0 0
0:00:00.00 23146 N 0 0 0
0:00:00.00 23454 N 0 0 0
0:00:00.00 23760 N 0 0 0
0:00:00.00 24061 N 0 0 0
0:00:00.00 24372 N 0 0 0
0:00:00.00 24678 N 0 0 0
0:00:00.00 24979 N 0 0 0
0:00:00.00 25283 N 0 0 0
0:00:00.00 25587 N 0 0 0
0:00:00.00 25895 N 0 0 0
0:00:00.00 26199 N 0 0 0
0:00:00.00 26505 N 0 0 0
0:00:00.00 26813 N 0 0 0
0:00:00.00 27119 N 0 0 0
0:00:00.00 27425 N 0 0 0
0:00:00.00 27727 N 0 0 0
0:00:00.00 28039 N 0 0 0
0:00:00.00 28343 N 0 0 0
0:00:00.00 28640 N 0 0 0
0:00:00.00 28949 N 0 0 0
0:00:00.00 29254 N 0 0 0
0:00:00.00 29549 N 0 0 0
0:00:00.00 29848 N 0 0 0
0:00:00.00 30143 N 0 0 0
0:00:00.00 30445 N 0 0 0
0:00:00.00 30742 N 0 0 0
0:00:00.00 31030 N 0 0 0
0:00:00.00 31342 N 0 0 0
0:00:00.00 31649 N 0 0 0
0:00:00.00 31945 N 0 0 0
0:00:00.00 32245 N 0 0 0
0:00:00.00 32542 N 0 0 0
0:00:00.00 32843 N 0 0 0
0:00:00.00 33142 N 0 0 0
0:00:00.00 33437 N 0 0 0
0:00:00.00 33739 N 0 0 0
0:00:00.00 34038 N 0 0 0
0:00:00.00 34328 N 0 0 0
0:00:00.00 34627 N 0 0 0
0:00:00.00 34927 N 0 0 0
0:00:00.00 35235 N 0 0 0
0:00:00.00 35543 N 0 0 0
0:00:00.00 35849 N 0 0 0
0:00:00.00 36160 N 0 0 0
0:00:00.00 36466 N 0 0 0
0:00:00.00 36770 N 0 0 0
0:00:00.00 37076 N 0 0 0
0:00:00.00 37388 N 0 0 0
0:00:00.00 37696 N 0 0 0
0:00:00.00 38002 N 0 0 0
0:00:00.00 38313 N 0 0 0
0:00:00.00 38621 N 0 0 0
0:00:00.00 38923 N 0 0 0
0:00:00.00 39233 N 0 0 0
0:00:00.00 39539 N 0 0 0
0:00:00.00 39847 N 0 0 0
0:00:00.00 40153 N 0 0 0
0:00:00.00 40455 N 0 0 0
0:00:00.00 40766 N 0 0 0
0:00:00.00 41067 N 0 0 0
0:00:00.00 41364 N 0 0 0
0:00:00.00 41674 N 0 0 0
0:00:00.00 41976 N 0 0 0
0:00:00.00 42280 N 0 0 0
0:00:00.00 42579 N 0 0 0
0:00:00.00 42874 N 0 0 0
0:00:00.00 43182 N 0 0 0
0:00:00.00 43484 N 0 0 0
0:00:00.00 43781 N 0 0 0
0:00:00.00 44084 N 0 0 0
0:00:00.00 44390 N 0 0 0
0:00:00.00 44698 N 0 0 0
0:00:00.00 44996 N 0 0 0
0:00:00.00 45297 N 0 0 0
0:00:00.00 45607 N 0 0 0
0:00:00.00 45913 N 0 0 0
0:00:00.00 46210 N 0 0 0
0:00:00.00 46507 N 0 0 0
0:00:00.00 46805 N 0 0 0
0:00:00.00 47108 N 0 0 0
0:00:00.00 47403 N 0 0 0
0:00:00.00 47700 N 0 0 0
0:00:00.00 48008 N 0 0 0
0:00:00.00 48310 N 0 0 0
0:00:00.00 48609 N 0 0 0
0:00:00.00 48908 N 0 0 0
0:00:00.00 49214 N 0 0 0
0:00:00.00 49522 N 0 0 0
0:00:00.00 49822 N 0 0 0
0:00:00.00 50128 N 0 0 0
0:00:00.00 50432 N 0 0 0
0:00:00.00 50731 N 0 0 0
0:00:00.00 51028 N 0 0 0
0:00:00.00 51331 N 0 0 0
0:00:00.00 51633 N 0 0 0
0:00:00.00 51935 N 0 0 0
0:00:00.00 52236 N 0 0 0
0:00:00.00 52542 N 0 0 0
0:00:00.00 52848 N 0 0 0
0:00:00.00 53147 N 0 0 0
0:00:00.00 53453 N 0 0 0
0:00:00.00 53761 N 0 0 0
0:00:00.00 54068 N 0 0 0
0:00:00.00 54367 N 0 0 0
0:00:00.00 54662 N 0 0 0
0:00:00.00 54972 N 0 0 0
0:00:00.00 55278 N 0 0 0
0:00:00.00 55573 N 0 0 0
0:00:00.00 55872 N 0 0 0
0:00:00.00 56174 N 0 0 0
0:00:00.00 56480 N 0 0 0
0:00:00.00 56779 N 0 0 0
0:00:00.00 57078 N 0 0 0
0:00:00.00 57389 N 0 0 0
0:00:00.00 57692 N 0 0 0
0:00:00.00 57991 N 0 0 0
0:00:00.00 58295 N 0 0 0
0:00:00.00 58597 N 0 0 0
0:00:00.00 58898 N 0 0 0
0:00:00.00 59198 N 0 0 0
0:00:00.00 59497 N 0 0 0
0:00:00.00 59798 N 0 0 0
0:00:00.00 60095 N 0 0 0
0:00:00.00 60392 N 0 0 0
0:00:00.00 60694 N 0 0 0
0:00:00.00 61002 N 0 0 0
0:00:00.00 61303 N 0 0 0
0:00:00.00 61603 N 0 0 0
0:00:00.00 61916 N 0 0 0
0:00:00.00 62222 N 0 0 0
0:00:00.00 62519 N 0 0 0
0:00:00.00 62818 N 0 0 0
0:00:00.00 63122 N 0 0 0
0:00:00.00 63432 N 0 0 0
0:00:00.00 63725 N 0 0 0
0:00:00.00 64024 N 0 0 0
0:00:00.00 64332 N 0 0 0
0:00:00.00 64633 N 0 0 0
0:00:00.00 64931 N 0 0 0
0:00:00.00 65228 N 0 0 0
0:00:00.00 65529 N 0 0 0
0:00:00.00 65837 N 0 0 0
0:00:00.00 66136 N 0 0 0
0:00:00.00 66438 N 0 0 0
0:00:00.00 66748 N 0 0 0
0:00:00.00 67045 N 0 0 0
0:00:00.00 67342 N 0 0 0
0:00:00.00 67640 N 0 0 0
0:00:00.00 67943 N 0 0 0
0:00:00.00 68245 N 0 0 0
0:00:00.00 68542 N 0 0 0
0:00:00.00 68845 N 0 0 0
0:00:00.00 69149 N 0 0 0
0:00:00.00 69448 N 0 0 0
0:00:00.00 69746 N 0 0 0
0:00:00.00 70049 N 0 0 0
0:00:00.00 70353 N 0 0 0
0:00:00.00 70652 N 0 0 0
0:00:00.00 70952 N 0 0 0
0:00:00.00 71258 N 0 0 0
0:00:00.00 71555 N 0 0 0
0:00:00.00 71851 N 0 0 0
0:00:00.00 72149 N 0 0 0
0:00:00.00 72450 N 0 0 0
0:00:00.00 72752 N 0 0 0
0:00:00.00 73049 N 0 0 0
0:00:00.00 73343 N 0 0 0
0:00:00.00 73658 N 0 0 0
0:00:00.00 73962 N 0 0 0
0:00:00.00 74259 N 0 0 0
0:00:00.00 74563 N 0 0 0
0:00:00.00 74866 N 0 0 0
0:00:00.00 75175 N 0 0 0
0:00:00.00 75476 N 0 0 0
0:00:00.00 75769 N 0 0 0
0:00:00.00 76082 N 0 0 0
0:00:00.00 76390 N 0 0 0
0:00:00.00 76689 N 0 0 0
0:00:00.00 76991 N 0 0 0
0:00:00.00 77296 N 0 0 0
0:00:00.00 77607 N 0 0 0
0:00:00.00 77909 N 0 0 0
0:00:00.00 78214 N 0 0 0
0:00:00.00 78523 N 0 0 0
0:00:00.00 78831 N 0 0 0
0:00:00.00 79132 N 0 0 0
0:00:00.00 79439 N 0 0 0
0:00:00.00 79749 N 0 0 0
0:00:00.00 80051 N 0 0 0
0:00:00.00 80356 N 0 0 0
0:00:00.00 80667 N 0 0 0
0:00:00.00 80980 N 0 0 0
0:00:00.00 81292 N 0 0 0
0:00:00.00 81608 N 0 0 0
0:00:00.00 81918 N 0 0 0
0:00:00.00 82233 N 0 0 0
0:00:00.00 82534 N 0 0 0
0:00:00.00 82832 N 0 0 0
0:00:00.00 83151 N 0 0 0
0:00:00.00 83461 N 0 0 0
0:00:00.00 83767 N 0 0 0
0:00:00.00 84076 N 0 0 0
0:00:00.00 84384 N 0 0 0
0:00:00.00 84703 N 0 0 0
0:00:00.00 85016 N 0 0 0
0:00:00.00 85325 N 0 0 0
0:00:00.00 85646 N 0 0 0
0:00:00.00 85959 N 0 0 0
0:00:00.00 86274 N 0 0 0
0:00:00.00 86594 N 0 0 0
0:00:00.00 86922 N 0 0 0
0:00:00.00 87244 N 0 0 0
0:00:00.00 87566 N 0 0 0
0:00:00.00 87899 N 0 0 0
0:00:00.00 88222 N 0 0 0
0:00:00.00 88531 N 0 0 0
0:00:00.00 88846 N 0 0 0
0:00:00.00 89167 N 0 0 0
0:00:00.00 89483 N 0 0 0
0:00:00.00 89795 N 0 0 0
0:00:00.00 90113 N 0 0 0
0:00:00.00 90425 N 0 0 0
0:00:00.00 90731 N 0 0 0
0:00:00.00 91039 N 0 0 0
0:00:00.00 91343 N 0 0 0
0:00:00.00 91656 N 0 0 0
0:00:00.00 91962 N 0 0 0
0:00:00.00 92272 N 0 0 0
0:00:00.00 92588 N 0 0 0
0:00:00.00 92900 N 0 0 0
0:00:00.00 93209 N 0 0 0
0:00:00.00 93517 N 0 0 0
0:00:00.00 93830 N 0 0 0
0:00:00.00 94144 N 0 0 0
0:00:00.00 94450 N 0 0 0
0:00:00.00 94761 N 0 0 0
0:00:00.00 95074 N 0 0 0
0:00:00.00 95380 N 0 0 0
0:00:00.00 95697 N 0 0 0
0:00:00.00 96007 N 0 0 0
0:00:00.00 96322 N 0 0 0
0:00:00.00 96633 N 0 0 0
0:00:00.00 96950 N 0 0 0
0:00:00.00 97268 N 0 0 0
0:00:00.00 97582 N 0 0 0
0:00:00.00 97897 N 0 0 0
0:00:00.00 98215 N 0 0 0
0:00:00.00 98548 N 0 0 0
0:00:00.00 98876 N 0 0 0
0:00:00.00 99203 N 0 0 0
0:00:00.00 99553 N 0 0 0
0:00:00.00 99884 N 0 0 0
0:00:00.00 100210 N 0 0 0
0:00:00.00 100537 N 0 0 0
0:00:00.00 100867 N 0 0 0
0:00:00.00 101194 N 0 0 0
0:00:00.00 101513 N 0 0 0
0:00:00.00 101844 N 0 0 0
0:00:00.00 102161 N 0 0 0
0:00:00.00 102472 N 0 0 0
0:00:00.00 102787 N 0 0 0
0:00:00.00 103099 N 0 0 0
0:00:00.00 103414 N 0 0 0
0:00:00.00 103723 N 0 0 0
0:00:00.00 104033 N 0 0 0
0:00:00.00 104344 N 0 0 0
0:00:00.00 104652 N 0 0 0
0:00:00.00 104953 N 0 0 0
0:00:00.00 105264 N 0 0 0
0:00:00.00 105579 N 0 0 0
0:00:00.00 105883 N 0 0 0
0:00:00.00 106189 N 0 0 0
0:00:00.00 106513 N 0 0 0
0:00:00.00 106828 N 0 0 0
0:00:00.00 107138 N 0 0 0
0:00:00.00 107447 N 0 0 0
0:00:00.00 107762 N 0 0 0
0:00:00.00 108081 N 0 0 0
0:00:00.00 108389 N 0 0 0
0:00:00.00 108706 N 0 0 0
0:00:00.00 109026 N 0 0 0
0:00:00.00 109339 N 0 0 0
0:00:00.00 109652 N 0 0 0
0:00:00.00 109966 N 0 0 0
0:00:00.00 110275 N 0 0 0
0:00:00.00 110579 N 0 0 0
0:00:00.00 110882 N 0 0 0
0:00:00.00 111186 N 0 0 0
0:00:00.00 111494 N 0 0 0
0:00:00.00 111789 N 0 0 0
0:00:00.00 112097 N 0 0 0
0:00:00.00 112405 N 0 0 0
0:00:00.00 112718 N 0 0 0
0:00:00.00 113024 N 0 0 0
0:00:00.00 113323 N 0 0 0
0:00:00.00 113630 N 0 0 0
0:00:00.00 113940 N 0 0 0
0:00:00.00 114241 N 0 0 0
0:00:00.00 114536 N 0 0 0
0:00:00.00 114734 N 0 0 0
0:00:00.00 115090 N 0 0 0
0:00:00.00 115400 N 0 0 0
0:00:00.00 115708 N 0 0 0
0:00:00.00 115985 N 0 0 0
0:00:00.00 116136 N 0 0 0
0:00:00.00 116456 N 0 0 0
0:00:00.00 116779 N 0 0 0
0:00:00.00 117079 N 0 0 0
0:00:00.00 117389 N 0 0 0
0:00:00.00 117698 N 0 0 0
0:00:00.00 118001 N 0 0 0
0:00:00.00 118321 N 0 0 0
0:00:00.00 118633 N 0 0 0
0:00:00.00 118940 N 0 0 0
0:00:00.00 119248 N 0 0 0
0:00:00.00 119551 N 0 0 0
0:00:00.00 119855 N 0 0 0
0:00:00.00 120154 N 0 0 0
0:00:00.00 120343 N 0 0 0
0:00:00.00 120706 N 0 0 0
0:00:00.00 121030 N 0 0 0
0:00:00.00 121329 N 0 0 0
0:00:00.00 121631 N 0 0 0
0:00:00.00 121934 N 0 0 0
0:00:00.00 122236 N 0 0 0
0:00:00.00 122535 N 0 0 0
0:00:00.00 122834 N 0 0 0
0:00:00.00 123134 N 0 0 0
0:00:00.00 123433 N 0 0 0
0:00:00.00 123727 N 0 0 0
0:00:00.00 124022 N 0 0 0
0:00:00.00 124324 N 0 0 0
0:00:00.00 124623 N 0 0 0
0:00:00.00 124918 N 0 0 0
0:00:00.00 125219 N 0 0 0
0:00:00.00 125527 N 0 0 0
0:00:00.00 125831 N 0 0 0
0:00:00.00 126142 N 0 0 0
0:00:00.00 126459 N 0 0 0
0:00:00.00 126792 N 0 0 0
0:00:00.00 127112 N 0 0 0
0:00:00.00 127427 N 0 0 0
0:00:00.00 127753 N 0 0 0
0:00:00.00 128066 N 0 0 0
0:00:00.00 128371 N 0 0 0
0:00:00.00 128686 N 0 0 0
0:00:00.00 129002 N 0 0 0
0:00:00.00 129312 N 0 0 0
0:00:00.00 129620 N 0 0 0
0:00:00.00 129940 N 0 0 0
0:00:00.00 130261 N 0 0 0
0:00:00.00 130574 N 0 0 0
0:00:00.00 130887 N 0 0 0
0:00:00.00 131204 N 0 0 0
0:00:00.00 131526 N 0 0 0
0:00:00.00 131848 N 0 0 0
0:00:00.00 132181 N 0 0 0
0:00:00.00 132527 N 0 0 0
0:00:00.00 132860 N 0 0 0
0:00:00.00 133191 N 0 0 0
0:00:00.00 133515 N 0 0 0
0:00:00.00 133844 N 0 0 0
0:00:00.00 134170 N 0 0 0
0:00:00.00 134494 N 0 0 0
0:00:00.00 134816 N 0 0 0
0:00:00.00 135133 N 0 0 0
0:00:00.00 135455 N 0 0 0
0:00:00.00 135774 N 0 0 0
0:00:00.00 136098 N 0 0 0
0:00:00.00 136417 N 0 0 0
0:00:00.00 136730 N 0 0 0
0:00:00.00 137056 N 0 0 0
0:00:00.00 137369 N 0 0 0
0:00:00.00 137675 N 0 0 0
0:00:00.00 137992 N 0 0 0
0:00:00.00 138307 N 0 0 0
0:00:00.00 138616 N 0 0 0
0:00:00.00 138926 N 0 0 0
0:00:00.00 139241 N 0 0 0
0:00:00.00 139558 N 0 0 0
0:00:00.00 139873 N 0 0 0
0:00:00.00 140189 N 0 0 0
0:00:00.00 140501 N 0 0 0
0:00:00.00 140823 N 0 0 0
0:00:00.00 141138 N 0 0 0
0:00:00.00 141451 N 0 0 0
0:00:00.00 141773 N 0 0 0
0:00:00.00 142087 N 0 0 0
0:00:00.00 142396 N 0 0 0
0:00:00.00 142708 N 0 0 0
0:00:00.00 143015 N 0 0 0
0:00:00.00 143325 N 0 0 0
0:00:00.00 143627 N 0 0 0
0:00:00.00 143926 N 0 0 0
0:00:00.00 144234 N 0 0 0
0:00:00.00 144425 N 0 0 0
0:00:00.00 144763 N 0 0 0
0:00:00.00 145076 N 0 0 0
0:00:00.00 145384 N 0 0 0
0:00:00.00 145690 N 0 0 0
0:00:00.00 145985 N 0 0 0
0:00:00.00 146275 N 0 0 0
0:00:00.00 146572 N 0 0 0
0:00:00.00 146860 N 0 0 0
0:00:00.00 147064 N 0 0 0
0:00:00.00 147278 N 0 0 0
0:00:00.00 147436 N 0 0 0
0:00:00.00 147762 N 0 0 0
0:00:00.00 148055 N 0 0 0
0:00:00.00 148275 N 0 0 0
0:00:00.00 148424 N 0 0 0
0:00:00.00 148563 N 0 0 0
0:00:00.00 148784 N 0 0 0
0:00:00.00 149110 N 0 0 0
0:00:00.00 149420 N 0 0 0
0:00:00.00 149614 N 0 0 0
0:00:00.00 149758 N 0 0 0
0:00:00.00 149895 N 0 0 0
0:00:00.00 150046 N 0 0 0
0:00:00.00 150343 N 0 0 0
0:00:00.00 150682 N 0 0 0
0:00:00.00 150862 N 0 0 0
0:00:00.00 151013 N 0 0 0
0:00:00.00 151151 N 0 0 0
0:00:00.00 151556 N 0 0 0
0:00:00.00 151884 N 0 0 0
0:00:00.00 152208 N 0 0 0
0:00:00.00 152473 N 0 0 0
0:00:00.00 152847 N 0 0 0
0:00:00.00 153175 N 0 0 0
0:00:00.00 153517 N 0 0 0
0:00:00.00 153837 N 0 0 0
0:00:00.00 154150 N 0 0 0
0:00:00.00 154471 N 0 0 0
0:00:00.00 154793 N 0 0 0
0:00:00.00 155111 N 0 0 0
0:00:00.00 155308 N 0 0 0
0:00:00.00 155453 N 0 0 0
0:00:00.00 155686 N 0 0 0
0:00:00.00 156073 N 0 0 0
0:00:00.00 156415 N 0 0 0
0:00:00.00 156748 N 0 0 0
0:00:00.00 157082 N 0 0 0
0:00:00.00 157417 N 0 0 0
0:00:00.00 157748 N 0 0 0
0:00:00.00 158083 N 0 0 0
0:00:00.00 158359 N 0 0 0
0:00:00.00 158746 N 0 0 0
0:00:00.00 159079 N 0 0 0
0:00:00.00 159406 N 0 0 0
0:00:00.00 159732 N 0 0 0
0:00:00.00 160045 N 0 0 0
0:00:00.00 160367 N 0 0 0
0:00:00.00 160690 N 0 0 0
0:00:00.00 161005 N 0 0 0
0:00:00.00 161330 N 0 0 0
0:00:00.00 161649 N 0 0 0
0:00:00.00 161971 N 0 0 0
0:00:00.00 162283 N 0 0 0
0:00:00.00 162589 N 0 0 0
0:00:00.00 162902 N 0 0 0
0:00:00.00 163208 N 0 0 0
0:00:00.00 163505 N 0 0 0
0:00:00.00 163816 N 0 0 0
0:00:00.00 164131 N 0 0 0
0:00:00.00 164446 N 0 0 0
0:00:00.00 164767 N 0 0 0
0:00:00.00 165089 N 0 0 0
0:00:00.00 165407 N 0 0 0
0:00:00.00 165730 N 0 0 0
0:00:00.00 166054 N 0 0 0
0:00:00.00 166374 N 0 0 0
0:00:00.00 166702 N 0 0 0
0:00:00.00 167024 N 0 0 0
0:00:00.00 167348 N 0 0 0
0:00:00.00 167670 N 0 0 0
0:00:00.00 167981 N 0 0 0
0:00:00.00 168304 N 0 0 0
0:00:00.00 168619 N 0 0 0
0:00:00.00 168943 N 0 0 0
0:00:00.00 169263 N 0 0 0
0:00:00.00 169583 N 0 0 0
0:00:00.00 169918 N 0 0 0
0:00:00.00 170244 N 0 0 0
0:00:00.00 170575 N 0 0 0
0:00:00.00 170912 N 0 0 0
0:00:00.00 171241 N 0 0 0
0:00:00.00 171569 N 0 0 0
0:00:00.00 171886 N 0 0 0
0:00:00.00 172215 N 0 0 0
0:00:00.00 172537 N 0 0 0
0:00:00.00 172849 N 0 0 0
0:00:00.00 173174 N 0 0 0
0:00:00.00 173511 N 0 0 0
0:00:00.00 173837 N 0 0 0
0:00:00.00 174157 N 0 0 0
0:00:00.00 174492 N 0 0 0
0:00:00.00 174825 N 0 0 0
0:00:00.00 175153 N 0 0 0
0:00:00.00 175473 N 0 0 0
0:00:00.00 175797 N 0 0 0
0:00:00.00 176126 N 0 0 0
0:00:00.00 176449 N 0 0 0
0:00:00.00 176776 N 0 0 0
0:00:00.00 177113 N 0 0 0
0:00:00.00 177433 N 0 0 0
0:00:00.00 177768 N 0 0 0
0:00:00.00 178099 N 0 0 0
0:00:00.00 178434 N 0 0 0
0:00:00.00 178763 N 0 0 0
0:00:00.00 179093 N 0 0 0
0:00:00.00 179437 N 0 0 0
0:00:00.00 179773 N 0 0 0
0:00:00.00 180115 N 0 0 0
0:00:00.00 180452 N 0 0 0
0:00:00.00 180787 N 0 0 0
0:00:00.00 181116 N 0 0 0
0:00:00.00 181447 N 0 0 0
0:00:00.00 181789 N 0 0 0
0:00:00.00 182126 N 0 0 0
0:00:00.00 182466 N 0 0 0
0:00:00.00 182804 N 0 0 0
0:00:00.00 183145 N 0 0 0
0:00:00.00 183470 N 0 0 0
0:00:00.00 183802 N 0 0 0
0:00:00.00 184142 N 0 0 0
0:00:00.00 184475 N 0 0 0
0:00:00.00 184804 N 0 0 0
0:00:00.00 185126 N 0 0 0
0:00:00.00 185461 N 0 0 0
0:00:00.00 185783 N 0 0 0
0:00:00.00 186106 N 0 0 0
0:00:00.00 186442 N 0 0 0
0:00:00.00 186766 N 0 0 0
0:00:00.00 187096 N 0 0 0
0:00:00.00 187425 N 0 0 0
0:00:00.00 187758 N 0 0 0
0:00:00.00 188080 N 0 0 0
0:00:00.00 188404 N 0 0 0
0:00:00.00 188741 N 0 0 0
0:00:00.00 189058 N 0 0 0
0:00:00.00 189369 N 0 0 0
0:00:00.00 189698 N 0 0 0
0:00:00.00 190037 N 0 0 0
0:00:00.00 190373 N 0 0 0
0:00:00.00 190706 N 0 0 0
0:00:00.00 191048 N 0 0 0
0:00:00.00 191387 N 0 0 0
0:00:00.00 191722 N 0 0 0
0:00:00.00 192060 N 0 0 0
0:00:00.00 192398 N 0 0 0
0:00:00.00 192731 N 0 0 0
0:00:00.00 193057 N 0 0 0
0:00:00.00 193396 N 0 0 0
0:00:00.00 193720 N 0 0 0
0:00:00.00 194047 N 0 0 0
0:00:00.00 194375 N 0 0 0
0:00:00.00 194704 N 0 0 0
0:00:00.00 195030 N 0 0 0
0:00:00.00 195354 N 0 0 0
0:00:00.00 195692 N 0 0 0
0:00:00.00 196024 N 0 0 0
0:00:00.00 196349 N 0 0 0
0:00:00.00 196682 N 0 0 0
0:00:00.00 197014 N 0 0 0
0:00:00.00 197343 N 0 0 0
0:00:00.00 197672 N 0 0 0
0:00:00.00 198011 N 0 0 0
0:00:00.00 198338 N 0 0 0
0:00:00.00 198657 N 0 0 0
0:00:00.00 198977 N 0 0 0
0:00:00.00 199314 N 0 0 0
0:00:00.00 199640 N 0 0 0
0:00:00.00 199958 N 0 0 0
0:00:00.00 200198 N 0 0 0
0:00:00.00 200574 N 0 0 0
0:00:00.00 200909 N 0 0 0
0:00:00.00 201226 N 0 0 0
0:00:00.00 201546 N 0 0 0
0:00:00.00 201875 N 0 0 0
0:00:00.00 202194 N 0 0 0
0:00:00.00 202520 N 0 0 0
0:00:00.00 202847 N 0 0 0
0:00:00.00 203170 N 0 0 0
0:00:00.00 203494 N 0 0 0
0:00:00.00 203819 N 0 0 0
0:00:00.00 204145 N 0 0 0
0:00:00.00 204471 N 0 0 0
0:00:00.00 204793 N 0 0 0
0:00:00.00 205128 N 0 0 0
0:00:00.00 205452 N 0 0 0
0:00:00.00 205774 N 0 0 0
0:00:00.00 206104 N 0 0 0
0:00:00.00 206429 N 0 0 0
0:00:00.00 206743 N 0 0 0
0:00:00.00 207059 N 0 0 0
0:00:00.00 207387 N 0 0 0
0:00:00.00 207713 N 0 0 0
0:00:00.00 208035 N 0 0 0
0:00:00.00 208361 N 0 0 0
0:00:00.00 208699 N 0 0 0
0:00:00.00 209036 N 0 0 0
0:00:00.00 209367 N 0 0 0
0:00:00.00 209713 N 0 0 0
0:00:00.00 210053 N 0 0 0
0:00:00.00 210382 N 0 0 0
0:00:00.00 210712 N 0 0 0
0:00:00.00 211046 N 0 0 0
0:00:00.00 211381 N 0 0 0
0:00:00.00 211707 N 0 0 0
0:00:00.00 212044 N 0 0 0
0:00:00.00 212380 N 0 0 0
0:00:00.00 212706 N 0 0 0
0:00:00.00 213037 N 0 0 0
0:00:00.00 213372 N 0 0 0
0:00:00.00 213707 N 0 0 0
0:00:00.00 214040 N 0 0 0
0:00:00.00 214380 N 0 0 0
0:00:00.00 214718 N 0 0 0
0:00:00.00 215046 N 0 0 0
0:00:00.00 215383 N 0 0 0
0:00:00.00 215717 N 0 0 0
0:00:00.00 216049 N 0 0 0
0:00:00.00 216382 N 0 0 0
0:00:00.00 216722 N 0 0 0
0:00:00.00 217057 N 0 0 0
0:00:00.00 217384 N 0 0 0
0:00:00.00 217717 N 0 0 0
0:00:00.00 218052 N 0 0 0
0:00:00.00 218387 N 0 0 0
0:00:00.00 218711 N 0 0 0
0:00:00.00 219047 N 0 0 0
0:00:00.00 219382 N 0 0 0
0:00:00.00 219703 N 0 0 0
0:00:00.00 220027 N 0 0 0
0:00:00.00 220343 N 0 0 0
0:00:00.00 220671 N 0 0 0
0:00:00.00 220982 N 0 0 0
0:00:00.00 221296 N 0 0 0
0:00:00.00 221620 N 0 0 0
0:00:00.00 221936 N 0 0 0
0:00:00.00 222253 N 0 0 0
0:00:00.00 222559 N 0 0 0
0:00:00.00 222885 N 0 0 0
0:00:00.00 223196 N 0 0 0
0:00:00.00 223508 N 0 0 0
0:00:00.00 223825 N 0 0 0
0:00:00.00 224019 N 0 0 0
0:00:00.00 224370 N 0 0 0
0:00:00.00 224674 N 0 0 0
0:00:00.00 224982 N 0 0 0
0:00:00.00 225288 N 0 0 0
0:00:00.00 225493 N 0 0 0
0:00:00.00 225835 N 0 0 0
0:00:00.00 226152 N 0 0 0
0:00:00.00 226456 N 0 0 0
0:00:00.00 226759 N 0 0 0
0:00:00.00 227063 N 0 0 0
0:00:00.00 227380 N 0 0 0
0:00:00.00 227695 N 0 0 0
0:00:00.00 227999 N 0 0 0
0:00:00.00 228186 N 0 0 0
0:00:00.00 228330 N 0 0 0
0:00:00.00 228647 N 0 0 0
0:00:00.00 228971 N 0 0 0
0:00:00.00 229289 N 0 0 0
0:00:00.00 229491 N 0 0 0
0:00:00.00 229869 N 0 0 0
0:00:00.00 230193 N 0 0 0
0:00:00.00 230513 N 0 0 0
0:00:00.00 230836 N 0 0 0
0:00:00.00 231152 N 0 0 0
0:00:00.00 231471 N 0 0 0
0:00:00.00 231799 N 0 0 0
0:00:00.00 231989 N 0 0 0
0:00:00.00 232137 N 0 0 0
0:00:00.00 232288 N 0 0 0
0:00:00.00 232461 N 0 0 0
0:00:00.00 232715 N 0 0 0
0:00:00.00 233100 N 0 0 0
0:00:00.00 233428 N 0 0 0
0:00:00.00 233600 N 0 0 0
0:00:00.00 233746 N 0 0 0
0:00:00.00 233894 N 0 0 0
0:00:00.00 234229 N 0 0 0
0:00:00.00 234587 N 0 0 0
0:00:00.00 234916 N 0 0 0
0:00:00.00 235255 N 0 0 0
0:00:00.00 235595 N 0 0 0
0:00:00.00 235921 N 0 0 0
0:00:00.00 236257 N 0 0 0
0:00:00.00 236590 N 0 0 0
0:00:00.00 236930 N 0 0 0
0:00:00.00 237276 N 0 0 0
0:00:00.00 237620 N 0 0 0
0:00:00.00 237962 N 0 0 0
0:00:00.00 238302 N 0 0 0
0:00:00.00 238649 N 0 0 0
0:00:00.00 238986 N 0 0 0
0:00:00.00 239328 N 0 0 0
0:00:00.00 239659 N 0 0 0
0:00:00.00 239990 N 0 0 0
0:00:00.00 240325 N 0 0 0
0:00:00.00 240658 N 0 0 0
0:00:00.00 241011 N 0 0 0
0:00:00.00 241353 N 0 0 0
0:00:00.00 241691 N 0 0 0
0:00:00.00 242032 N 0 0 0
0:00:00.00 242381 N 0 0 0
0:00:00.00 242726 N 0 0 0
0:00:00.00 243068 N 0 0 0
0:00:00.00 243416 N 0 0 0
0:00:00.00 243765 N 0 0 0
0:00:00.00 244112 N 0 0 0
0:00:00.00 244454 N 0 0 0
0:00:00.00 244814 N 0 0 0
0:00:00.00 245160 N 0 0 0
0:00:00.00 245493 N 0 0 0
0:00:00.00 245835 N 0 0 0
0:00:00.00 246179 N 0 0 0
0:00:00.00 246530 N 0 0 0
0:00:00.00 246863 N 0 0 0
0:00:00.00 247205 N 0 0 0
0:00:00.00 247550 N 0 0 0
0:00:00.00 247892 N 0 0 0
0:00:00.00 248234 N 0 0 0
0:00:00.00 248582 N 0 0 0
0:00:00.00 248926 N 0 0 0
0:00:00.00 249269 N 0 0 0
0:00:00.00 249617 N 0 0 0
0:00:00.00 249959 N 0 0 0
0:00:00.00 250306 N 0 0 0
0:00:00.00 250659 N 0 0 0
0:00:00.00 251012 N 0 0 0
0:00:00.00 251356 N 0 0 0
0:00:00.00 251703 N 0 0 0
0:00:00.00 252054 N 0 0 0
0:00:00.00 252392 N 0 0 0
0:00:00.00 252736 N 0 0 0
0:00:00.00 253080 N 0 0 0
0:00:00.00 253429 N 0 0 0
0:00:00.00 253764 N 0 0 0
0:00:00.00 254110 N 0 0 0
0:00:00.00 254452 N 0 0 0
0:00:00.00 254786 N 0 0 0
0:00:00.00 255123 N 0 0 0
0:00:00.00 255470 N 0 0 0
0:00:00.00 255809 N 0 0 0
0:00:00.00 256145 N 0 0 0
0:00:00.00 256491 N 0 0 0
0:00:00.00 256844 N 0 0 0
0:00:00.00 257186 N 0 0 0
0:00:00.00 257537 N 0 0 0
0:00:00.00 257897 N 0 0 0
0:00:00.00 258239 N 0 0 0
0:00:00.00 258575 N 0 0 0
0:00:00.00 258928 N 0 0 0
0:00:00.00 259267 N 0 0 0
0:00:00.00 259596 N 0 0 0
0:00:00.00 259920 N 0 0 0
0:00:00.00 260257 N 0 0 0
0:00:00.00 260577 N 0 0 0
0:00:00.00 260903 N 0 0 0
0:00:00.00 261239 N 0 0 0
0:00:00.00 261556 N 0 0 0
0:00:00.00 261884 N 0 0 0
0:00:00.00 262213 N 0 0 0
0:00:00.00 262543 N 0 0 0
0:00:00.00 262868 N 0 0 0
0:00:00.00 263194 N 0 0 0
0:00:00.00 263529 N 0 0 0
0:00:00.00 263855 N 0 0 0
0:00:00.00 264170 N 0 0 0
0:00:00.00 264496 N 0 0 0
0:00:00.00 264830 N 0 0 0
0:00:00.00 265154 N 0 0 0
0:00:00.00 265477 N 0 0 0
0:00:00.00 265815 N 0 0 0
0:00:00.00 266146 N 0 0 0
0:00:00.00 266467 N 0 0 0
0:00:00.00 266785 N 0 0 0
0:00:00.00 267125 N 0 0 0
0:00:00.00 267460 N 0 0 0
0:00:00.00 267790 N 0 0 0
0:00:00.00 268144 N 0 0 0
0:00:00.00 268492 N 0 0 0
0:00:00.00 268826 N 0 0 0
0:00:00.00 269167 N 0 0 0
0:00:00.00 269507 N 0 0 0
0:00:00.00 269849 N 0 0 0
0:00:00.00 270184 N 0 0 0
0:00:00.00 270524 N 0 0 0
0:00:00.00 270850 N 0 0 0
0:00:00.00 271170 N 0 0 0
0:00:00.00 271503 N 0 0 0
0:00:00.00 271840 N 0 0 0
0:00:00.00 272178 N 0 0 0
0:00:00.00 272520 N 0 0 0
0:00:00.00 272869 N 0 0 0
0:00:00.00 273215 N 0 0 0
0:00:00.00 273551 N 0 0 0
0:00:00.00 273897 N 0 0 0
0:00:00.00 274244 N 0 0 0
0:00:00.00 274583 N 0 0 0
0:00:00.00 274914 N 0 0 0
0:00:00.00 275261 N 0 0 0
0:00:00.00 275594 N 0 0 0
0:00:00.00 275924 N 0 0 0
0:00:00.00 276255 N 0 0 0
0:00:00.00 276593 N 0 0 0
0:00:00.00 276930 N 0 0 0
0:00:00.00 277258 N 0 0 0
0:00:00.00 277600 N 0 0 0
0:00:00.00 277931 N 0 0 0
0:00:00.00 278264 N 0 0 0
0:00:00.00 278597 N 0 0 0
0:00:00.00 278928 N 0 0 0
0:00:00.00 279259 N 0 0 0
0:00:00.00 279587 N 0 0 0
0:00:00.00 279932 N 0 0 0
0:00:00.00 280265 N 0 0 0
0:00:00.00 280593 N 0 0 0
0:00:00.00 280921 N 0 0 0
0:00:00.00 281255 N 0 0 0
0:00:00.00 281590 N 0 0 0
0:00:00.00 281916 N 0 0 0
0:00:00.00 282253 N 0 0 0
0:00:00.00 282589 N 0 0 0
0:00:00.00 282917 N 0 0 0
0:00:00.00 283235 N 0 0 0
0:00:00.00 283568 N 0 0 0
0:00:00.00 283898 N 0 0 0
0:00:00.00 284215 N 0 0 0
0:00:00.00 284542 N 0 0 0
0:00:00.00 284870 N 0 0 0
0:00:00.00 285201 N 0 0 0
0:00:00.00 285532 N 0 0 0
0:00:00.00 285874 N 0 0 0
0:00:00.00 286220 N 0 0 0
0:00:00.00 286551 N 0 0 0
0:00:00.00 286900 N 0 0 0
0:00:00.00 287235 N 0 0 0
0:00:00.00 287557 N 0 0 0
0:00:00.00 287892 N 0 0 0
0:00:00.00 288232 N 0 0 0
0:00:00.00 288560 N 0 0 0
0:00:00.00 288886 N 0 0 0
0:00:00.00 289229 N 0 0 0
0:00:00.00 289573 N 0 0 0
0:00:00.00 289901 N 0 0 0
0:00:00.00 290239 N 0 0 0
0:00:00.00 290579 N 0 0 0
0:00:00.00 290921 N 0 0 0
0:00:00.00 291258 N 0 0 0
0:00:00.00 291604 N 0 0 0
0:00:00.00 291940 N 0 0 0
0:00:00.00 292268 N 0 0 0
0:00:00.00 292595 N 0 0 0
0:00:00.00 292928 N 0 0 0
0:00:00.00 293247 N 0 0 0
0:00:00.00 293560 N 0 0 0
0:00:00.00 293895 N 0 0 0
0:00:00.00 294217 N 0 0 0
0:00:00.00 294539 N 0 0 0
0:00:00.00 294869 N 0 0 0
0:00:00.00 295200 N 0 0 0
0:00:00.00 295528 N 0 0 0
0:00:00.00 295848 N 0 0 0
0:00:00.00 296046 N 0 0 0
0:00:00.00 296419 N 0 0 0
0:00:00.00 296748 N 0 0 0
0:00:00.00 297070 N 0 0 0
0:00:00.00 297391 N 0 0 0
0:00:00.00 297724 N 0 0 0
0:00:00.00 298055 N 0 0 0
0:00:00.00 298390 N 0 0 0
0:00:00.00 298613 N 0 0 0
0:00:00.00 298985 N 0 0 0
0:00:00.00 299327 N 0 0 0
0:00:00.00 299662 N 0 0 0
0:00:00.00 299986 N 0 0 0
0:00:00.00 300224 N 0 0 0
0:00:00.00 300586 N 0 0 0
0:00:00.00 300920 N 0 0 0
0:00:00.00 301239 N 0 0 0
0:00:00.00 301550 N 0 0 0
0:00:00.00 301867 N 0 0 0
0:00:00.00 302202 N 0 0 0
0:00:00.00 302539 N 0 0 0
0:00:00.00 302854 N 0 0 0
0:00:00.00 303183 N 0 0 0
0:00:00.00 303512 N 0 0 0
0:00:00.00 303842 N 0 0 0
0:00:00.00 304177 N 0 0 0
0:00:00.00 304511 N 0 0 0
0:00:00.00 304742 N 0 0 0
0:00:00.00 305125 N 0 0 0
0:00:00.00 305465 N 0 0 0
0:00:00.00 305800 N 0 0 0
0:00:00.00 306124 N 0 0 0
0:00:00.00 306427 N 0 0 0
0:00:00.00 306778 N 0 0 0
0:00:00.00 307107 N 0 0 0
0:00:00.00 307435 N 0 0 0
0:00:00.00 307618 N 0 0 0
0:00:00.00 307769 N 0 0 0
0:00:00.00 308009 N 0 0 0
0:00:00.00 308363 N 0 0 0
0:00:00.00 308711 N 0 0 0
0:00:00.00 309053 N 0 0 0
0:00:00.00 309397 N 0 0 0
0:00:00.00 309598 N 0 0 0
0:00:00.00 309976 N 0 0 0
0:00:00.00 310336 N 0 0 0
0:00:00.00 310678 N 0 0 0
0:00:00.00 311013 N 0 0 0
0:00:00.00 311360 N 0 0 0
0:00:00.00 311715 N 0 0 0
0:00:00.00 312059 N 0 0 0
0:00:00.00 312395 N 0 0 0
0:00:00.00 312745 N 0 0 0
0:00:00.00 313085 N 0 0 0
0:00:00.00 313420 N 0 0 0
0:00:00.00 313762 N 0 0 0
0:00:00.00 314109 N 0 0 0
0:00:00.00 314455 N 0 0 0
0:00:00.00 314802 N 0 0 0
0:00:00.00 315162 N 0 0 0
0:00:00.00 315515 N 0 0 0
0:00:00.00 315866 N 0 0 0
0:00:00.00 316217 N 0 0 0
0:00:00.00 316564 N 0 0 0
0:00:00.00 316901 N 0 0 0
0:00:00.00 317257 N 0 0 0
0:00:00.00 317608 N 0 0 0
0:00:00.00 317947 N 0 0 0
0:00:00.00 318289 N 0 0 0
0:00:00.00 318638 N 0 0 0
0:00:00.00 318983 N 0 0 0
0:00:00.00 319318 N 0 0 0
0:00:00.00 319667 N 0 0 0
0:00:00.00 320004 N 0 0 0
0:00:00.00 320341 N 0 0 0
0:00:00.00 320683 N 0 0 0
0:00:00.00 321028 N 0 0 0
0:00:00.00 321367 N 0 0 0
0:00:00.00 321703 N 0 0 0
0:00:00.00 322038 N 0 0 0
0:00:00.00 322371 N 0 0 0
0:00:00.00 322704 N 0 0 0
0:00:00.00 323037 N 0 0 0
0:00:00.00 323368 N 0 0 0
0:00:00.00 323690 N 0 0 0
0:00:00.00 324011 N 0 0 0
0:00:00.00 324347 N 0 0 0
0:00:00.00 324671 N 0 0 0
0:00:00.00 324994 N 0 0 0
0:00:00.00 325328 N 0 0 0
0:00:00.00 325676 N 0 0 0
0:00:00.00 326009 N 0 0 0
0:00:00.00 326336 N 0 0 0
0:00:00.00 326675 N 0 0 0
0:00:00.00 327002 N 0 0 0
0:00:00.00 327343 N 0 0 0
0:00:00.00 327670 N 0 0 0
0:00:00.00 328005 N 0 0 0
0:00:00.00 328334 N 0 0 0
0:00:00.00 328550 N 0 0 0
0:00:00.00 328945 N 0 0 0
0:00:00.00 329294 N 0 0 0
0:00:00.00 329630 N 0 0 0
0:00:00.00 329971 N 0 0 0
0:00:00.00 330305 N 0 0 0
0:00:00.00 330635 N 0 0 0
0:00:00.00 330970 N 0 0 0
0:00:00.00 331313 N 0 0 0
0:00:00.00 331657 N 0 0 0
0:00:00.00 331990 N 0 0 0
0:00:00.00 332323 N 0 0 0
0:00:00.00 332674 N 0 0 0
0:00:00.00 333005 N 0 0 0
0:00:00.00 333335 N 0 0 0
0:00:00.00 333538 N 0 0 0
0:00:00.00 333925 N 0 0 0
0:00:00.00 334265 N 0 0 0
0:00:00.00 334602 N 0 0 0
0:00:00.00 334939 N 0 0 0
0:00:00.00 335270 N 0 0 0
0:00:00.00 335594 N 0 0 0
0:00:00.00 335936 N 0 0 0
0:00:00.00 336263 N 0 0 0
0:00:00.00 336578 N 0 0 0
0:00:00.00 336910 N 0 0 0
0:00:00.00 337250 N 0 0 0
0:00:00.00 337583 N 0 0 0
0:00:00.00 337907 N 0 0 0
0:00:00.00 338249 N 0 0 0
0:00:00.00 338587 N 0 0 0
0:00:00.00 338924 N 0 0 0
0:00:00.00 339257 N 0 0 0
0:00:00.00 339606 N 0 0 0
0:00:00.00 339953 N 0 0 0
0:00:00.00 340301 N 0 0 0
0:00:00.00 340652 N 0 0 0
0:00:00.00 341008 N 0 0 0
0:00:00.00 341357 N 0 0 0
0:00:00.00 341716 N 0 0 0
0:00:00.00 342085 N 0 0 0
0:00:00.00 342455 N 0 0 0
0:00:00.00 342833 N 0 0 0
0:00:00.00 343199 N 0 0 0
0:00:00.00 343553 N 0 0 0
0:00:00.00 343915 N 0 0 0
0:00:00.00 344277 N 0 0 0
0:00:00.00 344632 N 0 0 0
0:00:00.00 344970 N 0 0 0
0:00:00.00 345323 N 0 0 0
0:00:00.00 345683 N 0 0 0
0:00:00.00 346019 N 0 0 0
0:00:00.00 346365 N 0 0 0
0:00:00.00 346718 N 0 0 0
0:00:00.00 347053 N 0 0 0
0:00:00.00 347389 N 0 0 0
0:00:00.00 347728 N 0 0 0
0:00:00.00 348066 N 0 0 0
0:00:00.00 348399 N 0 0 0
0:00:00.00 348746 N 0 0 0
0:00:00.00 349103 N 0 0 0
0:00:00.00 349452 N 0 0 0
0:00:00.00 349817 N 0 0 0
0:00:00.00 350188 N 0 0 0
0:00:00.00 350550 N 0 0 0
0:00:00.00 350921 N 0 0 0
0:00:00.00 351297 N 0 0 0
0:00:00.00 351671 N 0 0 0
0:00:00.00 352033 N 0 0 0
0:00:00.00 352406 N 0 0 0
0:00:00.00 352764 N 0 0 0
0:00:00.00 353115 N 0 0 0
0:00:00.00 353466 N 0 0 0
0:00:00.00 353815 N 0 0 0
0:00:00.00 354159 N 0 0 0
0:00:00.00 354505 N 0 0 0
0:00:00.00 354847 N 0 0 0
0:00:00.00 355178 N 0 0 0
0:00:00.00 355520 N 0 0 0
0:00:00.00 355856 N 0 0 0
0:00:00.00 356189 N 0 0 0
0:00:00.00 356526 N 0 0 0
0:00:00.00 356882 N 0 0 0
0:00:00.00 357232 N 0 0 0
0:00:00.00 357577 N 0 0 0
0:00:00.00 357923 N 0 0 0
0:00:00.00 358279 N 0 0 0
0:00:00.00 358628 N 0 0 0
0:00:00.00 358965 N 0 0 0
0:00:00.00 359316 N 0 0 0
0:00:00.00 359651 N 0 0 0
0:00:00.00 359986 N 0 0 0
0:00:00.00 360328 N 0 0 0
0:00:00.00 360666 N 0 0 0
0:00:00.00 360911 N 0 0 0
0:00:00.00 361282 N 0 0 0
0:00:00.00 361631 N 0 0 0
0:00:00.00 361966 N 0 0 0
0:00:00.00 362286 N 0 0 0
0:00:00.00 362617 N 0 0 0
0:00:00.00 362963 N 0 0 0
0:00:00.00 363290 N 0 0 0
0:00:00.00 363620 N 0 0 0
0:00:00.00 363955 N 0 0 0
0:00:00.00 364297 N 0 0 0
0:00:00.00 364633 N 0 0 0
0:00:00.00 364964 N 0 0 0
0:00:00.00 365161 N 0 0 0
0:00:00.00 365319 N 0 0 0
0:00:00.00 365690 N 0 0 0
0:00:00.00 366039 N 0 0 0
0:00:00.00 366383 N 0 0 0
0:00:00.00 366712 N 0 0 0
0:00:00.00 366910 N 0 0 0
0:00:00.00 367299 N 0 0 0
0:00:00.00 367645 N 0 0 0
0:00:00.00 367983 N 0 0 0
0:00:00.00 368311 N 0 0 0
0:00:00.00 368656 N 0 0 0
0:00:00.00 368995 N 0 0 0
0:00:00.00 369329 N 0 0 0
0:00:00.00 369664 N 0 0 0
0:00:00.00 370008 N 0 0 0
0:00:00.00 370359 N 0 0 0
0:00:00.00 370703 N 0 0 0
0:00:00.00 371059 N 0 0 0
0:00:00.00 371408 N 0 0 0
0:00:00.00 371759 N 0 0 0
0:00:00.00 372114 N 0 0 0
0:00:00.00 372467 N 0 0 0
0:00:00.00 372812 N 0 0 0
0:00:00.00 373165 N 0 0 0
0:00:00.00 373522 N 0 0 0
0:00:00.00 373867 N 0 0 0
0:00:00.00 374225 N 0 0 0
0:00:00.00 374585 N 0 0 0
0:00:00.00 374953 N 0 0 0
0:00:00.00 375305 N 0 0 0
0:00:00.00 375669 N 0 0 0
0:00:00.00 376016 N 0 0 0
0:00:00.00 376353 N 0 0 0
0:00:00.00 376695 N 0 0 0
0:00:00.00 377046 N 0 0 0
0:00:00.00 377393 N 0 0 0
0:00:00.00 377734 N 0 0 0
0:00:00.00 378094 N 0 0 0
0:00:00.00 378439 N 0 0 0
0:00:00.00 378778 N 0 0 0
0:00:00.00 379123 N 0 0 0
0:00:00.00 379462 N 0 0 0
0:00:00.00 379798 N 0 0 0
0:00:00.00 380126 N 0 0 0
0:00:00.00 380464 N 0 0 0
0:00:00.00 380795 N 0 0 0
0:00:00.00 381137 N 0 0 0
0:00:00.00 381479 N 0 0 0
0:00:00.00 381832 N 0 0 0
0:00:00.00 382172 N 0 0 0
0:00:00.00 382525 N 0 0 0
0:00:00.00 382878 N 0 0 0
0:00:00.00 383222 N 0 0 0
0:00:00.00 383567 N 0 0 0
0:00:00.00 383911 N 0 0 0
0:00:00.00 384260 N 0 0 0
0:00:00.00 384606 N 0 0 0
0:00:00.00 384971 N 0 0 0
0:00:00.00 385328 N 0 0 0
0:00:00.00 385675 N 0 0 0
0:00:00.00 386039 N 0 0 0
0:00:00.00 386406 N 0 0 0
0:00:00.00 386757 N 0 0 0
0:00:00.00 387104 N 0 0 0
0:00:00.00 387452 N 0 0 0
0:00:00.00 387792 N 0 0 0
0:00:00.00 388138 N 0 0 0
0:00:00.00 388476 N 0 0 0
0:00:00.00 388816 N 0 0 0
0:00:00.00 389153 N 0 0 0
0:00:00.00 389489 N 0 0 0
0:00:00.00 389826 N 0 0 0
0:00:00.00 390166 N 0 0 0
0:00:00.00 390501 N 0 0 0
0:00:00.00 390838 N 0 0 0
0:00:00.00 391171 N 0 0 0
0:00:00.00 391464 N 0 0 0
0:00:00.00 391817 N 0 0 0
0:00:00.00 392148 N 0 0 0
0:00:00.00 392468 N 0 0 0
0:00:00.00 392791 N 0 0 0
0:00:00.00 392983 N 0 0 0
0:00:00.00 393129 N 0 0 0
0:00:00.00 393496 N 0 0 0
0:00:00.00 393818 N 0 0 0
0:00:00.00 394153 N 0 0 0
0:00:00.00 394459 N 0 0 0
0:00:00.00 394799 N 0 0 0
0:00:00.00 395127 N 0 0 0
0:00:00.00 395453 N 0 0 0
0:00:00.00 395654 N 0 0 0
0:00:00.00 395863 N 0 0 0
0:00:00.00 396241 N 0 0 0
0:00:00.00 396587 N 0 0 0
0:00:00.00 396916 N 0 0 0
0:00:00.00 397132 N 0 0 0
0:00:00.00 397291 N 0 0 0
0:00:00.00 397660 N 0 0 0
0:00:00.00 398012 N 0 0 0
0:00:00.00 398342 N 0 0 0
0:00:00.00 398677 N 0 0 0
0:00:00.00 399026 N 0 0 0
0:00:00.00 399362 N 0 0 0
0:00:00.00 399697 N 0 0 0
0:00:00.00 399886 N 0 0 0
0:00:00.00 400041 N 0 0 0
0:00:00.00 400417 N 0 0 0
0:00:00.00 400757 N 0 0 0
0:00:00.00 401090 N 0 0 0
0:00:00.00 401423 N 0 0 0
0:00:00.00 401755 N 0 0 0
0:00:00.00 402088 N 0 0 0
0:00:00.00 402415 N 0 0 0
0:00:00.00 402745 N 0 0 0
0:00:00.00 403074 N 0 0 0
0:00:00.00 403420 N 0 0 0
0:00:00.00 403756 N 0 0 0
0:00:00.00 404073 N 0 0 0
0:00:00.00 404390 N 0 0 0
0:00:00.00 404710 N 0 0 0
0:00:00.00 405041 N 0 0 0
0:00:00.00 405358 N 0 0 0
0:00:00.00 405666 N 0 0 0
0:00:00.00 406003 N 0 0 0
0:00:00.00 406327 N 0 0 0
0:00:00.00 406647 N 0 0 0
0:00:00.00 406969 N 0 0 0
0:00:00.00 407300 N 0 0 0
0:00:00.00 407630 N 0 0 0
0:00:00.00 407956 N 0 0 0
0:00:00.00 408296 N 0 0 0
0:00:00.00 408629 N 0 0 0
0:00:00.00 408960 N 0 0 0
0:00:00.00 409298 N 0 0 0
0:00:00.00 409651 N 0 0 0
0:00:00.00 409988 N 0 0 0
0:00:00.00 410332 N 0 0 0
0:00:00.00 410681 N 0 0 0
0:00:00.00 411019 N 0 0 0
0:00:00.00 411347 N 0 0 0
0:00:00.00 411696 N 0 0 0
0:00:00.00 412051 N 0 0 0
0:00:00.00 412387 N 0 0 0
0:00:00.00 412726 N 0 0 0
0:00:00.00 413073 N 0 0 0
0:00:00.00 413410 N 0 0 0
0:00:00.00 413743 N 0 0 0
0:00:00.00 414070 N 0 0 0
0:00:00.00 414410 N 0 0 0
0:00:00.00 414733 N 0 0 0
0:00:00.00 415058 N 0 0 0
0:00:00.00 415391 N 0 0 0
0:00:00.00 415715 N 0 0 0
0:00:00.00 416041 N 0 0 0
0:00:00.00 416367 N 0 0 0
0:00:00.00 416637 N 0 0 0
0:00:00.00 416797 N 0 0 0
0:00:00.00 417143 N 0 0 0
0:00:00.00 417494 N 0 0 0
0:00:00.00 417834 N 0 0 0
0:00:00.00 418156 N 0 0 0
0:00:00.00 418496 N 0 0 0
0:00:00.00 418837 N 0 0 0
0:00:00.00 419171 N 0 0 0
0:00:00.00 419497 N 0 0 0
0:00:00.00 419834 N 0 0 0
0:00:00.00 420179 N 0 0 0
0:00:00.00 420511 N 0 0 0
0:00:00.00 420842 N 0 0 0
0:00:00.00 421177 N 0 0 0
0:00:00.00 421517 N 0 0 0
0:00:00.00 421846 N 0 0 0
0:00:00.00 422188 N 0 0 0
0:00:00.00 422530 N 0 0 0
0:00:00.00 422863 N 0 0 0
0:00:00.00 423198 N 0 0 0
0:00:00.00 423535 N 0 0 0
0:00:00.00 423862 N 0 0 0
0:00:00.00 424179 N 0 0 0
0:00:00.00 424512 N 0 0 0
0:00:00.00 424836 N 0 0 0
0:00:00.00 425151 N 0 0 0
0:00:00.00 425475 N 0 0 0
0:00:00.00 425810 N 0 0 0
0:00:00.00 426143 N 0 0 0
0:00:00.00 426479 N 0 0 0
0:00:00.00 426821 N 0 0 0
0:00:00.00 427167 N 0 0 0
0:00:00.00 427507 N 0 0 0
0:00:00.00 427842 N 0 0 0
0:00:00.00 428189 N 0 0 0
0:00:00.00 428528 N 0 0 0
0:00:00.00 428859 N 0 0 0
0:00:00.00 429201 N 0 0 0
0:00:00.00 429532 N 0 0 0
0:00:00.00 429854 N 0 0 0
0:00:00.00 430180 N 0 0 0
0:00:00.00 430513 N 0 0 0
0:00:00.00 430848 N 0 0 0
0:00:00.00 431172 N 0 0 0
0:00:00.00 431512 N 0 0 0
0:00:00.00 431843 N 0 0 0
0:00:00.00 432169 N 0 0 0
0:00:00.00 432509 N 0 0 0
0:00:00.00 432853 N 0 0 0
0:00:00.00 433193 N 0 0 0
0:00:00.00 433530 N 0 0 0
0:00:00.00 433879 N 0 0 0
0:00:00.00 434218 N 0 0 0
0:00:00.00 434552 N 0 0 0
0:00:00.00 434893 N 0 0 0
0:00:00.00 435233 N 0 0 0
0:00:00.00 435559 N 0 0 0
0:00:00.00 435881 N 0 0 0
0:00:00.00 436214 N 0 0 0
0:00:00.00 436541 N 0 0 0
0:00:00.00 436801 N 0 0 0
0:00:00.00 437170 N 0 0 0
0:00:00.00 437504 N 0 0 0
0:00:00.00 437832 N 0 0 0
0:00:00.00 438028 N 0 0 0
0:00:00.00 438404 N 0 0 0
0:00:00.00 438754 N 0 0 0
0:00:00.00 439088 N 0 0 0
0:00:00.00 439430 N 0 0 0
0:00:00.00 439758 N 0 0 0
0:00:00.00 440095 N 0 0 0
0:00:00.00 440419 N 0 0 0
0:00:00.00 440743 N 0 0 0
0:00:00.00 441070 N 0 0 0
0:00:00.00 441382 N 0 0 0
0:00:00.00 441691 N 0 0 0
0:00:00.00 441896 N 0 0 0
0:00:00.00 442251 N 0 0 0
0:00:00.00 442562 N 0 0 0
0:00:00.00 442874 N 0 0 0
0:00:00.00 443097 N 0 0 0
0:00:00.00 443254 N 0 0 0
0:00:00.00 443594 N 0 0 0
0:00:00.00 443914 N 0 0 0
0:00:00.00 444242 N 0 0 0
0:00:00.00 444431 N 0 0 0
0:00:00.00 444584 N 0 0 0
0:00:00.00 444724 N 0 0 0
0:00:00.00 444899 N 0 0 0
0:00:00.00 445252 N 0 0 0
0:00:00.00 445597 N 0 0 0
0:00:00.00 445846 N 0 0 0
0:00:00.00 446035 N 0 0 0
0:00:00.00 446375 N 0 0 0
0:00:00.00 446746 N 0 0 0
0:00:00.00 447093 N 0 0 0
0:00:00.00 447286 N 0 0 0
0:00:00.00 447428 N 0 0 0
0:00:00.00 447745 N 0 0 0
0:00:00.00 448088 N 0 0 0
0:00:00.00 448420 N 0 0 0
0:00:00.00 448753 N 0 0 0
0:00:00.00 449078 N 0 0 0
0:00:00.00 449404 N 0 0 0
0:00:00.00 449721 N 0 0 0
0:00:00.00 449939 N 0 0 0
0:00:00.00 450097 N 0 0 0
0:00:00.00 450470 N 0 0 0
0:00:00.00 450812 N 0 0 0
0:00:00.00 451154 N 0 0 0
0:00:00.00 451496 N 0 0 0
0:00:00.00 451838 N 0 0 0
0:00:00.00 452174 N 0 0 0
0:00:00.00 452516 N 0 0 0
0:00:00.00 452853 N 0 0 0
0:00:00.00 453184 N 0 0 0
0:00:00.00 453517 N 0 0 0
0:00:00.00 453865 N 0 0 0
0:00:00.00 454196 N 0 0 0
0:00:00.00 454433 N 0 0 0
0:00:00.00 454826 N 0 0 0
0:00:00.00 455161 N 0 0 0
0:00:00.00 455479 N 0 0 0
0:00:00.00 455756 N 0 0 0
0:00:00.00 456095 N 0 0 0
0:00:00.00 456417 N 0 0 0
0:00:00.00 456728 N 0 0 0
0:00:00.00 457040 N 0 0 0
0:00:00.00 457348 N 0 0 0
0:00:00.00 457645 N 0 0 0
0:00:00.00 457947 N 0 0 0
0:00:00.00 458230 N 0 0 0
0:00:00.00 458402 N 0 0 0
0:00:00.00 458737 N 0 0 0
0:00:00.00 459079 N 0 0 0
0:00:00.00 459416 N 0 0 0
0:00:00.00 459747 N 0 0 0
0:00:00.00 460075 N 0 0 0
0:00:00.00 460415 N 0 0 0
0:00:00.00 460748 N 0 0 0
0:00:00.00 461075 N 0 0 0
0:00:00.00 461394 N 0 0 0
0:00:00.00 461725 N 0 0 0
0:00:00.00 462049 N 0 0 0
0:00:00.00 462371 N 0 0 0
0:00:00.00 462699 N 0 0 0
0:00:00.00 463027 N 0 0 0
0:00:00.00 463356 N 0 0 0
0:00:00.00 463675 N 0 0 0
0:00:00.00 464004 N 0 0 0
0:00:00.00 464332 N 0 0 0
0:00:00.00 464638 N 0 0 0
0:00:00.00 464958 N 0 0 0
0:00:00.00 465277 N 0 0 0
0:00:00.00 465595 N 0 0 0
0:00:00.00 465914 N 0 0 0
0:00:00.00 466227 N 0 0 0
0:00:00.00 466553 N 0 0 0
0:00:00.00 466875 N 0 0 0
0:00:00.00 467192 N 0 0 0
0:00:00.00 467510 N 0 0 0
0:00:00.00 467732 N 0 0 0
0:00:00.00 468110 N 0 0 0
0:00:00.00 468441 N 0 0 0
0:00:00.00 468778 N 0 0 0
0:00:00.00 469098 N 0 0 0
0:00:00.00 469415 N 0 0 0
0:00:00.00 469737 N 0 0 0
0:00:00.00 470054 N 0 0 0
0:00:00.00 470374 N 0 0 0
0:00:00.00 470691 N 0 0 0
0:00:00.00 471017 N 0 0 0
0:00:00.00 471344 N 0 0 0
0:00:00.00 471661 N 0 0 0
0:00:00.00 471987 N 0 0 0
0:00:00.00 472313 N 0 0 0
0:00:00.00 472648 N 0 0 0
0:00:00.00 472972 N 0 0 0
0:00:00.00 473292 N 0 0 0
0:00:00.00 473630 N 0 0 0
0:00:00.00 473960 N 0 0 0
0:00:00.00 474287 N 0 0 0
0:00:00.00 474622 N 0 0 0
0:00:00.00 474970 N 0 0 0
0:00:00.00 475301 N 0 0 0
0:00:00.00 475630 N 0 0 0
0:00:00.00 475969 N 0 0 0
0:00:00.00 476298 N 0 0 0
0:00:00.00 476633 N 0 0 0
0:00:00.00 476971 N 0 0 0
0:00:00.00 477311 N 0 0 0
0:00:00.00 477646 N 0 0 0
0:00:00.00 477981 N 0 0 0
0:00:00.00 478328 N 0 0 0
0:00:00.00 478658 N 0 0 0
0:00:00.00 478982 N 0 0 0
0:00:00.00 479304 N 0 0 0
0:00:00.00 479632 N 0 0 0
0:00:00.00 479954 N 0 0 0
0:00:00.00 480280 N 0 0 0
0:00:00.00 480611 N 0 0 0
0:00:00.00 480937 N 0 0 0
0:00:00.00 481264 N 0 0 0
0:00:00.00 481597 N 0 0 0
0:00:00.00 481943 N 0 0 0
0:00:00.00 482269 N 0 0 0
0:00:00.00 482598 N 0 0 0
0:00:00.00 482935 N 0 0 0
0:00:00.00 483271 N 0 0 0
0:00:00.00 483602 N 0 0 0
0:00:00.00 483934 N 0 0 0
0:00:00.00 484267 N 0 0 0
0:00:00.00 484589 N 0 0 0
0:00:00.00 484915 N 0 0 0
0:00:00.00 485246 N 0 0 0
0:00:00.00 485572 N 0 0 0
0:00:00.00 485901 N 0 0 0
0:00:00.00 486223 N 0 0 0
0:00:00.00 486562 N 0 0 0
0:00:00.00 486886 N 0 0 0
0:00:00.00 487213 N 0 0 0
0:00:00.00 487550 N 0 0 0
0:00:00.00 487867 N 0 0 0
0:00:00.00 488061 N 0 0 0
0:00:00.00 488416 N 0 0 0
0:00:00.00 488741 N 0 0 0
0:00:00.00 489056 N 0 0 0
0:00:00.00 489362 N 0 0 0
0:00:00.00 489695 N 0 0 0
0:00:00.00 490027 N 0 0 0
0:00:00.00 490343 N 0 0 0
0:00:00.00 490664 N 0 0 0
0:00:00.00 490991 N 0 0 0
0:00:00.00 491315 N 0 0 0
0:00:00.00 491632 N 0 0 0
0:00:00.00 491958 N 0 0 0
0:00:00.00 492287 N 0 0 0
0:00:00.00 492611 N 0 0 0
0:00:00.00 492932 N 0 0 0
0:00:00.00 493256 N 0 0 0
0:00:00.00 493583 N 0 0 0
0:00:00.00 493904 N 0 0 0
0:00:00.00 494237 N 0 0 0
0:00:00.00 494566 N 0 0 0
0:00:00.00 494885 N 0 0 0
0:00:00.00 495212 N 0 0 0
0:00:00.00 495538 N 0 0 0
0:00:00.00 495860 N 0 0 0
0:00:00.00 496177 N 0 0 0
0:00:00.00 496496 N 0 0 0
0:00:00.00 496823 N 0 0 0
0:00:00.00 497146 N 0 0 0
0:00:00.00 497462 N 0 0 0
0:00:00.00 497786 N 0 0 0
0:00:00.00 498116 N 0 0 0
0:00:00.00 498438 N 0 0 0
0:00:00.00 498751 N 0 0 0
0:00:00.00 499077 N 0 0 0
0:00:00.00 499397 N 0 0 0
0:00:00.00 499712 N 0 0 0
0:00:00.00 500026 N 0 0 0
0:00:00.00 500341 N 0 0 0
0:00:00.00 500639 N 0 0 0
0:00:00.00 500940 N 0 0 0
0:00:00.00 501242 N 0 0 0
0:00:00.00 501545 N 0 0 0
0:00:00.00 501851 N 0 0 0
0:00:00.00 502160 N 0 0 0
0:00:00.00 502475 N 0 0 0
0:00:00.00 502776 N 0 0 0
0:00:00.00 503116 N 0 0 0
0:00:00.00 503431 N 0 0 0
0:00:00.00 503764 N 0 0 0
0:00:00.00 504086 N 0 0 0
0:00:00.00 504398 N 0 0 0
0:00:00.00 504720 N 0 0 0
0:00:00.00 505042 N 0 0 0
0:00:00.00 505363 N 0 0 0
0:00:00.00 505681 N 0 0 0
0:00:00.00 506007 N 0 0 0
0:00:00.00 506335 N 0 0 0
0:00:00.00 506655 N 0 0 0
0:00:00.00 506975 N 0 0 0
0:00:00.00 507296 N 0 0 0
0:00:00.00 507609 N 0 0 0
0:00:00.00 507911 N 0 0 0
0:00:00.00 508221 N 0 0 0
0:00:00.00 508534 N 0 0 0
0:00:00.00 508842 N 0 0 0
0:00:00.00 509148 N 0 0 0
0:00:00.00 509456 N 0 0 0
0:00:00.00 509776 N 0 0 0
0:00:00.00 510093 N 0 0 0
0:00:00.00 510404 N 0 0 0
0:00:00.00 510732 N 0 0 0
0:00:00.00 511063 N 0 0 0
0:00:00.00 511256 N 0 0 0
0:00:00.00 511421 N 0 0 0
0:00:00.00 511722 N 0 0 0
0:00:00.00 512127 N 0 0 0
0:00:00.00 512478 N 0 0 0
0:00:00.00 512809 N 0 0 0
0:00:00.00 513148 N 0 0 0
0:00:00.00 513479 N 0 0 0
0:00:00.00 513803 N 0 0 0
0:00:00.00 514125 N 0 0 0
0:00:00.00 514449 N 0 0 0
0:00:00.00 514768 N 0 0 0
0:00:00.00 515084 N 0 0 0
0:00:00.00 515423 N 0 0 0
0:00:00.00 515741 N 0 0 0
0:00:00.00 516056 N 0 0 0
0:00:00.00 516384 N 0 0 0
0:00:00.00 516713 N 0 0 0
0:00:00.00 517034 N 0 0 0
0:00:00.00 517345 N 0 0 0
0:00:00.00 517671 N 0 0 0
0:00:00.00 517984 N 0 0 0
0:00:00.00 518292 N 0 0 0
0:00:00.00 518481 N 0 0 0
0:00:00.00 518828 N 0 0 0
0:00:00.00 519145 N 0 0 0
0:00:00.00 519448 N 0 0 0
0:00:00.00 519745 N 0 0 0
0:00:00.00 520052 N 0 0 0
0:00:00.00 520353 N 0 0 0
0:00:00.00 520645 N 0 0 0
0:00:00.00 520942 N 0 0 0
0:00:00.00 521251 N 0 0 0
0:00:00.00 521561 N 0 0 0
0:00:00.00 521865 N 0 0 0
0:00:00.00 522173 N 0 0 0
0:00:00.00 522481 N 0 0 0
0:00:00.00 522785 N 0 0 0
0:00:00.00 523089 N 0 0 0
0:00:00.00 523397 N 0 0 0
0:00:00.00 523699 N 0 0 0
0:00:00.00 523994 N 0 0 0
0:00:00.00 524288 N 0 0 0
0:00:00.00 524596 N 0 0 0
0:00:00.00 524894 N 0 0 0
0:00:00.00 525184 N 0 0 0
0:00:00.00 525483 N 0 0 0
0:00:00.00 525782 N 0 0 0
0:00:00.00 526095 N 0 0 0
0:00:00.00 526405 N 0 0 0
0:00:00.00 526716 N 0 0 0
0:00:00.00 527040 N 0 0 0
0:00:00.00 527353 N 0 0 0
0:00:00.00 527666 N 0 0 0
0:00:00.00 527985 N 0 0 0
0:00:00.00 528309 N 0 0 0
0:00:00.00 528620 N 0 0 0
0:00:00.00 528934 N 0 0 0
0:00:00.00 529258 N 0 0 0
0:00:00.00 529573 N 0 0 0
0:00:00.00 529882 N 0 0 0
0:00:00.00 530192 N 0 0 0
0:00:00.00 530509 N 0 0 0
0:00:00.00 530827 N 0 0 0
0:00:00.00 531140 N 0 0 0
0:00:00.00 531454 N 0 0 0
0:00:00.00 531767 N 0 0 0
0:00:00.00 532073 N 0 0 0
0:00:00.00 532377 N 0 0 0
0:00:00.00 532678 N 0 0 0
0:00:00.00 532994 N 0 0 0
0:00:00.00 533299 N 0 0 0
0:00:00.00 533590 N 0 0 0
0:00:00.00 533898 N 0 0 0
0:00:00.00 534206 N 0 0 0
0:00:00.00 534506 N 0 0 0
0:00:00.00 534814 N 0 0 0
0:00:00.00 535041 N 0 0 0
0:00:00.00 535408 N 0 0 0
0:00:00.00 535723 N 0 0 0
0:00:00.00 536029 N 0 0 0
0:00:00.00 536346 N 0 0 0
0:00:00.00 536657 N 0 0 0
0:00:00.00 536962 N 0 0 0
0:00:00.00 537271 N 0 0 0
0:00:00.00 537593 N 0 0 0
0:00:00.00 537908 N 0 0 0
0:00:00.00 538222 N 0 0 0
0:00:00.00 538544 N 0 0 0
0:00:00.00 538861 N 0 0 0
0:00:00.00 539172 N 0 0 0
0:00:00.00 539491 N 0 0 0
0:00:00.00 539811 N 0 0 0
0:00:00.00 540128 N 0 0 0
0:00:00.00 540441 N 0 0 0
0:00:00.00 540761 N 0 0 0
0:00:00.00 541087 N 0 0 0
0:00:00.00 541400 N 0 0 0
0:00:00.00 541723 N 0 0 0
0:00:00.00 542045 N 0 0 0
0:00:00.00 542369 N 0 0 0
0:00:00.00 542686 N 0 0 0
0:00:00.00 542995 N 0 0 0
0:00:00.00 543328 N 0 0 0
0:00:00.00 543643 N 0 0 0
0:00:00.00 543946 N 0 0 0
0:00:00.00 544253 N 0 0 0
0:00:00.00 544570 N 0 0 0
0:00:00.00 544878 N 0 0 0
0:00:00.00 545186 N 0 0 0
0:00:00.00 545504 N 0 0 0
0:00:00.00 545823 N 0 0 0
0:00:00.00 546138 N 0 0 0
0:00:00.00 546451 N 0 0 0
0:00:00.00 546766 N 0 0 0
0:00:00.00 547085 N 0 0 0
0:00:00.00 547396 N 0 0 0
0:00:00.00 547704 N 0 0 0
0:00:00.00 548019 N 0 0 0
0:00:00.00 548325 N 0 0 0
0:00:00.00 548633 N 0 0 0
0:00:00.00 548946 N 0 0 0
0:00:00.00 549265 N 0 0 0
0:00:00.00 549572 N 0 0 0
0:00:00.00 549880 N 0 0 0
0:00:00.00 550204 N 0 0 0
0:00:00.00 550521 N 0 0 0
0:00:00.00 550829 N 0 0 0
0:00:00.00 551146 N 0 0 0
0:00:00.00 551466 N 0 0 0
0:00:00.00 551781 N 0 0 0
0:00:00.00 552091 N 0 0 0
0:00:00.00 552406 N 0 0 0
0:00:00.00 552721 N 0 0 0
0:00:00.00 553028 N 0 0 0
0:00:00.00 553325 N 0 0 0
0:00:00.00 553626 N 0 0 0
0:00:00.00 553928 N 0 0 0
0:00:00.00 554218 N 0 0 0
0:00:00.00 554405 N 0 0 0
0:00:00.00 554751 N 0 0 0
0:00:00.00 555046 N 0 0 0
0:00:00.00 555343 N 0 0 0
0:00:00.00 555527 N 0 0 0
0:00:00.00 555874 N 0 0 0
0:00:00.00 556191 N 0 0 0
0:00:00.00 556501 N 0 0 0
0:00:00.00 556803 N 0 0 0
0:00:00.00 557125 N 0 0 0
0:00:00.00 557442 N 0 0 0
0:00:00.00 557746 N 0 0 0
0:00:00.00 557975 N 0 0 0
0:00:00.00 558151 N 0 0 0
0:00:00.00 558522 N 0 0 0
0:00:00.00 558866 N 0 0 0
0:00:00.00 559186 N 0 0 0
0:00:00.00 559519 N 0 0 0
0:00:00.00 559845 N 0 0 0
0:00:00.00 560160 N 0 0 0
0:00:00.00 560473 N 0 0 0
0:00:00.00 560783 N 0 0 0
0:00:00.00 561087 N 0 0 0
0:00:00.00 561388 N 0 0 0
0:00:00.00 561697 N 0 0 0
0:00:00.00 562007 N 0 0 0
0:00:00.00 562320 N 0 0 0
0:00:00.00 562633 N 0 0 0
0:00:00.00 562943 N 0 0 0
0:00:00.00 563260 N 0 0 0
0:00:00.00 563573 N 0 0 0
0:00:00.00 563886 N 0 0 0
0:00:00.00 564205 N 0 0 0
0:00:00.00 564512 N 0 0 0
0:00:00.00 564826 N 0 0 0
0:00:00.00 565135 N 0 0 0
0:00:00.00 565450 N 0 0 0
0:00:00.00 565760 N 0 0 0
0:00:00.00 566068 N 0 0 0
0:00:00.00 566386 N 0 0 0
0:00:00.00 566699 N 0 0 0
0:00:00.00 567005 N 0 0 0
0:00:00.00 567324 N 0 0 0
0:00:00.00 567641 N 0 0 0
0:00:00.00 567961 N 0 0 0
0:00:00.00 568271 N 0 0 0
0:00:00.00 568582 N 0 0 0
0:00:00.00 568901 N 0 0 0
0:00:00.00 569216 N 0 0 0
0:00:00.00 569524 N 0 0 0
0:00:00.00 569835 N 0 0 0
0:00:00.00 570161 N 0 0 0
0:00:00.00 570474 N 0 0 0
0:00:00.00 570785 N 0 0 0
0:00:00.00 571115 N 0 0 0
0:00:00.00 571437 N 0 0 0
0:00:00.00 571754 N 0 0 0
0:00:00.00 572076 N 0 0 0
0:00:00.00 572391 N 0 0 0
0:00:00.00 572711 N 0 0 0
0:00:00.00 573025 N 0 0 0
0:00:00.00 573347 N 0 0 0
0:00:00.00 573665 N 0 0 0
0:00:00.00 573979 N 0 0 0
0:00:00.00 574297 N 0 0 0
0:00:00.00 574610 N 0 0 0
0:00:00.00 574933 N 0 0 0
0:00:00.00 575244 N 0 0 0
0:00:00.00 575548 N 0 0 0
0:00:00.00 575867 N 0 0 0
0:00:00.00 576178 N 0 0 0
0:00:00.00 576488 N 0 0 0
0:00:00.00 576801 N 0 0 0
0:00:00.00 577118 N 0 0 0
0:00:00.00 577427 N 0 0 0
0:00:00.00 577733 N 0 0 0
0:00:00.00 578057 N 0 0 0
0:00:00.00 578371 N 0 0 0
0:00:00.00 578675 N 0 0 0
0:00:00.00 578981 N 0 0 0
0:00:00.00 579290 N 0 0 0
0:00:00.00 579611 N 0 0 0
0:00:00.00 579915 N 0 0 0
0:00:00.00 580232 N 0 0 0
0:00:00.00 580558 N 0 0 0
0:00:00.00 580871 N 0 0 0
0:00:00.00 581191 N 0 0 0
0:00:00.00 581512 N 0 0 0
0:00:00.00 581830 N 0 0 0
0:00:00.00 582147 N 0 0 0
0:00:00.00 582458 N 0 0 0
0:00:00.00 582781 N 0 0 0
0:00:00.00 583103 N 0 0 0
0:00:00.00 583418 N 0 0 0
0:00:00.00 583738 N 0 0 0
0:00:00.00 584066 N 0 0 0
0:00:00.00 584388 N 0 0 0
0:00:00.00 584705 N 0 0 0
0:00:00.00 585032 N 0 0 0
0:00:00.00 585347 N 0 0 0
0:00:00.00 585655 N 0 0 0
0:00:00.00 585976 N 0 0 0
0:00:00.00 586294 N 0 0 0
0:00:00.00 586609 N 0 0 0
0:00:00.00 586917 N 0 0 0
0:00:00.00 587241 N 0 0 0
0:00:00.00 587558 N 0 0 0
0:00:00.00 587867 N 0 0 0
0:00:00.00 588182 N 0 0 0
0:00:00.00 588496 N 0 0 0
0:00:00.00 588811 N 0 0 0
0:00:00.00 589126 N 0 0 0
0:00:00.00 589441 N 0 0 0
0:00:00.00 589757 N 0 0 0
0:00:00.00 590063 N 0 0 0
0:00:00.00 590377 N 0 0 0
0:00:00.00 590688 N 0 0 0
0:00:00.00 591007 N 0 0 0
0:00:00.00 591316 N 0 0 0
0:00:00.00 591622 N 0 0 0
0:00:00.00 591939 N 0 0 0
0:00:00.00 592250 N 0 0 0
0:00:00.00 592556 N 0 0 0
0:00:00.00 592859 N 0 0 0
0:00:00.00 593168 N 0 0 0
0:00:00.00 593489 N 0 0 0
0:00:00.00 593789 N 0 0 0
0:00:00.00 594103 N 0 0 0
0:00:00.00 594418 N 0 0 0
0:00:00.00 594720 N 0 0 0
0:00:00.00 595037 N 0 0 0
0:00:00.00 595343 N 0 0 0
0:00:00.00 595651 N 0 0 0
0:00:00.00 595962 N 0 0 0
0:00:00.00 596268 N 0 0 0
0:00:00.00 596587 N 0 0 0
0:00:00.00 596896 N 0 0 0
0:00:00.00 597209 N 0 0 0
0:00:00.00 597533 N 0 0 0
0:00:00.00 597852 N 0 0 0
0:00:00.00 598169 N 0 0 0
0:00:00.00 598489 N 0 0 0
0:00:00.00 598810 N 0 0 0
0:00:00.00 599132 N 0 0 0
0:00:00.00 599450 N 0 0 0
0:00:00.00 599767 N 0 0 0
0:00:00.00 600088 N 0 0 0
0:00:00.00 600406 N 0 0 0
0:00:00.00 600678 N 0 0 0
0:00:00.00 601034 N 0 0 0
0:00:00.00 601364 N 0 0 0
0:00:00.00 601684 N 0 0 0
0:00:00.00 601997 N 0 0 0
0:00:00.00 602311 N 0 0 0
0:00:00.00 602635 N 0 0 0
0:00:00.00 602946 N 0 0 0
0:00:00.00 603250 N 0 0 0
0:00:00.00 603580 N 0 0 0
0:00:00.00 603902 N 0 0 0
0:00:00.00 604213 N 0 0 0
0:00:00.00 604532 N 0 0 0
0:00:00.00 604854 N 0 0 0
0:00:00.00 605185 N 0 0 0
0:00:00.00 605500 N 0 0 0
0:00:00.00 605817 N 0 0 0
0:00:00.00 606145 N 0 0 0
0:00:00.00 606469 N 0 0 0
0:00:00.00 606785 N 0 0 0
0:00:00.00 607102 N 0 0 0
0:00:00.00 607428 N 0 0 0
0:00:00.00 607747 N 0 0 0
0:00:00.00 608062 N 0 0 0
0:00:00.00 608380 N 0 0 0
0:00:00.00 608686 N 0 0 0
0:00:00.00 608998 N 0 0 0
0:00:00.00 609307 N 0 0 0
0:00:00.00 609629 N 0 0 0
0:00:00.00 609943 N 0 0 0
0:00:00.00 610254 N 0 0 0
0:00:00.00 610582 N 0 0 0
0:00:00.00 610895 N 0 0 0
0:00:00.00 611080 N 0 0 0
0:00:00.00 611447 N 0 0 0
0:00:00.00 611768 N 0 0 0
0:00:00.00 612083 N 0 0 0
0:00:00.00 612394 N 0 0 0
0:00:00.00 612709 N 0 0 0
0:00:00.00 613026 N 0 0 0
0:00:00.00 613332 N 0 0 0
0:00:00.00 613638 N 0 0 0
0:00:00.00 613955 N 0 0 0
0:00:00.00 614275 N 0 0 0
0:00:00.00 614587 N 0 0 0
0:00:00.00 614903 N 0 0 0
0:00:00.00 615235 N 0 0 0
0:00:00.00 615550 N 0 0 0
0:00:00.00 615861 N 0 0 0
0:00:00.00 616169 N 0 0 0
0:00:00.00 616491 N 0 0 0
0:00:00.00 616808 N 0 0 0
0:00:00.00 617116 N 0 0 0
0:00:00.00 617438 N 0 0 0
0:00:00.00 617760 N 0 0 0
0:00:00.00 618079 N 0 0 0
0:00:00.00 618395 N 0 0 0
0:00:00.00 618710 N 0 0 0
0:00:00.00 619036 N 0 0 0
0:00:00.00 619357 N 0 0 0
0:00:00.00 619688 N 0 0 0
0:00:00.00 620015 N 0 0 0
0:00:00.00 620330 N 0 0 0
0:00:00.00 620654 N 0 0 0
0:00:00.00 620971 N 0 0 0
0:00:00.00 621284 N 0 0 0
0:00:00.00 621596 N 0 0 0
0:00:00.00 621913 N 0 0 0
0:00:00.00 622229 N 0 0 0
0:00:00.00 622544 N 0 0 0
0:00:00.00 622863 N 0 0 0
0:00:00.00 623183 N 0 0 0
0:00:00.00 623516 N 0 0 0
0:00:00.00 623839 N 0 0 0
0:00:00.00 624152 N 0 0 0
0:00:00.00 624476 N 0 0 0
0:00:00.00 624793 N 0 0 0
0:00:00.00 625104 N 0 0 0
0:00:00.00 625421 N 0 0 0
0:00:00.00 625743 N 0 0 0
0:00:00.00 626058 N 0 0 0
0:00:00.00 626366 N 0 0 0
0:00:00.00 626686 N 0 0 0
0:00:00.00 627001 N 0 0 0
0:00:00.00 627304 N 0 0 0
0:00:00.00 627615 N 0 0 0
0:00:00.00 627926 N 0 0 0
0:00:00.00 628243 N 0 0 0
0:00:00.00 628560 N 0 0 0
0:00:00.00 628868 N 0 0 0
0:00:00.00 629186 N 0 0 0
0:00:00.00 629500 N 0 0 0
0:00:00.00 629815 N 0 0 0
0:00:00.00 630131 N 0 0 0
0:00:00.00 630455 N 0 0 0
0:00:00.00 630772 N 0 0 0
0:00:00.00 631091 N 0 0 0
0:00:00.00 631422 N 0 0 0
0:00:00.00 631739 N 0 0 0
0:00:00.00 632054 N 0 0 0
0:00:00.00 632371 N 0 0 0
0:00:00.00 632682 N 0 0 0
0:00:00.00 633001 N 0 0 0
0:00:00.00 633307 N 0 0 0
0:00:00.00 633614 N 0 0 0
0:00:00.00 633922 N 0 0 0
0:00:00.00 634225 N 0 0 0
0:00:00.00 634532 N 0 0 0
0:00:00.00 634840 N 0 0 0
0:00:00.00 635159 N 0 0 0
0:00:00.00 635470 N 0 0 0
0:00:00.00 635780 N 0 0 0
0:00:00.00 636106 N 0 0 0
0:00:00.00 636422 N 0 0 0
0:00:00.00 636611 N 0 0 0
0:00:00.00 636986 N 0 0 0
0:00:00.00 637317 N 0 0 0
0:00:00.00 637641 N 0 0 0
0:00:00.00 637963 N 0 0 0
0:00:00.00 638296 N 0 0 0
0:00:00.00 638617 N 0 0 0
0:00:00.00 638926 N 0 0 0
0:00:00.00 639247 N 0 0 0
0:00:00.00 639554 N 0 0 0
0:00:00.00 639878 N 0 0 0
0:00:00.00 640188 N 0 0 0
0:00:00.00 640496 N 0 0 0
0:00:00.00 640816 N 0 0 0
0:00:00.00 641131 N 0 0 0
0:00:00.00 641446 N 0 0 0
0:00:00.00 641758 N 0 0 0
0:00:00.00 642083 N 0 0 0
0:00:00.00 642404 N 0 0 0
0:00:00.00 642717 N 0 0 0
0:00:00.00 643041 N 0 0 0
0:00:00.00 643226 N 0 0 0
0:00:00.00 643586 N 0 0 0
0:00:00.00 643914 N 0 0 0
0:00:00.00 644236 N 0 0 0
0:00:00.00 644564 N 0 0 0
0:00:00.00 644888 N 0 0 0
0:00:00.00 645212 N 0 0 0
0:00:00.00 645539 N 0 0 0
0:00:00.00 645737 N 0 0 0
0:00:00.00 646106 N 0 0 0
0:00:00.00 646447 N 0 0 0
0:00:00.00 646780 N 0 0 0
0:00:00.00 647091 N 0 0 0
0:00:00.00 647404 N 0 0 0
0:00:00.00 647725 N 0 0 0
0:00:00.00 648034 N 0 0 0
0:00:00.00 648338 N 0 0 0
0:00:00.00 648650 N 0 0 0
0:00:00.00 648967 N 0 0 0
0:00:00.00 649278 N 0 0 0
0:00:00.00 649584 N 0 0 0
0:00:00.00 649904 N 0 0 0
