0:00:00.00 9 N 0 0 0
0:00:00.00 104 N 0 0 0
0:00:00.00 182 N 0 0 0
0:00:00.00 445 N 0 0 0
0:00:00.00 628 N 0 0 0
0:00:00.00 925 N 0 0 0
0:00:00.00 1244 N 0 0 0
0:00:00.00 1456 N 0 0 0
0:00:00.00 1805 N 0 0 0
0:00:00.00 2065 N 0 0 0
0:00:00.00 2358 N 0 0 0
0:00:00.00 2545 N 0 0 0
0:00:00.00 2826 N 0 0 0
0:00:00.00 3065 N 0 0 0
0:00:00.00 3526 N 0 0 0
0:00:00.00 3800 N 0 0 0
0:00:00.00 4129 N 0 0 0
0:00:00.00 4489 N 0 0 0
0:00:00.00 4838 N 0 0 0
0:00:00.00 5092 N 0 0 0
0:00:00.00 5357 N 0 0 0
0:00:00.00 5564 N 0 0 0
0:00:00.00 5850 N 0 0 0
0:00:00.00 6100 N 0 0 0
0:00:00.00 6352 N 0 0 0
0:00:00.00 6536 N 0 0 0
0:00:00.00 6881 N 0 0 0
0:00:00.00 7216 N 0 0 0
0:00:00.00 7513 N 0 0 0
0:00:00.00 7713 N 0 0 0
0:00:00.00 8073 N 0 0 0
0:00:00.00 8302 N 0 0 0
0:00:00.00 8546 N 0 0 0
0:00:00.00 8818 N 0 0 0
0:00:00.00 9248 N 0 0 0
0:00:00.00 9515 N 0 0 0
0:00:00.00 9787 N 0 0 0
0:00:00.00 10103 N 0 0 0
0:00:00.00 10375 N 0 0 0
0:00:00.00 10642 N 0 0 0
0:00:00.00 10843 N 0 0 0
0:00:00.00 11128 N 0 0 0
0:00:00.00 11385 N 0 0 0
0:00:00.00 11680 N 0 0 0
0:00:00.00 11857 N 0 0 0
0:00:00.00 12148 N 0 0 0
0:00:00.00 12391 N 0 0 0
0:00:00.00 12742 N 0 0 0
0:00:00.00 13027 N 0 0 0
0:00:00.00 13232 N 0 0 0
0:00:00.00 13496 N 0 0 0
0:00:00.00 13738 N 0 0 0
0:00:00.00 13999 N 0 0 0
0:00:00.00 14245 N 0 0 0
0:00:00.00 14544 N 0 0 0
0:00:00.00 14803 N 0 0 0
0:00:00.00 14992 N 0 0 0
0:00:00.00 15334 N 0 0 0
0:00:00.00 15566 N 0 0 0
0:00:00.00 15835 N 0 0 0
0:00:00.00 16087 N 0 0 0
0:00:00.00 16540 N 0 0 0
0:00:00.00 16929 N 0 0 0
0:00:00.00 17199 N 0 0 0
0:00:00.00 17428 N 0 0 0
0:00:00.00 17683 N 0 0 0
0:00:00.00 17912 N 0 0 0
0:00:00.00 18207 N 0 0 0
0:00:00.00 18464 N 0 0 0
0:00:00.00 18760 N 0 0 0
0:00:00.00 19073 N 0 0 0
0:00:00.00 19298 N 0 0 0
0:00:00.00 19638 N 0 0 0
0:00:00.00 19868 N 0 0 0
0:00:00.00 20147 N 0 0 0
0:00:00.00 20317 N 0 0 0
0:00:00.00 20653 N 0 0 0
0:00:00.00 20912 N 0 0 0
0:00:00.00 21244 N 0 0 0
0:00:00.00 21490 N 0 0 0
0:00:00.00 21757 N 0 0 0
0:00:00.00 21980 N 0 0 0
0:00:00.00 22237 N 0 0 0
0:00:00.00 22426 N 0 0 0
0:00:00.00 22732 N 0 0 0
0:00:00.00 22993 N 0 0 0
0:00:00.00 23328 N 0 0 0
0:00:00.00 23767 N 0 0 0
0:00:00.00 24106 N 0 0 0
0:00:00.00 24361 N 0 0 0
0:00:00.00 24602 N 0 0 0
0:00:00.00 24881 N 0 0 0
0:00:00.00 25198 N 0 0 0
0:00:00.00 25409 N 0 0 0
0:00:00.00 25702 N 0 0 0
0:00:00.00 25949 N 0 0 0
0:00:00.00 26181 N 0 0 0
0:00:00.00 26356 N 0 0 0
0:00:00.00 26620 N 0 0 0
0:00:00.00 26869 N 0 0 0
0:00:00.00 27146 N 0 0 0
0:00:00.00 27337 N 0 0 0
0:00:00.00 27691 N 0 0 0
0:00:00.00 27958 N 0 0 0
0:00:00.00 28184 N 0 0 0
0:00:00.00 28413 N 0 0 0
0:00:00.00 28591 N 0 0 0
0:00:00.00 29059 N 0 0 0
0:00:00.00 29326 N 0 0 0
0:00:00.00 29632 N 0 0 0
0:00:00.00 29948 N 0 0 0
0:00:00.00 30427 N 0 0 0
0:00:00.00 30661 N 0 0 0
0:00:00.00 30879 N 0 0 0
0:00:00.00 31124 N 0 0 0
0:00:00.00 31549 N 0 0 0
0:00:00.00 31793 N 0 0 0
0:00:00.00 32162 N 0 0 0
0:00:00.00 32436 N 0 0 0
0:00:00.00 32643 N 0 0 0
0:00:00.00 32992 N 0 0 0
0:00:00.00 33260 N 0 0 0
0:00:00.00 33458 N 0 0 0
0:00:00.00 33750 N 0 0 0
0:00:00.00 34013 N 0 0 0
0:00:00.00 34277 N 0 0 0
0:00:00.00 34520 N 0 0 0
0:00:00.00 34702 N 0 0 0
0:00:00.00 34970 N 0 0 0
0:00:00.00 35228 N 0 0 0
0:00:00.00 35672 N 0 0 0
0:00:00.00 35930 N 0 0 0
0:00:00.00 36202 N 0 0 0
0:00:00.00 36421 N 0 0 0
0:00:00.00 36769 N 0 0 0
0:00:00.00 37001 N 0 0 0
0:00:00.00 37244 N 0 0 0
0:00:00.00 37429 N 0 0 0
0:00:00.00 37850 N 0 0 0
0:00:00.00 38101 N 0 0 0
0:00:00.00 38423 N 0 0 0
0:00:00.00 38693 N 0 0 0
0:00:00.00 38941 N 0 0 0
0:00:00.00 39245 N 0 0 0
0:00:00.00 39560 N 0 0 0
0:00:00.00 39744 N 0 0 0
0:00:00.00 40018 N 0 0 0
0:00:00.00 40264 N 0 0 0
0:00:00.00 40507 N 0 0 0
0:00:00.00 40711 N 0 0 0
0:00:00.00 41018 N 0 0 0
0:00:00.00 41344 N 0 0 0
0:00:00.00 41567 N 0 0 0
0:00:00.00 41782 N 0 0 0
0:00:00.00 41980 N 0 0 0
0:00:00.00 42336 N 0 0 0
0:00:00.00 42655 N 0 0 0
0:00:00.00 42831 N 0 0 0
0:00:00.00 43130 N 0 0 0
0:00:00.00 43364 N 0 0 0
0:00:00.00 43591 N 0 0 0
0:00:00.00 43808 N 0 0 0
0:00:00.00 44044 N 0 0 0
0:00:00.00 44338 N 0 0 0
0:00:00.00 44842 N 0 0 0
0:00:00.00 45115 N 0 0 0
0:00:00.00 45619 N 0 0 0
0:00:00.00 45864 N 0 0 0
0:00:00.00 46154 N 0 0 0
0:00:00.00 46343 N 0 0 0
0:00:00.00 46636 N 0 0 0
0:00:00.00 46906 N 0 0 0
0:00:00.00 47147 N 0 0 0
0:00:00.00 47398 N 0 0 0
0:00:00.00 47587 N 0 0 0
0:00:00.00 47867 N 0 0 0
0:00:00.00 48134 N 0 0 0
0:00:00.00 48330 N 0 0 0
0:00:00.00 48569 N 0 0 0
0:00:00.00 48848 N 0 0 0
0:00:00.00 49156 N 0 0 0
0:00:00.00 49361 N 0 0 0
0:00:00.00 49626 N 0 0 0
0:00:00.00 49847 N 0 0 0
0:00:00.00 50069 N 0 0 0
0:00:00.00 50240 N 0 0 0
0:00:00.00 50567 N 0 0 0
0:00:00.00 51059 N 0 0 0
0:00:00.00 51379 N 0 0 0
0:00:00.00 51568 N 0 0 0
0:00:00.00 51844 N 0 0 0
0:00:00.00 52135 N 0 0 0
0:00:00.00 52330 N 0 0 0
0:00:00.00 52600 N 0 0 0
0:00:00.00 52870 N 0 0 0
0:00:00.00 53113 N 0 0 0
0:00:00.00 53460 N 0 0 0
0:00:00.00 53730 N 0 0 0
0:00:00.00 53982 N 0 0 0
0:00:00.00 54254 N 0 0 0
0:00:00.00 54621 N 0 0 0
0:00:00.00 54868 N 0 0 0
0:00:00.00 55103 N 0 0 0
0:00:00.00 55303 N 0 0 0
0:00:00.00 55622 N 0 0 0
0:00:00.00 55870 N 0 0 0
0:00:00.00 56146 N 0 0 0
0:00:00.00 56356 N 0 0 0
0:00:00.00 56650 N 0 0 0
0:00:00.00 56894 N 0 0 0
0:00:00.00 57352 N 0 0 0
0:00:00.00 57611 N 0 0 0
0:00:00.00 57841 N 0 0 0
0:00:00.00 58046 N 0 0 0
0:00:00.00 58343 N 0 0 0
0:00:00.00 58574 N 0 0 0
0:00:00.00 58811 N 0 0 0
0:00:00.00 58973 N 0 0 0
0:00:00.00 59263 N 0 0 0
0:00:00.00 59495 N 0 0 0
0:00:00.00 59776 N 0 0 0
0:00:00.00 60039 N 0 0 0
0:00:00.00 60458 N 0 0 0
0:00:00.00 60692 N 0 0 0
0:00:00.00 60939 N 0 0 0
0:00:00.00 61119 N 0 0 0
0:00:00.00 61421 N 0 0 0
0:00:00.00 61724 N 0 0 0
0:00:00.00 61924 N 0 0 0
0:00:00.00 62352 N 0 0 0
0:00:00.00 62638 N 0 0 0
0:00:00.00 62825 N 0 0 0
0:00:00.00 63126 N 0 0 0
0:00:00.00 63364 N 0 0 0
0:00:00.00 63594 N 0 0 0
0:00:00.00 63842 N 0 0 0
0:00:00.00 64039 N 0 0 0
0:00:00.00 64301 N 0 0 0
0:00:00.00 64539 N 0 0 0
0:00:00.00 64769 N 0 0 0
0:00:00.00 64951 N 0 0 0
0:00:00.00 65245 N 0 0 0
0:00:00.00 65470 N 0 0 0
0:00:00.00 65722 N 0 0 0
0:00:00.00 65916 N 0 0 0
0:00:00.00 66289 N 0 0 0
0:00:00.00 66744 N 0 0 0
0:00:00.00 67045 N 0 0 0
0:00:00.00 67212 N 0 0 0
0:00:00.00 67514 N 0 0 0
0:00:00.00 67761 N 0 0 0
0:00:00.00 68038 N 0 0 0
0:00:00.00 68242 N 0 0 0
0:00:00.00 68506 N 0 0 0
0:00:00.00 68985 N 0 0 0
0:00:00.00 69316 N 0 0 0
0:00:00.00 69557 N 0 0 0
0:00:00.00 70002 N 0 0 0
0:00:00.00 70326 N 0 0 0
0:00:00.00 70560 N 0 0 0
0:00:00.00 70895 N 0 0 0
0:00:00.00 71194 N 0 0 0
0:00:00.00 71383 N 0 0 0
0:00:00.00 71698 N 0 0 0
0:00:00.00 72013 N 0 0 0
0:00:00.00 72293 N 0 0 0
0:00:00.00 72578 N 0 0 0
0:00:00.00 72783 N 0 0 0
0:00:00.00 73111 N 0 0 0
0:00:00.00 73345 N 0 0 0
0:00:00.00 73595 N 0 0 0
0:00:00.00 73769 N 0 0 0
0:00:00.00 74092 N 0 0 0
0:00:00.00 74612 N 0 0 0
0:00:00.00 74894 N 0 0 0
0:00:00.00 75089 N 0 0 0
0:00:00.00 75361 N 0 0 0
0:00:00.00 75602 N 0 0 0
0:00:00.00 75825 N 0 0 0
0:00:00.00 76048 N 0 0 0
0:00:00.00 76304 N 0 0 0
0:00:00.00 76563 N 0 0 0
0:00:00.00 76788 N 0 0 0
0:00:00.00 77119 N 0 0 0
0:00:00.00 77398 N 0 0 0
0:00:00.00 77677 N 0 0 0
0:00:00.00 77875 N 0 0 0
0:00:00.00 78109 N 0 0 0
0:00:00.00 78323 N 0 0 0
0:00:00.00 78563 N 0 0 0
0:00:00.00 78761 N 0 0 0
0:00:00.00 79058 N 0 0 0
0:00:00.00 79306 N 0 0 0
0:00:00.00 79675 N 0 0 0
0:00:00.00 79943 N 0 0 0
0:00:00.00 80129 N 0 0 0
0:00:00.00 80435 N 0 0 0
0:00:00.00 80654 N 0 0 0
0:00:00.00 80883 N 0 0 0
0:00:00.00 81196 N 0 0 0
0:00:00.00 81396 N 0 0 0
0:00:00.00 81718 N 0 0 0
0:00:00.00 82048 N 0 0 0
0:00:00.00 82233 N 0 0 0
0:00:00.00 82532 N 0 0 0
0:00:00.00 82766 N 0 0 0
0:00:00.00 82987 N 0 0 0
0:00:00.00 83243 N 0 0 0
0:00:00.00 83426 N 0 0 0
0:00:00.00 83745 N 0 0 0
0:00:00.00 83968 N 0 0 0
0:00:00.00 84265 N 0 0 0
0:00:00.00 84562 N 0 0 0
0:00:00.00 84721 N 0 0 0
0:00:00.00 85054 N 0 0 0
0:00:00.00 85300 N 0 0 0
0:00:00.00 85554 N 0 0 0
0:00:00.00 86035 N 0 0 0
0:00:00.00 86281 N 0 0 0
0:00:00.00 86512 N 0 0 0
0:00:00.00 86697 N 0 0 0
0:00:00.00 86965 N 0 0 0
0:00:00.00 87221 N 0 0 0
0:00:00.00 87572 N 0 0 0
0:00:00.00 87777 N 0 0 0
0:00:00.00 88108 N 0 0 0
0:00:00.00 88339 N 0 0 0
0:00:00.00 88598 N 0 0 0
0:00:00.00 88771 N 0 0 0
0:00:00.00 89170 N 0 0 0
0:00:00.00 89669 N 0 0 0
0:00:00.00 89924 N 0 0 0
0:00:00.00 90342 N 0 0 0
0:00:00.00 90589 N 0 0 0
0:00:00.00 90819 N 0 0 0
0:00:00.00 91069 N 0 0 0
0:00:00.00 91292 N 0 0 0
0:00:00.00 91501 N 0 0 0
0:00:00.00 91726 N 0 0 0
0:00:00.00 91967 N 0 0 0
0:00:00.00 92250 N 0 0 0
0:00:00.00 92513 N 0 0 0
0:00:00.00 92977 N 0 0 0
0:00:00.00 93195 N 0 0 0
0:00:00.00 93416 N 0 0 0
0:00:00.00 93622 N 0 0 0
0:00:00.00 93985 N 0 0 0
0:00:00.00 94237 N 0 0 0
0:00:00.00 94480 N 0 0 0
0:00:00.00 94660 N 0 0 0
0:00:00.00 94975 N 0 0 0
0:00:00.00 95204 N 0 0 0
0:00:00.00 95456 N 0 0 0
0:00:00.00 95722 N 0 0 0
0:00:00.00 95960 N 0 0 0
0:00:00.00 96190 N 0 0 0
0:00:00.00 96716 N 0 0 0
0:00:00.00 96948 N 0 0 0
0:00:00.00 97218 N 0 0 0
0:00:00.00 97506 N 0 0 0
0:00:00.00 97999 N 0 0 0
0:00:00.00 98231 N 0 0 0
0:00:00.00 98447 N 0 0 0
0:00:00.00 98685 N 0 0 0
0:00:00.00 99167 N 0 0 0
0:00:00.00 99373 N 0 0 0
0:00:00.00 99661 N 0 0 0
0:00:00.00 99909 N 0 0 0
0:00:00.00 100130 N 0 0 0
0:00:00.00 100328 N 0 0 0
0:00:00.00 100604 N 0 0 0
0:00:00.00 100890 N 0 0 0
0:00:00.00 101088 N 0 0 0
0:00:00.00 101423 N 0 0 0
0:00:00.00 101668 N 0 0 0
0:00:00.00 101900 N 0 0 0
0:00:00.00 102114 N 0 0 0
0:00:00.00 102593 N 0 0 0
0:00:00.00 102868 N 0 0 0
0:00:00.00 103354 N 0 0 0
0:00:00.00 103613 N 0 0 0
0:00:00.00 103891 N 0 0 0
0:00:00.00 104078 N 0 0 0
0:00:00.00 104371 N 0 0 0
0:00:00.00 104650 N 0 0 0
0:00:00.00 104845 N 0 0 0
0:00:00.00 105183 N 0 0 0
0:00:00.00 105509 N 0 0 0
0:00:00.00 105692 N 0 0 0
0:00:00.00 106101 N 0 0 0
0:00:00.00 106339 N 0 0 0
0:00:00.00 106549 N 0 0 0
0:00:00.00 106772 N 0 0 0
0:00:00.00 106970 N 0 0 0
0:00:00.00 107248 N 0 0 0
0:00:00.00 107491 N 0 0 0
0:00:00.00 107728 N 0 0 0
0:00:00.00 108180 N 0 0 0
0:00:00.00 108486 N 0 0 0
0:00:00.00 108675 N 0 0 0
0:00:00.00 108941 N 0 0 0
0:00:00.00 109575 N 0 0 0
0:00:00.00 109807 N 0 0 0
0:00:00.00 110056 N 0 0 0
0:00:00.00 110230 N 0 0 0
0:00:00.00 110516 N 0 0 0
0:00:00.00 110729 N 0 0 0
0:00:00.00 111085 N 0 0 0
0:00:00.00 111346 N 0 0 0
0:00:00.00 111638 N 0 0 0
0:00:00.00 111838 N 0 0 0
0:00:00.00 112187 N 0 0 0
0:00:00.00 112460 N 0 0 0
0:00:00.00 112640 N 0 0 0
0:00:00.00 112874 N 0 0 0
0:00:00.00 113110 N 0 0 0
0:00:00.00 113378 N 0 0 0
0:00:00.00 113585 N 0 0 0
0:00:00.00 113854 N 0 0 0
0:00:00.00 114093 N 0 0 0
0:00:00.00 114341 N 0 0 0
0:00:00.00 114622 N 0 0 0
0:00:00.00 114988 N 0 0 0
0:00:00.00 115209 N 0 0 0
0:00:00.00 115448 N 0 0 0
0:00:00.00 115708 N 0 0 0
0:00:00.00 115931 N 0 0 0
0:00:00.00 116158 N 0 0 0
0:00:00.00 116365 N 0 0 0
0:00:00.00 116611 N 0 0 0
0:00:00.00 116834 N 0 0 0
0:00:00.00 117144 N 0 0 0
0:00:00.00 117643 N 0 0 0
0:00:00.00 117947 N 0 0 0
0:00:00.00 118134 N 0 0 0
0:00:00.00 118471 N 0 0 0
0:00:00.00 118706 N 0 0 0
0:00:00.00 118935 N 0 0 0
0:00:00.00 119239 N 0 0 0
0:00:00.00 119470 N 0 0 0
0:00:00.00 119702 N 0 0 0
0:00:00.00 119893 N 0 0 0
0:00:00.00 120224 N 0 0 0
0:00:00.00 120474 N 0 0 0
0:00:00.00 120769 N 0 0 0
0:00:00.00 121090 N 0 0 0
0:00:00.00 121268 N 0 0 0
0:00:00.00 121547 N 0 0 0
0:00:00.00 121802 N 0 0 0
0:00:00.00 122047 N 0 0 0
0:00:00.00 122294 N 0 0 0
0:00:00.00 122569 N 0 0 0
0:00:00.00 122967 N 0 0 0
0:00:00.00 123404 N 0 0 0
0:00:00.00 123635 N 0 0 0
0:00:00.00 123881 N 0 0 0
0:00:00.00 124346 N 0 0 0
0:00:00.00 124589 N 0 0 0
0:00:00.00 124902 N 0 0 0
0:00:00.00 125323 N 0 0 0
0:00:00.00 125629 N 0 0 0
0:00:00.00 125914 N 0 0 0
0:00:00.00 126088 N 0 0 0
0:00:00.00 126434 N 0 0 0
0:00:00.00 126661 N 0 0 0
0:00:00.00 126880 N 0 0 0
0:00:00.00 127120 N 0 0 0
0:00:00.00 127319 N 0 0 0
0:00:00.00 127620 N 0 0 0
0:00:00.00 128043 N 0 0 0
0:00:00.00 128322 N 0 0 0
0:00:00.00 128520 N 0 0 0
0:00:00.00 128867 N 0 0 0
0:00:00.00 129087 N 0 0 0
0:00:00.00 129314 N 0 0 0
0:00:00.00 129577 N 0 0 0
0:00:00.00 129811 N 0 0 0
0:00:00.00 130075 N 0 0 0
0:00:00.00 130307 N 0 0 0
0:00:00.00 130547 N 0 0 0
0:00:00.00 130761 N 0 0 0
0:00:00.00 131101 N 0 0 0
0:00:00.00 131369 N 0 0 0
0:00:00.00 131575 N 0 0 0
0:00:00.00 131875 N 0 0 0
0:00:00.00 132201 N 0 0 0
0:00:00.00 132417 N 0 0 0
0:00:00.00 132640 N 0 0 0
0:00:00.00 132889 N 0 0 0
0:00:00.00 133072 N 0 0 0
0:00:00.00 133364 N 0 0 0
0:00:00.00 133801 N 0 0 0
0:00:00.00 134028 N 0 0 0
0:00:00.00 134240 N 0 0 0
0:00:00.00 134429 N 0 0 0
0:00:00.00 134676 N 0 0 0
0:00:00.00 135130 N 0 0 0
0:00:00.00 135409 N 0 0 0
0:00:00.00 135684 N 0 0 0
0:00:00.00 135880 N 0 0 0
0:00:00.00 136188 N 0 0 0
0:00:00.00 136399 N 0 0 0
0:00:00.00 136625 N 0 0 0
0:00:00.00 136782 N 0 0 0
0:00:00.00 137077 N 0 0 0
0:00:00.00 137324 N 0 0 0
0:00:00.00 137572 N 0 0 0
0:00:00.00 137754 N 0 0 0
0:00:00.00 138071 N 0 0 0
0:00:00.00 138352 N 0 0 0
0:00:00.00 138541 N 0 0 0
0:00:00.00 138812 N 0 0 0
0:00:00.00 139037 N 0 0 0
0:00:00.00 139363 N 0 0 0
0:00:00.00 139586 N 0 0 0
0:00:00.00 139817 N 0 0 0
0:00:00.00 140038 N 0 0 0
0:00:00.00 140359 N 0 0 0
0:00:00.00 140594 N 0 0 0
0:00:00.00 140801 N 0 0 0
0:00:00.00 141001 N 0 0 0
0:00:00.00 141280 N 0 0 0
0:00:00.00 141620 N 0 0 0
0:00:00.00 141934 N 0 0 0
0:00:00.00 142141 N 0 0 0
0:00:00.00 142483 N 0 0 0
0:00:00.00 142711 N 0 0 0
0:00:00.00 142940 N 0 0 0
0:00:00.00 143163 N 0 0 0
0:00:00.00 143354 N 0 0 0
0:00:00.00 143620 N 0 0 0
0:00:00.00 143892 N 0 0 0
0:00:00.00 144133 N 0 0 0
0:00:00.00 144355 N 0 0 0
0:00:00.00 144554 N 0 0 0
0:00:00.00 144810 N 0 0 0
0:00:00.00 145078 N 0 0 0
0:00:00.00 145274 N 0 0 0
0:00:00.00 145568 N 0 0 0
0:00:00.00 145850 N 0 0 0
0:00:00.00 146407 N 0 0 0
0:00:00.00 146632 N 0 0 0
0:00:00.00 146869 N 0 0 0
0:00:00.00 147100 N 0 0 0
0:00:00.00 147307 N 0 0 0
0:00:00.00 147584 N 0 0 0
0:00:00.00 148091 N 0 0 0
0:00:00.00 148322 N 0 0 0
0:00:00.00 148554 N 0 0 0
0:00:00.00 148795 N 0 0 0
0:00:00.00 149020 N 0 0 0
0:00:00.00 149258 N 0 0 0
0:00:00.00 149452 N 0 0 0
0:00:00.00 149744 N 0 0 0
0:00:00.00 150003 N 0 0 0
0:00:00.00 150527 N 0 0 0
0:00:00.00 150811 N 0 0 0
0:00:00.00 151106 N 0 0 0
0:00:00.00 151267 N 0 0 0
0:00:00.00 151600 N 0 0 0
0:00:00.00 151843 N 0 0 0
0:00:00.00 152161 N 0 0 0
0:00:00.00 152696 N 0 0 0
0:00:00.00 152955 N 0 0 0
0:00:00.00 153162 N 0 0 0
0:00:00.00 153398 N 0 0 0
0:00:00.00 153650 N 0 0 0
0:00:00.00 153873 N 0 0 0
0:00:00.00 154098 N 0 0 0
0:00:00.00 154294 N 0 0 0
0:00:00.00 154593 N 0 0 0
0:00:00.00 154823 N 0 0 0
0:00:00.00 155111 N 0 0 0
0:00:00.00 155367 N 0 0 0
0:00:00.00 155585 N 0 0 0
0:00:00.00 155833 N 0 0 0
0:00:00.00 156137 N 0 0 0
0:00:00.00 156299 N 0 0 0
0:00:00.00 156672 N 0 0 0
0:00:00.00 156937 N 0 0 0
0:00:00.00 157189 N 0 0 0
0:00:00.00 157406 N 0 0 0
0:00:00.00 157847 N 0 0 0
0:00:00.00 158056 N 0 0 0
0:00:00.00 158287 N 0 0 0
0:00:00.00 158620 N 0 0 0
0:00:00.00 158846 N 0 0 0
0:00:00.00 159102 N 0 0 0
0:00:00.00 159345 N 0 0 0
0:00:00.00 159592 N 0 0 0
0:00:00.00 159820 N 0 0 0
0:00:00.00 160047 N 0 0 0
0:00:00.00 160258 N 0 0 0
0:00:00.00 160475 N 0 0 0
0:00:00.00 160700 N 0 0 0
0:00:00.00 160895 N 0 0 0
0:00:00.00 161282 N 0 0 0
0:00:00.00 161543 N 0 0 0
0:00:00.00 161771 N 0 0 0
0:00:00.00 162209 N 0 0 0
0:00:00.00 162425 N 0 0 0
0:00:00.00 162641 N 0 0 0
0:00:00.00 163125 N 0 0 0
0:00:00.00 163363 N 0 0 0
0:00:00.00 163629 N 0 0 0
0:00:00.00 163924 N 0 0 0
0:00:00.00 164084 N 0 0 0
0:00:00.00 164428 N 0 0 0
0:00:00.00 164673 N 0 0 0
0:00:00.00 164858 N 0 0 0
0:00:00.00 165166 N 0 0 0
0:00:00.00 165451 N 0 0 0
0:00:00.00 165677 N 0 0 0
0:00:00.00 165920 N 0 0 0
0:00:00.00 166102 N 0 0 0
0:00:00.00 166448 N 0 0 0
0:00:00.00 166682 N 0 0 0
0:00:00.00 166930 N 0 0 0
0:00:00.00 167139 N 0 0 0
0:00:00.00 167447 N 0 0 0
0:00:00.00 167701 N 0 0 0
0:00:00.00 167933 N 0 0 0
0:00:00.00 168280 N 0 0 0
0:00:00.00 168518 N 0 0 0
0:00:00.00 168746 N 0 0 0
0:00:00.00 168912 N 0 0 0
0:00:00.00 169220 N 0 0 0
0:00:00.00 169439 N 0 0 0
0:00:00.00 169672 N 0 0 0
0:00:00.00 169866 N 0 0 0
0:00:00.00 170161 N 0 0 0
0:00:00.00 170428 N 0 0 0
0:00:00.00 170663 N 0 0 0
0:00:00.00 170939 N 0 0 0
0:00:00.00 171342 N 0 0 0
0:00:00.00 171677 N 0 0 0
0:00:00.00 171977 N 0 0 0
0:00:00.00 172166 N 0 0 0
0:00:00.00 172544 N 0 0 0
0:00:00.00 172795 N 0 0 0
0:00:00.00 173027 N 0 0 0
0:00:00.00 173263 N 0 0 0
0:00:00.00 173585 N 0 0 0
0:00:00.00 173885 N 0 0 0
0:00:00.00 174087 N 0 0 0
0:00:00.00 174442 N 0 0 0
0:00:00.00 174733 N 0 0 0
0:00:00.00 174917 N 0 0 0
0:00:00.00 175196 N 0 0 0
0:00:00.00 175423 N 0 0 0
0:00:00.00 175714 N 0 0 0
0:00:00.00 175966 N 0 0 0
0:00:00.00 176292 N 0 0 0
0:00:00.00 176539 N 0 0 0
0:00:00.00 176803 N 0 0 0
0:00:00.00 177035 N 0 0 0
0:00:00.00 177327 N 0 0 0
0:00:00.00 177728 N 0 0 0
0:00:00.00 178007 N 0 0 0
0:00:00.00 178229 N 0 0 0
0:00:00.00 178562 N 0 0 0
0:00:00.00 178816 N 0 0 0
0:00:00.00 179055 N 0 0 0
0:00:00.00 179359 N 0 0 0
0:00:00.00 179584 N 0 0 0
0:00:00.00 179829 N 0 0 0
0:00:00.00 180011 N 0 0 0
0:00:00.00 180301 N 0 0 0
0:00:00.00 180565 N 0 0 0
0:00:00.00 180833 N 0 0 0
0:00:00.00 181040 N 0 0 0
0:00:00.00 181355 N 0 0 0
0:00:00.00 181588 N 0 0 0
0:00:00.00 181847 N 0 0 0
0:00:00.00 182155 N 0 0 0
0:00:00.00 182320 N 0 0 0
0:00:00.00 182660 N 0 0 0
0:00:00.00 182957 N 0 0 0
0:00:00.00 183141 N 0 0 0
0:00:00.00 183497 N 0 0 0
0:00:00.00 183926 N 0 0 0
0:00:00.00 184167 N 0 0 0
0:00:00.00 184381 N 0 0 0
0:00:00.00 184639 N 0 0 0
0:00:00.00 184891 N 0 0 0
0:00:00.00 185137 N 0 0 0
0:00:00.00 185393 N 0 0 0
0:00:00.00 185576 N 0 0 0
0:00:00.00 185978 N 0 0 0
0:00:00.00 186239 N 0 0 0
0:00:00.00 186494 N 0 0 0
0:00:00.00 186687 N 0 0 0
0:00:00.00 186970 N 0 0 0
0:00:00.00 187272 N 0 0 0
0:00:00.00 187457 N 0 0 0
0:00:00.00 187828 N 0 0 0
0:00:00.00 188055 N 0 0 0
0:00:00.00 188257 N 0 0 0
0:00:00.00 188471 N 0 0 0
0:00:00.00 188669 N 0 0 0
0:00:00.00 188937 N 0 0 0
0:00:00.00 189176 N 0 0 0
0:00:00.00 189419 N 0 0 0
0:00:00.00 189603 N 0 0 0
0:00:00.00 189877 N 0 0 0
0:00:00.00 190118 N 0 0 0
0:00:00.00 190370 N 0 0 0
0:00:00.00 190552 N 0 0 0
0:00:00.00 190789 N 0 0 0
0:00:00.00 191075 N 0 0 0
0:00:00.00 191286 N 0 0 0
0:00:00.00 191623 N 0 0 0
0:00:00.00 191869 N 0 0 0
0:00:00.00 192143 N 0 0 0
0:00:00.00 192330 N 0 0 0
0:00:00.00 192598 N 0 0 0
0:00:00.00 192845 N 0 0 0
0:00:00.00 193178 N 0 0 0
0:00:00.00 193432 N 0 0 0
0:00:00.00 193700 N 0 0 0
0:00:00.00 193912 N 0 0 0
0:00:00.00 194134 N 0 0 0
0:00:00.00 194382 N 0 0 0
0:00:00.00 194686 N 0 0 0
0:00:00.00 194944 N 0 0 0
0:00:00.00 195169 N 0 0 0
0:00:00.00 195394 N 0 0 0
0:00:00.00 195595 N 0 0 0
0:00:00.00 195872 N 0 0 0
0:00:00.00 196106 N 0 0 0
0:00:00.00 196349 N 0 0 0
0:00:00.00 196547 N 0 0 0
0:00:00.00 196862 N 0 0 0
0:00:00.00 197129 N 0 0 0
0:00:00.00 197321 N 0 0 0
0:00:00.00 197575 N 0 0 0
0:00:00.00 197874 N 0 0 0
0:00:00.00 198085 N 0 0 0
0:00:00.00 198374 N 0 0 0
0:00:00.00 198610 N 0 0 0
0:00:00.00 198808 N 0 0 0
0:00:00.00 199012 N 0 0 0
0:00:00.00 199256 N 0 0 0
0:00:00.00 199447 N 0 0 0
0:00:00.00 199679 N 0 0 0
0:00:00.00 199885 N 0 0 0
0:00:00.00 200234 N 0 0 0
0:00:00.00 200484 N 0 0 0
0:00:00.00 200698 N 0 0 0
0:00:00.00 200894 N 0 0 0
0:00:00.00 201173 N 0 0 0
0:00:00.00 201447 N 0 0 0
0:00:00.00 201976 N 0 0 0
0:00:00.00 202257 N 0 0 0
0:00:00.00 202504 N 0 0 0
0:00:00.00 202781 N 0 0 0
0:00:00.00 202979 N 0 0 0
0:00:00.00 203227 N 0 0 0
0:00:00.00 203441 N 0 0 0
0:00:00.00 203648 N 0 0 0
0:00:00.00 204093 N 0 0 0
0:00:00.00 204431 N 0 0 0
0:00:00.00 204712 N 0 0 0
0:00:00.00 204941 N 0 0 0
0:00:00.00 205157 N 0 0 0
0:00:00.00 205351 N 0 0 0
0:00:00.00 205612 N 0 0 0
0:00:00.00 205880 N 0 0 0
0:00:00.00 206071 N 0 0 0
0:00:00.00 206359 N 0 0 0
0:00:00.00 206653 N 0 0 0
0:00:00.00 206901 N 0 0 0
0:00:00.00 207367 N 0 0 0
0:00:00.00 207590 N 0 0 0
0:00:00.00 207812 N 0 0 0
0:00:00.00 208006 N 0 0 0
0:00:00.00 208379 N 0 0 0
0:00:00.00 208602 N 0 0 0
0:00:00.00 208877 N 0 0 0
0:00:00.00 209059 N 0 0 0
0:00:00.00 209342 N 0 0 0
0:00:00.00 209599 N 0 0 0
0:00:00.00 210022 N 0 0 0
0:00:00.00 210276 N 0 0 0
0:00:00.00 210506 N 0 0 0
0:00:00.00 210776 N 0 0 0
0:00:00.00 211061 N 0 0 0
0:00:00.00 211370 N 0 0 0
0:00:00.00 211559 N 0 0 0
0:00:00.00 211851 N 0 0 0
0:00:00.00 212096 N 0 0 0
0:00:00.00 212339 N 0 0 0
0:00:00.00 212546 N 0 0 0
0:00:00.00 212769 N 0 0 0
0:00:00.00 212999 N 0 0 0
0:00:00.00 213255 N 0 0 0
0:00:00.00 213457 N 0 0 0
0:00:00.00 213817 N 0 0 0
0:00:00.00 214081 N 0 0 0
0:00:00.00 214272 N 0 0 0
0:00:00.00 214598 N 0 0 0
0:00:00.00 214826 N 0 0 0
0:00:00.00 215163 N 0 0 0
0:00:00.00 215408 N 0 0 0
0:00:00.00 215653 N 0 0 0
0:00:00.00 215881 N 0 0 0
0:00:00.00 216074 N 0 0 0
0:00:00.00 216319 N 0 0 0
0:00:00.00 216722 N 0 0 0
0:00:00.00 216994 N 0 0 0
0:00:00.00 217193 N 0 0 0
0:00:00.00 217530 N 0 0 0
0:00:00.00 217798 N 0 0 0
0:00:00.00 218050 N 0 0 0
0:00:00.00 218248 N 0 0 0
0:00:00.00 218497 N 0 0 0
0:00:00.00 218722 N 0 0 0
0:00:00.00 218957 N 0 0 0
0:00:00.00 219208 N 0 0 0
0:00:00.00 219427 N 0 0 0
0:00:00.00 219710 N 0 0 0
0:00:00.00 219895 N 0 0 0
0:00:00.00 220228 N 0 0 0
0:00:00.00 220585 N 0 0 0
0:00:00.00 220831 N 0 0 0
0:00:00.00 221089 N 0 0 0
0:00:00.00 221296 N 0 0 0
0:00:00.00 221629 N 0 0 0
0:00:00.00 221884 N 0 0 0
0:00:00.00 222131 N 0 0 0
0:00:00.00 222352 N 0 0 0
0:00:00.00 222550 N 0 0 0
0:00:00.00 222817 N 0 0 0
0:00:00.00 223034 N 0 0 0
0:00:00.00 223258 N 0 0 0
0:00:00.00 223461 N 0 0 0
0:00:00.00 223708 N 0 0 0
0:00:00.00 224051 N 0 0 0
0:00:00.00 224325 N 0 0 0
0:00:00.00 224564 N 0 0 0
0:00:00.00 224791 N 0 0 0
0:00:00.00 224973 N 0 0 0
0:00:00.00 225241 N 0 0 0
0:00:00.00 225538 N 0 0 0
0:00:00.00 225817 N 0 0 0
0:00:00.00 226051 N 0 0 0
0:00:00.00 226336 N 0 0 0
0:00:00.00 226568 N 0 0 0
0:00:00.00 226867 N 0 0 0
0:00:00.00 227315 N 0 0 0
0:00:00.00 227689 N 0 0 0
0:00:00.00 227956 N 0 0 0
0:00:00.00 228206 N 0 0 0
0:00:00.00 228447 N 0 0 0
0:00:00.00 228728 N 0 0 0
0:00:00.00 228931 N 0 0 0
0:00:00.00 229149 N 0 0 0
0:00:00.00 229405 N 0 0 0
0:00:00.00 229608 N 0 0 0
0:00:00.00 229909 N 0 0 0
0:00:00.00 230177 N 0 0 0
0:00:00.00 230402 N 0 0 0
0:00:00.00 230701 N 0 0 0
0:00:00.00 230926 N 0 0 0
0:00:00.00 231433 N 0 0 0
0:00:00.00 231647 N 0 0 0
0:00:00.00 232119 N 0 0 0
0:00:00.00 232382 N 0 0 0
0:00:00.00 232738 N 0 0 0
0:00:00.00 232974 N 0 0 0
0:00:00.00 233213 N 0 0 0
0:00:00.00 233401 N 0 0 0
0:00:00.00 233669 N 0 0 0
0:00:00.00 233894 N 0 0 0
0:00:00.00 234135 N 0 0 0
0:00:00.00 234337 N 0 0 0
0:00:00.00 234689 N 0 0 0
0:00:00.00 234925 N 0 0 0
0:00:00.00 235184 N 0 0 0
0:00:00.00 235570 N 0 0 0
0:00:00.00 235822 N 0 0 0
0:00:00.00 236083 N 0 0 0
0:00:00.00 236255 N 0 0 0
0:00:00.00 236578 N 0 0 0
0:00:00.00 236857 N 0 0 0
0:00:00.00 237053 N 0 0 0
0:00:00.00 237343 N 0 0 0
0:00:00.00 237690 N 0 0 0
0:00:00.00 237949 N 0 0 0
0:00:00.00 238223 N 0 0 0
0:00:00.00 238406 N 0 0 0
0:00:00.00 238714 N 0 0 0
0:00:00.00 238941 N 0 0 0
0:00:00.00 239207 N 0 0 0
0:00:00.00 239402 N 0 0 0
0:00:00.00 239692 N 0 0 0
0:00:00.00 239917 N 0 0 0
0:00:00.00 240152 N 0 0 0
0:00:00.00 240377 N 0 0 0
0:00:00.00 240581 N 0 0 0
0:00:00.00 240822 N 0 0 0
0:00:00.00 241348 N 0 0 0
0:00:00.00 241628 N 0 0 0
0:00:00.00 241832 N 0 0 0
0:00:00.00 242091 N 0 0 0
0:00:00.00 242312 N 0 0 0
0:00:00.00 242521 N 0 0 0
0:00:00.00 242728 N 0 0 0
0:00:00.00 243227 N 0 0 0
0:00:00.00 243497 N 0 0 0
0:00:00.00 243994 N 0 0 0
0:00:00.00 244237 N 0 0 0
0:00:00.00 244460 N 0 0 0
0:00:00.00 244688 N 0 0 0
0:00:00.00 244904 N 0 0 0
0:00:00.00 245174 N 0 0 0
0:00:00.00 245624 N 0 0 0
0:00:00.00 245864 N 0 0 0
0:00:00.00 246105 N 0 0 0
0:00:00.00 246299 N 0 0 0
0:00:00.00 246587 N 0 0 0
0:00:00.00 246793 N 0 0 0
0:00:00.00 247052 N 0 0 0
0:00:00.00 247338 N 0 0 0
0:00:00.00 247628 N 0 0 0
0:00:00.00 247831 N 0 0 0
0:00:00.00 248117 N 0 0 0
0:00:00.00 248389 N 0 0 0
0:00:00.00 248576 N 0 0 0
0:00:00.00 248870 N 0 0 0
0:00:00.00 249147 N 0 0 0
0:00:00.00 249334 N 0 0 0
0:00:00.00 249608 N 0 0 0
0:00:00.00 249858 N 0 0 0
0:00:00.00 250195 N 0 0 0
0:00:00.00 250477 N 0 0 0
0:00:00.00 250655 N 0 0 0
0:00:00.00 250915 N 0 0 0
0:00:00.00 251150 N 0 0 0
0:00:00.00 251374 N 0 0 0
0:00:00.00 251582 N 0 0 0
0:00:00.00 251789 N 0 0 0
0:00:00.00 252130 N 0 0 0
0:00:00.00 252351 N 0 0 0
0:00:00.00 252619 N 0 0 0
0:00:00.00 252815 N 0 0 0
0:00:00.00 253013 N 0 0 0
0:00:00.00 253226 N 0 0 0
0:00:00.00 253417 N 0 0 0
0:00:00.00 253717 N 0 0 0
0:00:00.00 254005 N 0 0 0
0:00:00.00 254205 N 0 0 0
0:00:00.00 254482 N 0 0 0
0:00:00.00 254754 N 0 0 0
0:00:00.00 254929 N 0 0 0
0:00:00.00 255197 N 0 0 0
0:00:00.00 255596 N 0 0 0
0:00:00.00 255852 N 0 0 0
0:00:00.00 256117 N 0 0 0
0:00:00.00 256320 N 0 0 0
0:00:00.00 256615 N 0 0 0
0:00:00.00 256892 N 0 0 0
0:00:00.00 257094 N 0 0 0
0:00:00.00 257346 N 0 0 0
0:00:00.00 257560 N 0 0 0
0:00:00.00 257791 N 0 0 0
0:00:00.00 258012 N 0 0 0
0:00:00.00 258255 N 0 0 0
0:00:00.00 258503 N 0 0 0
0:00:00.00 258746 N 0 0 0
0:00:00.00 258948 N 0 0 0
0:00:00.00 259186 N 0 0 0
0:00:00.00 259405 N 0 0 0
0:00:00.00 259655 N 0 0 0
0:00:00.00 259882 N 0 0 0
0:00:00.00 260118 N 0 0 0
0:00:00.00 260323 N 0 0 0
0:00:00.00 260611 N 0 0 0
0:00:00.00 260834 N 0 0 0
0:00:00.00 261079 N 0 0 0
0:00:00.00 261247 N 0 0 0
0:00:00.00 261526 N 0 0 0
0:00:00.00 261778 N 0 0 0
0:00:00.00 261967 N 0 0 0
0:00:00.00 262267 N 0 0 0
0:00:00.00 262561 N 0 0 0
0:00:00.00 262764 N 0 0 0
0:00:00.00 263070 N 0 0 0
0:00:00.00 263304 N 0 0 0
0:00:00.00 263554 N 0 0 0
0:00:00.00 263756 N 0 0 0
0:00:00.00 264130 N 0 0 0
0:00:00.00 264368 N 0 0 0
0:00:00.00 264616 N 0 0 0
0:00:00.00 264827 N 0 0 0
0:00:00.00 265093 N 0 0 0
0:00:00.00 265354 N 0 0 0
0:00:00.00 265577 N 0 0 0
0:00:00.00 265808 N 0 0 0
0:00:00.00 265970 N 0 0 0
0:00:00.00 266270 N 0 0 0
0:00:00.00 266501 N 0 0 0
0:00:00.00 266758 N 0 0 0
0:00:00.00 266985 N 0 0 0
0:00:00.00 267210 N 0 0 0
0:00:00.00 267469 N 0 0 0
0:00:00.00 267712 N 0 0 0
0:00:00.00 267908 N 0 0 0
0:00:00.00 268144 N 0 0 0
0:00:00.00 268369 N 0 0 0
0:00:00.00 268708 N 0 0 0
0:00:00.00 268985 N 0 0 0
0:00:00.00 269217 N 0 0 0
0:00:00.00 269420 N 0 0 0
0:00:00.00 269692 N 0 0 0
0:00:00.00 269941 N 0 0 0
0:00:00.00 270166 N 0 0 0
0:00:00.00 270333 N 0 0 0
0:00:00.00 270616 N 0 0 0
0:00:00.00 270823 N 0 0 0
0:00:00.00 271069 N 0 0 0
0:00:00.00 271238 N 0 0 0
0:00:00.00 271595 N 0 0 0
0:00:00.00 272011 N 0 0 0
0:00:00.00 272421 N 0 0 0
0:00:00.00 272659 N 0 0 0
0:00:00.00 272894 N 0 0 0
0:00:00.00 273069 N 0 0 0
0:00:00.00 273339 N 0 0 0
0:00:00.00 273802 N 0 0 0
0:00:00.00 274007 N 0 0 0
0:00:00.00 274345 N 0 0 0
0:00:00.00 274828 N 0 0 0
0:00:00.00 275189 N 0 0 0
0:00:00.00 275564 N 0 0 0
0:00:00.00 275816 N 0 0 0
0:00:00.00 276059 N 0 0 0
0:00:00.00 276305 N 0 0 0
0:00:00.00 276489 N 0 0 0
0:00:00.00 276759 N 0 0 0
0:00:00.00 276989 N 0 0 0
0:00:00.00 277231 N 0 0 0
0:00:00.00 277466 N 0 0 0
0:00:00.00 277700 N 0 0 0
0:00:00.00 277898 N 0 0 0
0:00:00.00 278170 N 0 0 0
0:00:00.00 278485 N 0 0 0
0:00:00.00 278748 N 0 0 0
0:00:00.00 278980 N 0 0 0
0:00:00.00 279216 N 0 0 0
0:00:00.00 279576 N 0 0 0
0:00:00.00 280053 N 0 0 0
0:00:00.00 280546 N 0 0 0
0:00:00.00 280813 N 0 0 0
0:00:00.00 280994 N 0 0 0
0:00:00.00 281286 N 0 0 0
0:00:00.00 281536 N 0 0 0
0:00:00.00 281770 N 0 0 0
0:00:00.00 282127 N 0 0 0
0:00:00.00 282400 N 0 0 0
0:00:00.00 282607 N 0 0 0
0:00:00.00 282798 N 0 0 0
0:00:00.00 282935 N 0 0 0
0:00:00.00 283284 N 0 0 0
0:00:00.00 283540 N 0 0 0
0:00:00.00 283763 N 0 0 0
0:00:00.00 284000 N 0 0 0
0:00:00.00 284191 N 0 0 0
0:00:00.00 284557 N 0 0 0
0:00:00.00 284800 N 0 0 0
0:00:00.00 285210 N 0 0 0
0:00:00.00 285428 N 0 0 0
0:00:00.00 285802 N 0 0 0
0:00:00.00 286047 N 0 0 0
0:00:00.00 286281 N 0 0 0
0:00:00.00 286562 N 0 0 0
0:00:00.00 286864 N 0 0 0
0:00:00.00 287060 N 0 0 0
0:00:00.00 287460 N 0 0 0
0:00:00.00 287768 N 0 0 0
0:00:00.00 287996 N 0 0 0
0:00:00.00 288236 N 0 0 0
0:00:00.00 288497 N 0 0 0
0:00:00.00 288688 N 0 0 0
0:00:00.00 289163 N 0 0 0
0:00:00.00 289413 N 0 0 0
0:00:00.00 289606 N 0 0 0
0:00:00.00 289874 N 0 0 0
0:00:00.00 290115 N 0 0 0
0:00:00.00 290518 N 0 0 0
0:00:00.00 290781 N 0 0 0
0:00:00.00 291029 N 0 0 0
0:00:00.00 291278 N 0 0 0
0:00:00.00 291467 N 0 0 0
0:00:00.00 291737 N 0 0 0
0:00:00.00 292217 N 0 0 0
0:00:00.00 292624 N 0 0 0
0:00:00.00 292876 N 0 0 0
0:00:00.00 293173 N 0 0 0
0:00:00.00 293465 N 0 0 0
0:00:00.00 293647 N 0 0 0
0:00:00.00 294138 N 0 0 0
0:00:00.00 294376 N 0 0 0
0:00:00.00 294592 N 0 0 0
0:00:00.00 294831 N 0 0 0
0:00:00.00 295025 N 0 0 0
0:00:00.00 295294 N 0 0 0
0:00:00.00 295540 N 0 0 0
0:00:00.00 295769 N 0 0 0
0:00:00.00 296113 N 0 0 0
0:00:00.00 296368 N 0 0 0
0:00:00.00 296559 N 0 0 0
0:00:00.00 296874 N 0 0 0
0:00:00.00 297272 N 0 0 0
0:00:00.00 297610 N 0 0 0
0:00:00.00 297936 N 0 0 0
0:00:00.00 298397 N 0 0 0
0:00:00.00 298753 N 0 0 0
0:00:00.00 298975 N 0 0 0
0:00:00.00 299290 N 0 0 0
0:00:00.00 299781 N 0 0 0
0:00:00.00 300019 N 0 0 0
0:00:00.00 300245 N 0 0 0
0:00:00.00 300438 N 0 0 0
0:00:00.00 300701 N 0 0 0
0:00:00.00 300973 N 0 0 0
0:00:00.00 301160 N 0 0 0
0:00:00.00 301527 N 0 0 0
0:00:00.00 301772 N 0 0 0
0:00:00.00 302026 N 0 0 0
0:00:00.00 302227 N 0 0 0
0:00:00.00 302485 N 0 0 0
0:00:00.00 302702 N 0 0 0
0:00:00.00 302933 N 0 0 0
0:00:00.00 303122 N 0 0 0
0:00:00.00 303458 N 0 0 0
0:00:00.00 303737 N 0 0 0
0:00:00.00 304114 N 0 0 0
0:00:00.00 304468 N 0 0 0
0:00:00.00 304722 N 0 0 0
0:00:00.00 304949 N 0 0 0
0:00:00.00 305194 N 0 0 0
0:00:00.00 305501 N 0 0 0
0:00:00.00 305694 N 0 0 0
0:00:00.00 305993 N 0 0 0
0:00:00.00 306356 N 0 0 0
0:00:00.00 306596 N 0 0 0
0:00:00.00 306815 N 0 0 0
0:00:00.00 307030 N 0 0 0
0:00:00.00 307215 N 0 0 0
0:00:00.00 307478 N 0 0 0
0:00:00.00 307703 N 0 0 0
0:00:00.00 307973 N 0 0 0
0:00:00.00 308417 N 0 0 0
0:00:00.00 308713 N 0 0 0
0:00:00.00 308885 N 0 0 0
0:00:00.00 309224 N 0 0 0
0:00:00.00 309470 N 0 0 0
0:00:00.00 309692 N 0 0 0
0:00:00.00 309987 N 0 0 0
0:00:00.00 310217 N 0 0 0
0:00:00.00 310484 N 0 0 0
0:00:00.00 310896 N 0 0 0
0:00:00.00 311144 N 0 0 0
0:00:00.00 311422 N 0 0 0
0:00:00.00 311587 N 0 0 0
0:00:00.00 311846 N 0 0 0
0:00:00.00 312073 N 0 0 0
0:00:00.00 312347 N 0 0 0
0:00:00.00 312545 N 0 0 0
0:00:00.00 312856 N 0 0 0
0:00:00.00 313088 N 0 0 0
0:00:00.00 313294 N 0 0 0
0:00:00.00 313740 N 0 0 0
0:00:00.00 313952 N 0 0 0
0:00:00.00 314185 N 0 0 0
0:00:00.00 314397 N 0 0 0
0:00:00.00 314667 N 0 0 0
0:00:00.00 314924 N 0 0 0
0:00:00.00 315216 N 0 0 0
0:00:00.00 315441 N 0 0 0
0:00:00.00 315765 N 0 0 0
0:00:00.00 316017 N 0 0 0
0:00:00.00 316251 N 0 0 0
0:00:00.00 316445 N 0 0 0
0:00:00.00 316719 N 0 0 0
0:00:00.00 316971 N 0 0 0
0:00:00.00 317275 N 0 0 0
0:00:00.00 317768 N 0 0 0
0:00:00.00 317979 N 0 0 0
0:00:00.00 318172 N 0 0 0
0:00:00.00 318456 N 0 0 0
0:00:00.00 318694 N 0 0 0
0:00:00.00 318938 N 0 0 0
0:00:00.00 319149 N 0 0 0
0:00:00.00 319435 N 0 0 0
0:00:00.00 319675 N 0 0 0
0:00:00.00 319910 N 0 0 0
0:00:00.00 320148 N 0 0 0
0:00:00.00 320413 N 0 0 0
0:00:00.00 320663 N 0 0 0
0:00:00.00 320949 N 0 0 0
0:00:00.00 321214 N 0 0 0
0:00:00.00 321464 N 0 0 0
0:00:00.00 321656 N 0 0 0
0:00:00.00 321988 N 0 0 0
0:00:00.00 322213 N 0 0 0
0:00:00.00 322472 N 0 0 0
0:00:00.00 322711 N 0 0 0
0:00:00.00 322934 N 0 0 0
0:00:00.00 323163 N 0 0 0
0:00:00.00 323370 N 0 0 0
0:00:00.00 323699 N 0 0 0
0:00:00.00 323978 N 0 0 0
0:00:00.00 324151 N 0 0 0
0:00:00.00 324488 N 0 0 0
0:00:00.00 324742 N 0 0 0
0:00:00.00 325058 N 0 0 0
0:00:00.00 325283 N 0 0 0
0:00:00.00 325510 N 0 0 0
0:00:00.00 325798 N 0 0 0
0:00:00.00 325996 N 0 0 0
0:00:00.00 326255 N 0 0 0
0:00:00.00 326565 N 0 0 0
0:00:00.00 326722 N 0 0 0
0:00:00.00 327139 N 0 0 0
0:00:00.00 327422 N 0 0 0
0:00:00.00 327654 N 0 0 0
0:00:00.00 327877 N 0 0 0
0:00:00.00 328073 N 0 0 0
0:00:00.00 328549 N 0 0 0
0:00:00.00 329036 N 0 0 0
0:00:00.00 329375 N 0 0 0
0:00:00.00 329701 N 0 0 0
0:00:00.00 329960 N 0 0 0
0:00:00.00 330203 N 0 0 0
0:00:00.00 330428 N 0 0 0
0:00:00.00 330649 N 0 0 0
0:00:00.00 330829 N 0 0 0
0:00:00.00 331105 N 0 0 0
0:00:00.00 331371 N 0 0 0
0:00:00.00 331564 N 0 0 0
0:00:00.00 332039 N 0 0 0
0:00:00.00 332298 N 0 0 0
0:00:00.00 332528 N 0 0 0
0:00:00.00 332735 N 0 0 0
0:00:00.00 333077 N 0 0 0
0:00:00.00 333288 N 0 0 0
0:00:00.00 333556 N 0 0 0
0:00:00.00 333810 N 0 0 0
0:00:00.00 334051 N 0 0 0
0:00:00.00 334301 N 0 0 0
0:00:00.00 334499 N 0 0 0
0:00:00.00 334879 N 0 0 0
0:00:00.00 335092 N 0 0 0
0:00:00.00 335320 N 0 0 0
0:00:00.00 335579 N 0 0 0
0:00:00.00 335812 N 0 0 0
0:00:00.00 336105 N 0 0 0
0:00:00.00 336382 N 0 0 0
0:00:00.00 336620 N 0 0 0
0:00:00.00 336857 N 0 0 0
0:00:00.00 337108 N 0 0 0
0:00:00.00 337469 N 0 0 0
0:00:00.00 337761 N 0 0 0
0:00:00.00 337937 N 0 0 0
0:00:00.00 338263 N 0 0 0
0:00:00.00 338504 N 0 0 0
0:00:00.00 338751 N 0 0 0
0:00:00.00 338983 N 0 0 0
0:00:00.00 339169 N 0 0 0
0:00:00.00 339455 N 0 0 0
0:00:00.00 339667 N 0 0 0
0:00:00.00 339907 N 0 0 0
0:00:00.00 340139 N 0 0 0
0:00:00.00 340384 N 0 0 0
0:00:00.00 340654 N 0 0 0
0:00:00.00 340893 N 0 0 0
0:00:00.00 341167 N 0 0 0
0:00:00.00 341343 N 0 0 0
0:00:00.00 341683 N 0 0 0
0:00:00.00 341923 N 0 0 0
0:00:00.00 342306 N 0 0 0
0:00:00.00 342544 N 0 0 0
0:00:00.00 342801 N 0 0 0
0:00:00.00 342999 N 0 0 0
0:00:00.00 343307 N 0 0 0
0:00:00.00 343537 N 0 0 0
0:00:00.00 343831 N 0 0 0
0:00:00.00 344084 N 0 0 0
0:00:00.00 344255 N 0 0 0
0:00:00.00 344522 N 0 0 0
0:00:00.00 344745 N 0 0 0
0:00:00.00 344966 N 0 0 0
0:00:00.00 345447 N 0 0 0
0:00:00.00 345694 N 0 0 0
0:00:00.00 345933 N 0 0 0
0:00:00.00 346154 N 0 0 0
0:00:00.00 346394 N 0 0 0
0:00:00.00 346615 N 0 0 0
0:00:00.00 346831 N 0 0 0
0:00:00.00 347080 N 0 0 0
0:00:00.00 347470 N 0 0 0
0:00:00.00 347672 N 0 0 0
0:00:00.00 347933 N 0 0 0
0:00:00.00 348575 N 0 0 0
0:00:00.00 348871 N 0 0 0
0:00:00.00 349067 N 0 0 0
0:00:00.00 349351 N 0 0 0
0:00:00.00 349621 N 0 0 0
0:00:00.00 349810 N 0 0 0
0:00:00.00 350105 N 0 0 0
0:00:00.00 350379 N 0 0 0
0:00:00.00 350554 N 0 0 0
0:00:00.00 350863 N 0 0 0
0:00:00.00 351115 N 0 0 0
0:00:00.00 351326 N 0 0 0
0:00:00.00 351625 N 0 0 0
0:00:00.00 351868 N 0 0 0
0:00:00.00 352174 N 0 0 0
0:00:00.00 352388 N 0 0 0
0:00:00.00 352597 N 0 0 0
0:00:00.00 352796 N 0 0 0
0:00:00.00 353007 N 0 0 0
0:00:00.00 353255 N 0 0 0
0:00:00.00 353531 N 0 0 0
0:00:00.00 353812 N 0 0 0
0:00:00.00 354006 N 0 0 0
0:00:00.00 354308 N 0 0 0
0:00:00.00 354533 N 0 0 0
0:00:00.00 354757 N 0 0 0
0:00:00.00 354933 N 0 0 0
0:00:00.00 355268 N 0 0 0
0:00:00.00 355498 N 0 0 0
0:00:00.00 355759 N 0 0 0
0:00:00.00 355986 N 0 0 0
0:00:00.00 356213 N 0 0 0
0:00:00.00 356665 N 0 0 0
0:00:00.00 356897 N 0 0 0
0:00:00.00 357120 N 0 0 0
0:00:00.00 357311 N 0 0 0
0:00:00.00 357619 N 0 0 0
0:00:00.00 358018 N 0 0 0
0:00:00.00 358355 N 0 0 0
0:00:00.00 358596 N 0 0 0
0:00:00.00 358808 N 0 0 0
0:00:00.00 359044 N 0 0 0
0:00:00.00 359228 N 0 0 0
0:00:00.00 359471 N 0 0 0
0:00:00.00 359753 N 0 0 0
0:00:00.00 359946 N 0 0 0
0:00:00.00 360293 N 0 0 0
0:00:00.00 360533 N 0 0 0
0:00:00.00 360778 N 0 0 0
0:00:00.00 360963 N 0 0 0
0:00:00.00 361273 N 0 0 0
0:00:00.00 361514 N 0 0 0
0:00:00.00 361912 N 0 0 0
0:00:00.00 362189 N 0 0 0
0:00:00.00 362378 N 0 0 0
0:00:00.00 362675 N 0 0 0
0:00:00.00 362997 N 0 0 0
0:00:00.00 363217 N 0 0 0
0:00:00.00 363474 N 0 0 0
0:00:00.00 363667 N 0 0 0
0:00:00.00 363935 N 0 0 0
0:00:00.00 364180 N 0 0 0
0:00:00.00 364408 N 0 0 0
0:00:00.00 364669 N 0 0 0
0:00:00.00 364864 N 0 0 0
0:00:00.00 365153 N 0 0 0
0:00:00.00 365393 N 0 0 0
0:00:00.00 365580 N 0 0 0
0:00:00.00 365881 N 0 0 0
0:00:00.00 366185 N 0 0 0
0:00:00.00 366372 N 0 0 0
0:00:00.00 366696 N 0 0 0
0:00:00.00 366932 N 0 0 0
0:00:00.00 367229 N 0 0 0
0:00:00.00 367385 N 0 0 0
0:00:00.00 367682 N 0 0 0
0:00:00.00 367918 N 0 0 0
0:00:00.00 368100 N 0 0 0
0:00:00.00 368383 N 0 0 0
0:00:00.00 368579 N 0 0 0
0:00:00.00 369011 N 0 0 0
0:00:00.00 369265 N 0 0 0
0:00:00.00 369545 N 0 0 0
0:00:00.00 369704 N 0 0 0
0:00:00.00 369999 N 0 0 0
0:00:00.00 370233 N 0 0 0
0:00:00.00 370469 N 0 0 0
0:00:00.00 370678 N 0 0 0
0:00:00.00 371011 N 0 0 0
0:00:00.00 371306 N 0 0 0
0:00:00.00 371480 N 0 0 0
0:00:00.00 371842 N 0 0 0
0:00:00.00 372064 N 0 0 0
0:00:00.00 372285 N 0 0 0
0:00:00.00 372530 N 0 0 0
0:00:00.00 372721 N 0 0 0
0:00:00.00 373045 N 0 0 0
0:00:00.00 373369 N 0 0 0
0:00:00.00 373561 N 0 0 0
0:00:00.00 373909 N 0 0 0
0:00:00.00 374166 N 0 0 0
0:00:00.00 374468 N 0 0 0
0:00:00.00 374738 N 0 0 0
0:00:00.00 374999 N 0 0 0
0:00:00.00 375201 N 0 0 0
0:00:00.00 375530 N 0 0 0
0:00:00.00 375869 N 0 0 0
0:00:00.00 376105 N 0 0 0
0:00:00.00 376412 N 0 0 0
0:00:00.00 376589 N 0 0 0
0:00:00.00 376866 N 0 0 0
0:00:00.00 377105 N 0 0 0
0:00:00.00 377339 N 0 0 0
0:00:00.00 377572 N 0 0 0
0:00:00.00 377773 N 0 0 0
0:00:00.00 378047 N 0 0 0
0:00:00.00 378432 N 0 0 0
0:00:00.00 378655 N 0 0 0
0:00:00.00 378896 N 0 0 0
0:00:00.00 379364 N 0 0 0
0:00:00.00 379606 N 0 0 0
0:00:00.00 379852 N 0 0 0
0:00:00.00 380324 N 0 0 0
0:00:00.00 380551 N 0 0 0
0:00:00.00 380777 N 0 0 0
0:00:00.00 380970 N 0 0 0
0:00:00.00 381305 N 0 0 0
0:00:00.00 381548 N 0 0 0
0:00:00.00 381794 N 0 0 0
0:00:00.00 381964 N 0 0 0
0:00:00.00 382235 N 0 0 0
0:00:00.00 382653 N 0 0 0
0:00:00.00 382883 N 0 0 0
0:00:00.00 383110 N 0 0 0
0:00:00.00 383344 N 0 0 0
0:00:00.00 383548 N 0 0 0
0:00:00.00 383827 N 0 0 0
0:00:00.00 384223 N 0 0 0
0:00:00.00 384491 N 0 0 0
0:00:00.00 384727 N 0 0 0
0:00:00.00 384962 N 0 0 0
0:00:00.00 385209 N 0 0 0
0:00:00.00 385396 N 0 0 0
0:00:00.00 385711 N 0 0 0
0:00:00.00 385976 N 0 0 0
0:00:00.00 386269 N 0 0 0
0:00:00.00 386464 N 0 0 0
0:00:00.00 386780 N 0 0 0
0:00:00.00 387020 N 0 0 0
0:00:00.00 387211 N 0 0 0
0:00:00.00 387515 N 0 0 0
0:00:00.00 387916 N 0 0 0
0:00:00.00 388244 N 0 0 0
0:00:00.00 388503 N 0 0 0
0:00:00.00 388732 N 0 0 0
0:00:00.00 388975 N 0 0 0
0:00:00.00 389174 N 0 0 0
0:00:00.00 389484 N 0 0 0
0:00:00.00 389707 N 0 0 0
0:00:00.00 389961 N 0 0 0
0:00:00.00 390130 N 0 0 0
0:00:00.00 390508 N 0 0 0
0:00:00.00 390766 N 0 0 0
0:00:00.00 391007 N 0 0 0
0:00:00.00 391513 N 0 0 0
0:00:00.00 391747 N 0 0 0
0:00:00.00 391991 N 0 0 0
0:00:00.00 392197 N 0 0 0
0:00:00.00 392724 N 0 0 0
0:00:00.00 393199 N 0 0 0
0:00:00.00 393529 N 0 0 0
0:00:00.00 393793 N 0 0 0
0:00:00.00 394072 N 0 0 0
0:00:00.00 394267 N 0 0 0
0:00:00.00 394600 N 0 0 0
0:00:00.00 395055 N 0 0 0
0:00:00.00 395314 N 0 0 0
0:00:00.00 395500 N 0 0 0
0:00:00.00 395744 N 0 0 0
0:00:00.00 396140 N 0 0 0
0:00:00.00 396398 N 0 0 0
0:00:00.00 396641 N 0 0 0
0:00:00.00 396878 N 0 0 0
0:00:00.00 397186 N 0 0 0
0:00:00.00 397602 N 0 0 0
0:00:00.00 397867 N 0 0 0
0:00:00.00 398056 N 0 0 0
0:00:00.00 398430 N 0 0 0
0:00:00.00 398914 N 0 0 0
0:00:00.00 399164 N 0 0 0
0:00:00.00 399438 N 0 0 0
0:00:00.00 399604 N 0 0 0
0:00:00.00 399935 N 0 0 0
0:00:00.00 400178 N 0 0 0
0:00:00.00 400437 N 0 0 0
0:00:00.00 400630 N 0 0 0
0:00:00.00 400912 N 0 0 0
0:00:00.00 401146 N 0 0 0
0:00:00.00 401609 N 0 0 0
0:00:00.00 401915 N 0 0 0
0:00:00.00 402134 N 0 0 0
0:00:00.00 402361 N 0 0 0
0:00:00.00 402665 N 0 0 0
0:00:00.00 402838 N 0 0 0
0:00:00.00 403162 N 0 0 0
0:00:00.00 403420 N 0 0 0
0:00:00.00 403645 N 0 0 0
0:00:00.00 403870 N 0 0 0
0:00:00.00 404039 N 0 0 0
0:00:00.00 404339 N 0 0 0
0:00:00.00 404622 N 0 0 0
0:00:00.00 404786 N 0 0 0
0:00:00.00 405074 N 0 0 0
0:00:00.00 405319 N 0 0 0
0:00:00.00 405585 N 0 0 0
0:00:00.00 405787 N 0 0 0
0:00:00.00 406132 N 0 0 0
0:00:00.00 406370 N 0 0 0
0:00:00.00 406615 N 0 0 0
0:00:00.00 406805 N 0 0 0
0:00:00.00 407189 N 0 0 0
0:00:00.00 407480 N 0 0 0
0:00:00.00 407927 N 0 0 0
0:00:00.00 408361 N 0 0 0
0:00:00.00 408611 N 0 0 0
0:00:00.00 408785 N 0 0 0
0:00:00.00 409072 N 0 0 0
0:00:00.00 409295 N 0 0 0
0:00:00.00 409538 N 0 0 0
0:00:00.00 409738 N 0 0 0
0:00:00.00 410074 N 0 0 0
0:00:00.00 410398 N 0 0 0
0:00:00.00 410582 N 0 0 0
0:00:00.00 410900 N 0 0 0
0:00:00.00 411133 N 0 0 0
0:00:00.00 411367 N 0 0 0
0:00:00.00 411563 N 0 0 0
0:00:00.00 411926 N 0 0 0
0:00:00.00 412168 N 0 0 0
0:00:00.00 412418 N 0 0 0
0:00:00.00 412605 N 0 0 0
0:00:00.00 412922 N 0 0 0
0:00:00.00 413210 N 0 0 0
0:00:00.00 413395 N 0 0 0
0:00:00.00 413908 N 0 0 0
0:00:00.00 414155 N 0 0 0
0:00:00.00 414389 N 0 0 0
0:00:00.00 414697 N 0 0 0
0:00:00.00 414907 N 0 0 0
0:00:00.00 415190 N 0 0 0
0:00:00.00 415426 N 0 0 0
0:00:00.00 415665 N 0 0 0
0:00:00.00 415913 N 0 0 0
0:00:00.00 416106 N 0 0 0
0:00:00.00 416453 N 0 0 0
0:00:00.00 416932 N 0 0 0
0:00:00.00 417190 N 0 0 0
0:00:00.00 417415 N 0 0 0
0:00:00.00 417641 N 0 0 0
0:00:00.00 417928 N 0 0 0
0:00:00.00 418199 N 0 0 0
0:00:00.00 418459 N 0 0 0
0:00:00.00 418756 N 0 0 0
0:00:00.00 419076 N 0 0 0
0:00:00.00 419310 N 0 0 0
0:00:00.00 419575 N 0 0 0
0:00:00.00 419980 N 0 0 0
0:00:00.00 420215 N 0 0 0
0:00:00.00 420467 N 0 0 0
0:00:00.00 420736 N 0 0 0
0:00:00.00 420928 N 0 0 0
0:00:00.00 421200 N 0 0 0
0:00:00.00 421420 N 0 0 0
0:00:00.00 421704 N 0 0 0
0:00:00.00 422008 N 0 0 0
0:00:00.00 422201 N 0 0 0
0:00:00.00 422528 N 0 0 0
0:00:00.00 422791 N 0 0 0
0:00:00.00 423052 N 0 0 0
0:00:00.00 423230 N 0 0 0
0:00:00.00 423535 N 0 0 0
0:00:00.00 423763 N 0 0 0
0:00:00.00 423983 N 0 0 0
0:00:00.00 424222 N 0 0 0
0:00:00.00 424409 N 0 0 0
0:00:00.00 424708 N 0 0 0
0:00:00.00 424969 N 0 0 0
0:00:00.00 425488 N 0 0 0
0:00:00.00 425736 N 0 0 0
0:00:00.00 425974 N 0 0 0
0:00:00.00 426154 N 0 0 0
0:00:00.00 426506 N 0 0 0
0:00:00.00 426834 N 0 0 0
0:00:00.00 427077 N 0 0 0
0:00:00.00 427309 N 0 0 0
0:00:00.00 427561 N 0 0 0
0:00:00.00 427730 N 0 0 0
0:00:00.00 428035 N 0 0 0
0:00:00.00 428342 N 0 0 0
0:00:00.00 428594 N 0 0 0
0:00:00.00 428998 N 0 0 0
0:00:00.00 429336 N 0 0 0
0:00:00.00 429653 N 0 0 0
0:00:00.00 429901 N 0 0 0
0:00:00.00 430139 N 0 0 0
0:00:00.00 430430 N 0 0 0
0:00:00.00 430736 N 0 0 0
0:00:00.00 430922 N 0 0 0
0:00:00.00 431231 N 0 0 0
0:00:00.00 431485 N 0 0 0
0:00:00.00 431732 N 0 0 0
0:00:00.00 431939 N 0 0 0
0:00:00.00 432184 N 0 0 0
0:00:00.00 432405 N 0 0 0
0:00:00.00 432733 N 0 0 0
0:00:00.00 432965 N 0 0 0
0:00:00.00 433186 N 0 0 0
0:00:00.00 433843 N 0 0 0
0:00:00.00 434281 N 0 0 0
0:00:00.00 434509 N 0 0 0
0:00:00.00 434738 N 0 0 0
0:00:00.00 435164 N 0 0 0
0:00:00.00 435407 N 0 0 0
0:00:00.00 435668 N 0 0 0
0:00:00.00 435976 N 0 0 0
0:00:00.00 436225 N 0 0 0
0:00:00.00 436511 N 0 0 0
0:00:00.00 437008 N 0 0 0
0:00:00.00 437173 N 0 0 0
0:00:00.00 437456 N 0 0 0
0:00:00.00 437693 N 0 0 0
0:00:00.00 437917 N 0 0 0
0:00:00.00 438412 N 0 0 0
0:00:00.00 438653 N 0 0 0
0:00:00.00 439074 N 0 0 0
0:00:00.00 439411 N 0 0 0
0:00:00.00 439718 N 0 0 0
0:00:00.00 439920 N 0 0 0
0:00:00.00 440219 N 0 0 0
0:00:00.00 440626 N 0 0 0
0:00:00.00 440845 N 0 0 0
0:00:00.00 441070 N 0 0 0
0:00:00.00 441261 N 0 0 0
0:00:00.00 441500 N 0 0 0
0:00:00.00 441763 N 0 0 0
0:00:00.00 441976 N 0 0 0
0:00:00.00 442255 N 0 0 0
0:00:00.00 442503 N 0 0 0
0:00:00.00 442780 N 0 0 0
0:00:00.00 442964 N 0 0 0
0:00:00.00 443245 N 0 0 0
0:00:00.00 443482 N 0 0 0
0:00:00.00 443803 N 0 0 0
0:00:00.00 444058 N 0 0 0
0:00:00.00 444301 N 0 0 0
0:00:00.00 444580 N 0 0 0
0:00:00.00 444767 N 0 0 0
0:00:00.00 445036 N 0 0 0
0:00:00.00 445300 N 0 0 0
0:00:00.00 445495 N 0 0 0
0:00:00.00 445775 N 0 0 0
0:00:00.00 446200 N 0 0 0
0:00:00.00 446465 N 0 0 0
0:00:00.00 446729 N 0 0 0
0:00:00.00 447143 N 0 0 0
0:00:00.00 447377 N 0 0 0
0:00:00.00 447660 N 0 0 0
0:00:00.00 447826 N 0 0 0
0:00:00.00 448384 N 0 0 0
0:00:00.00 448821 N 0 0 0
0:00:00.00 449098 N 0 0 0
0:00:00.00 449262 N 0 0 0
0:00:00.00 449573 N 0 0 0
0:00:00.00 449888 N 0 0 0
0:00:00.00 450049 N 0 0 0
0:00:00.00 450358 N 0 0 0
0:00:00.00 450688 N 0 0 0
0:00:00.00 450932 N 0 0 0
0:00:00.00 451174 N 0 0 0
0:00:00.00 451370 N 0 0 0
0:00:00.00 451642 N 0 0 0
0:00:00.00 451962 N 0 0 0
0:00:00.00 452147 N 0 0 0
0:00:00.00 452455 N 0 0 0
0:00:00.00 452707 N 0 0 0
0:00:00.00 453199 N 0 0 0
0:00:00.00 453676 N 0 0 0
0:00:00.00 453899 N 0 0 0
0:00:00.00 454264 N 0 0 0
0:00:00.00 454684 N 0 0 0
0:00:00.00 454928 N 0 0 0
0:00:00.00 455191 N 0 0 0
0:00:00.00 455389 N 0 0 0
0:00:00.00 455780 N 0 0 0
0:00:00.00 456021 N 0 0 0
0:00:00.00 456271 N 0 0 0
0:00:00.00 456437 N 0 0 0
0:00:00.00 456838 N 0 0 0
0:00:00.00 457312 N 0 0 0
0:00:00.00 457578 N 0 0 0
0:00:00.00 457866 N 0 0 0
0:00:00.00 458028 N 0 0 0
0:00:00.00 458426 N 0 0 0
0:00:00.00 458671 N 0 0 0
0:00:00.00 458894 N 0 0 0
0:00:00.00 459241 N 0 0 0
0:00:00.00 459562 N 0 0 0
0:00:00.00 459823 N 0 0 0
0:00:00.00 460001 N 0 0 0
0:00:00.00 460278 N 0 0 0
0:00:00.00 460588 N 0 0 0
0:00:00.00 460751 N 0 0 0
0:00:00.00 461065 N 0 0 0
0:00:00.00 461423 N 0 0 0
0:00:00.00 461671 N 0 0 0
0:00:00.00 461932 N 0 0 0
0:00:00.00 462105 N 0 0 0
0:00:00.00 462395 N 0 0 0
0:00:00.00 462613 N 0 0 0
0:00:00.00 462857 N 0 0 0
0:00:00.00 463034 N 0 0 0
0:00:00.00 463338 N 0 0 0
0:00:00.00 463628 N 0 0 0
0:00:00.00 463891 N 0 0 0
0:00:00.00 464067 N 0 0 0
0:00:00.00 464351 N 0 0 0
0:00:00.00 464578 N 0 0 0
0:00:00.00 464848 N 0 0 0
0:00:00.00 465007 N 0 0 0
0:00:00.00 465336 N 0 0 0
0:00:00.00 465581 N 0 0 0
0:00:00.00 465831 N 0 0 0
0:00:00.00 466139 N 0 0 0
0:00:00.00 466402 N 0 0 0
0:00:00.00 466657 N 0 0 0
0:00:00.00 466911 N 0 0 0
0:00:00.00 467240 N 0 0 0
0:00:00.00 467734 N 0 0 0
0:00:00.00 468301 N 0 0 0
0:00:00.00 468549 N 0 0 0
0:00:00.00 468727 N 0 0 0
0:00:00.00 469066 N 0 0 0
0:00:00.00 469285 N 0 0 0
0:00:00.00 469499 N 0 0 0
0:00:00.00 469971 N 0 0 0
0:00:00.00 470394 N 0 0 0
0:00:00.00 470628 N 0 0 0
0:00:00.00 470884 N 0 0 0
0:00:00.00 471069 N 0 0 0
0:00:00.00 471413 N 0 0 0
0:00:00.00 471811 N 0 0 0
0:00:00.00 472032 N 0 0 0
0:00:00.00 472268 N 0 0 0
0:00:00.00 472507 N 0 0 0
0:00:00.00 472694 N 0 0 0
0:00:00.00 472995 N 0 0 0
0:00:00.00 473227 N 0 0 0
0:00:00.00 473445 N 0 0 0
0:00:00.00 473699 N 0 0 0
0:00:00.00 473936 N 0 0 0
0:00:00.00 474160 N 0 0 0
0:00:00.00 474394 N 0 0 0
0:00:00.00 474685 N 0 0 0
0:00:00.00 474950 N 0 0 0
0:00:00.00 475285 N 0 0 0
0:00:00.00 475499 N 0 0 0
0:00:00.00 475720 N 0 0 0
0:00:00.00 476010 N 0 0 0
0:00:00.00 476267 N 0 0 0
0:00:00.00 476678 N 0 0 0
0:00:00.00 477128 N 0 0 0
0:00:00.00 477387 N 0 0 0
0:00:00.00 477578 N 0 0 0
0:00:00.00 477828 N 0 0 0
0:00:00.00 478071 N 0 0 0
0:00:00.00 478388 N 0 0 0
0:00:00.00 478638 N 0 0 0
0:00:00.00 479068 N 0 0 0
0:00:00.00 479329 N 0 0 0
0:00:00.00 479709 N 0 0 0
0:00:00.00 480139 N 0 0 0
0:00:00.00 480373 N 0 0 0
0:00:00.00 480604 N 0 0 0
0:00:00.00 480929 N 0 0 0
0:00:00.00 481194 N 0 0 0
0:00:00.00 481507 N 0 0 0
0:00:00.00 481842 N 0 0 0
0:00:00.00 482000 N 0 0 0
0:00:00.00 482467 N 0 0 0
0:00:00.00 482735 N 0 0 0
0:00:00.00 483055 N 0 0 0
0:00:00.00 483327 N 0 0 0
0:00:00.00 483869 N 0 0 0
0:00:00.00 484114 N 0 0 0
0:00:00.00 484434 N 0 0 0
0:00:00.00 484661 N 0 0 0
0:00:00.00 484904 N 0 0 0
0:00:00.00 485383 N 0 0 0
0:00:00.00 485852 N 0 0 0
0:00:00.00 486081 N 0 0 0
0:00:00.00 486382 N 0 0 0
0:00:00.00 486619 N 0 0 0
0:00:00.00 486850 N 0 0 0
0:00:00.00 487120 N 0 0 0
0:00:00.00 487370 N 0 0 0
0:00:00.00 487624 N 0 0 0
0:00:00.00 487935 N 0 0 0
0:00:00.00 488383 N 0 0 0
0:00:00.00 488639 N 0 0 0
0:00:00.00 488815 N 0 0 0
0:00:00.00 489229 N 0 0 0
0:00:00.00 489503 N 0 0 0
0:00:00.00 489753 N 0 0 0
0:00:00.00 489929 N 0 0 0
0:00:00.00 490226 N 0 0 0
0:00:00.00 490784 N 0 0 0
0:00:00.00 491011 N 0 0 0
0:00:00.00 491328 N 0 0 0
0:00:00.00 491576 N 0 0 0
0:00:00.00 491850 N 0 0 0
0:00:00.00 492304 N 0 0 0
0:00:00.00 492563 N 0 0 0
0:00:00.00 492741 N 0 0 0
0:00:00.00 493029 N 0 0 0
0:00:00.00 493259 N 0 0 0
0:00:00.00 493517 N 0 0 0
0:00:00.00 493785 N 0 0 0
0:00:00.00 494053 N 0 0 0
0:00:00.00 494332 N 0 0 0
0:00:00.00 494573 N 0 0 0
0:00:00.00 494917 N 0 0 0
0:00:00.00 495238 N 0 0 0
0:00:00.00 495493 N 0 0 0
0:00:00.00 495776 N 0 0 0
0:00:00.00 496112 N 0 0 0
0:00:00.00 496377 N 0 0 0
0:00:00.00 496676 N 0 0 0
0:00:00.00 496867 N 0 0 0
0:00:00.00 497151 N 0 0 0
0:00:00.00 497401 N 0 0 0
0:00:00.00 497639 N 0 0 0
0:00:00.00 497952 N 0 0 0
0:00:00.00 498395 N 0 0 0
0:00:00.00 498706 N 0 0 0
0:00:00.00 498870 N 0 0 0
0:00:00.00 499286 N 0 0 0
0:00:00.00 499736 N 0 0 0
0:00:00.00 499997 N 0 0 0
0:00:00.00 500287 N 0 0 0
0:00:00.00 500636 N 0 0 0
0:00:00.00 500926 N 0 0 0
0:00:00.00 501354 N 0 0 0
0:00:00.00 501590 N 0 0 0
0:00:00.00 502022 N 0 0 0
0:00:00.00 502573 N 0 0 0
0:00:00.00 502819 N 0 0 0
0:00:00.00 503078 N 0 0 0
0:00:00.00 503240 N 0 0 0
0:00:00.00 503608 N 0 0 0
0:00:00.00 504011 N 0 0 0
0:00:00.00 504335 N 0 0 0
0:00:00.00 504666 N 0 0 0
0:00:00.00 505247 N 0 0 0
0:00:00.00 505492 N 0 0 0
0:00:00.00 505782 N 0 0 0
0:00:00.00 506288 N 0 0 0
0:00:00.00 506556 N 0 0 0
0:00:00.00 506740 N 0 0 0
0:00:00.00 507062 N 0 0 0
0:00:00.00 507409 N 0 0 0
0:00:00.00 507650 N 0 0 0
0:00:00.00 508000 N 0 0 0
0:00:00.00 508342 N 0 0 0
0:00:00.00 508626 N 0 0 0
0:00:00.00 509049 N 0 0 0
0:00:00.00 509328 N 0 0 0
0:00:00.00 509589 N 0 0 0
0:00:00.00 509783 N 0 0 0
0:00:00.00 510107 N 0 0 0
0:00:00.00 510428 N 0 0 0
0:00:00.00 510590 N 0 0 0
0:00:00.00 510883 N 0 0 0
0:00:00.00 511139 N 0 0 0
0:00:00.00 511450 N 0 0 0
0:00:00.00 511637 N 0 0 0
0:00:00.00 511920 N 0 0 0
0:00:00.00 512177 N 0 0 0
0:00:00.00 512343 N 0 0 0
0:00:00.00 512662 N 0 0 0
0:00:00.00 512935 N 0 0 0
0:00:00.00 513238 N 0 0 0
0:00:00.00 513520 N 0 0 0
0:00:00.00 513824 N 0 0 0
0:00:00.00 514116 N 0 0 0
0:00:00.00 514350 N 0 0 0
0:00:00.00 514647 N 0 0 0
0:00:00.00 514818 N 0 0 0
0:00:00.00 515196 N 0 0 0
0:00:00.00 515677 N 0 0 0
0:00:00.00 515932 N 0 0 0
0:00:00.00 516220 N 0 0 0
0:00:00.00 516537 N 0 0 0
0:00:00.00 516798 N 0 0 0
0:00:00.00 517070 N 0 0 0
0:00:00.00 517612 N 0 0 0
0:00:00.00 517955 N 0 0 0
0:00:00.00 518213 N 0 0 0
0:00:00.00 518477 N 0 0 0
0:00:00.00 518735 N 0 0 0
0:00:00.00 518983 N 0 0 0
0:00:00.00 519221 N 0 0 0
0:00:00.00 519471 N 0 0 0
0:00:00.00 519665 N 0 0 0
0:00:00.00 519986 N 0 0 0
0:00:00.00 520247 N 0 0 0
0:00:00.00 520486 N 0 0 0
0:00:00.00 521014 N 0 0 0
0:00:00.00 521341 N 0 0 0
0:00:00.00 521611 N 0 0 0
0:00:00.00 521869 N 0 0 0
0:00:00.00 522079 N 0 0 0
0:00:00.00 522374 N 0 0 0
0:00:00.00 522598 N 0 0 0
0:00:00.00 522839 N 0 0 0
0:00:00.00 523062 N 0 0 0
0:00:00.00 523292 N 0 0 0
0:00:00.00 523688 N 0 0 0
0:00:00.00 524038 N 0 0 0
0:00:00.00 524281 N 0 0 0
0:00:00.00 524579 N 0 0 0
0:00:00.00 524842 N 0 0 0
0:00:00.00 525071 N 0 0 0
0:00:00.00 525328 N 0 0 0
0:00:00.00 525722 N 0 0 0
0:00:00.00 525983 N 0 0 0
0:00:00.00 526181 N 0 0 0
0:00:00.00 526581 N 0 0 0
0:00:00.00 527110 N 0 0 0
0:00:00.00 527429 N 0 0 0
0:00:00.00 527659 N 0 0 0
0:00:00.00 527855 N 0 0 0
0:00:00.00 528257 N 0 0 0
0:00:00.00 528538 N 0 0 0
0:00:00.00 528775 N 0 0 0
0:00:00.00 528986 N 0 0 0
0:00:00.00 529222 N 0 0 0
0:00:00.00 529447 N 0 0 0
0:00:00.00 529677 N 0 0 0
0:00:00.00 529927 N 0 0 0
0:00:00.00 530152 N 0 0 0
0:00:00.00 530381 N 0 0 0
0:00:00.00 530622 N 0 0 0
0:00:00.00 530820 N 0 0 0
0:00:00.00 531140 N 0 0 0
0:00:00.00 531398 N 0 0 0
0:00:00.00 531684 N 0 0 0
0:00:00.00 531961 N 0 0 0
0:00:00.00 532276 N 0 0 0
0:00:00.00 532589 N 0 0 0
0:00:00.00 532895 N 0 0 0
0:00:00.00 533191 N 0 0 0
0:00:00.00 533434 N 0 0 0
0:00:00.00 533662 N 0 0 0
0:00:00.00 533903 N 0 0 0
0:00:00.00 534227 N 0 0 0
0:00:00.00 534546 N 0 0 0
0:00:00.00 534740 N 0 0 0
0:00:00.00 535075 N 0 0 0
0:00:00.00 535333 N 0 0 0
0:00:00.00 535529 N 0 0 0
0:00:00.00 536029 N 0 0 0
0:00:00.00 536276 N 0 0 0
0:00:00.00 536607 N 0 0 0
0:00:00.00 536864 N 0 0 0
0:00:00.00 537305 N 0 0 0
0:00:00.00 537707 N 0 0 0
0:00:00.00 538025 N 0 0 0
0:00:00.00 538268 N 0 0 0
0:00:00.00 538540 N 0 0 0
0:00:00.00 538841 N 0 0 0
0:00:00.00 539096 N 0 0 0
0:00:00.00 539440 N 0 0 0
0:00:00.00 539712 N 0 0 0
0:00:00.00 539957 N 0 0 0
0:00:00.00 540202 N 0 0 0
0:00:00.00 540475 N 0 0 0
0:00:00.00 540715 N 0 0 0
0:00:00.00 541276 N 0 0 0
0:00:00.00 541528 N 0 0 0
0:00:00.00 541789 N 0 0 0
0:00:00.00 542034 N 0 0 0
0:00:00.00 542273 N 0 0 0
0:00:00.00 542675 N 0 0 0
0:00:00.00 543008 N 0 0 0
0:00:00.00 543287 N 0 0 0
0:00:00.00 543582 N 0 0 0
0:00:00.00 543884 N 0 0 0
0:00:00.00 544145 N 0 0 0
0:00:00.00 544354 N 0 0 0
0:00:00.00 544689 N 0 0 0
0:00:00.00 545002 N 0 0 0
0:00:00.00 545245 N 0 0 0
0:00:00.00 545519 N 0 0 0
0:00:00.00 545830 N 0 0 0
0:00:00.00 546178 N 0 0 0
0:00:00.00 546435 N 0 0 0
0:00:00.00 546667 N 0 0 0
0:00:00.00 546964 N 0 0 0
0:00:00.00 547326 N 0 0 0
0:00:00.00 547573 N 0 0 0
0:00:00.00 547929 N 0 0 0
0:00:00.00 548260 N 0 0 0
0:00:00.00 548512 N 0 0 0
0:00:00.00 548786 N 0 0 0
0:00:00.00 549022 N 0 0 0
0:00:00.00 549284 N 0 0 0
0:00:00.00 549589 N 0 0 0
0:00:00.00 549839 N 0 0 0
0:00:00.00 550240 N 0 0 0
0:00:00.00 550521 N 0 0 0
0:00:00.00 550696 N 0 0 0
0:00:00.00 551209 N 0 0 0
0:00:00.00 551448 N 0 0 0
0:00:00.00 551614 N 0 0 0
0:00:00.00 551979 N 0 0 0
0:00:00.00 552265 N 0 0 0
0:00:00.00 552573 N 0 0 0
0:00:00.00 552827 N 0 0 0
0:00:00.00 553244 N 0 0 0
0:00:00.00 553505 N 0 0 0
0:00:00.00 553910 N 0 0 0
0:00:00.00 554206 N 0 0 0
0:00:00.00 554395 N 0 0 0
0:00:00.00 554708 N 0 0 0
0:00:00.00 555028 N 0 0 0
0:00:00.00 555260 N 0 0 0
0:00:00.00 555530 N 0 0 0
0:00:00.00 555764 N 0 0 0
0:00:00.00 556074 N 0 0 0
0:00:00.00 556330 N 0 0 0
0:00:00.00 556623 N 0 0 0
0:00:00.00 556947 N 0 0 0
0:00:00.00 557194 N 0 0 0
0:00:00.00 557438 N 0 0 0
0:00:00.00 557734 N 0 0 0
0:00:00.00 557964 N 0 0 0
0:00:00.00 558214 N 0 0 0
0:00:00.00 558542 N 0 0 0
0:00:00.00 558848 N 0 0 0
0:00:00.00 559111 N 0 0 0
0:00:00.00 559512 N 0 0 0
0:00:00.00 559802 N 0 0 0
0:00:00.00 559960 N 0 0 0
0:00:00.00 560317 N 0 0 0
0:00:00.00 560578 N 0 0 0
0:00:00.00 560840 N 0 0 0
0:00:00.00 561159 N 0 0 0
0:00:00.00 561451 N 0 0 0
0:00:00.00 561640 N 0 0 0
0:00:00.00 561913 N 0 0 0
0:00:00.00 562347 N 0 0 0
0:00:00.00 562594 N 0 0 0
0:00:00.00 562833 N 0 0 0
0:00:00.00 563144 N 0 0 0
0:00:00.00 563645 N 0 0 0
0:00:00.00 563893 N 0 0 0
0:00:00.00 564118 N 0 0 0
0:00:00.00 564323 N 0 0 0
0:00:00.00 564568 N 0 0 0
0:00:00.00 564856 N 0 0 0
0:00:00.00 565123 N 0 0 0
0:00:00.00 565443 N 0 0 0
0:00:00.00 565688 N 0 0 0
0:00:00.00 566005 N 0 0 0
0:00:00.00 566235 N 0 0 0
0:00:00.00 566458 N 0 0 0
0:00:00.00 566678 N 0 0 0
0:00:00.00 566856 N 0 0 0
0:00:00.00 567155 N 0 0 0
0:00:00.00 567617 N 0 0 0
0:00:00.00 568031 N 0 0 0
0:00:00.00 568406 N 0 0 0
0:00:00.00 568652 N 0 0 0
0:00:00.00 568876 N 0 0 0
0:00:00.00 569135 N 0 0 0
0:00:00.00 569426 N 0 0 0
0:00:00.00 569671 N 0 0 0
0:00:00.00 569912 N 0 0 0
0:00:00.00 570188 N 0 0 0
0:00:00.00 570512 N 0 0 0
0:00:00.00 570764 N 0 0 0
0:00:00.00 571005 N 0 0 0
0:00:00.00 571426 N 0 0 0
0:00:00.00 571790 N 0 0 0
0:00:00.00 572074 N 0 0 0
0:00:00.00 572335 N 0 0 0
0:00:00.00 572602 N 0 0 0
0:00:00.00 572827 N 0 0 0
0:00:00.00 572983 N 0 0 0
0:00:00.00 573293 N 0 0 0
0:00:00.00 573543 N 0 0 0
0:00:00.00 573800 N 0 0 0
0:00:00.00 574085 N 0 0 0
0:00:00.00 574355 N 0 0 0
0:00:00.00 574751 N 0 0 0
0:00:00.00 574996 N 0 0 0
0:00:00.00 575287 N 0 0 0
0:00:00.00 575555 N 0 0 0
0:00:00.00 575815 N 0 0 0
0:00:00.00 576137 N 0 0 0
0:00:00.00 576652 N 0 0 0
0:00:00.00 576963 N 0 0 0
0:00:00.00 577184 N 0 0 0
0:00:00.00 577424 N 0 0 0
0:00:00.00 577649 N 0 0 0
0:00:00.00 577886 N 0 0 0
0:00:00.00 578124 N 0 0 0
0:00:00.00 578461 N 0 0 0
0:00:00.00 578707 N 0 0 0
0:00:00.00 578941 N 0 0 0
0:00:00.00 579168 N 0 0 0
0:00:00.00 579418 N 0 0 0
0:00:00.00 579692 N 0 0 0
0:00:00.00 579946 N 0 0 0
0:00:00.00 580324 N 0 0 0
0:00:00.00 580786 N 0 0 0
0:00:00.00 581031 N 0 0 0
0:00:00.00 581265 N 0 0 0
0:00:00.00 581488 N 0 0 0
0:00:00.00 581794 N 0 0 0
0:00:00.00 582050 N 0 0 0
0:00:00.00 582363 N 0 0 0
0:00:00.00 582631 N 0 0 0
0:00:00.00 582871 N 0 0 0
0:00:00.00 583099 N 0 0 0
0:00:00.00 583321 N 0 0 0
0:00:00.00 583535 N 0 0 0
0:00:00.00 583697 N 0 0 0
0:00:00.00 584026 N 0 0 0
0:00:00.00 584354 N 0 0 0
0:00:00.00 584802 N 0 0 0
0:00:00.00 585052 N 0 0 0
0:00:00.00 585257 N 0 0 0
0:00:00.00 585488 N 0 0 0
0:00:00.00 585700 N 0 0 0
0:00:00.00 585914 N 0 0 0
0:00:00.00 586139 N 0 0 0
0:00:00.00 586370 N 0 0 0
0:00:00.00 586555 N 0 0 0
0:00:00.00 586926 N 0 0 0
0:00:00.00 587158 N 0 0 0
0:00:00.00 587398 N 0 0 0
0:00:00.00 587650 N 0 0 0
0:00:00.00 587974 N 0 0 0
0:00:00.00 588218 N 0 0 0
0:00:00.00 588611 N 0 0 0
0:00:00.00 588874 N 0 0 0
0:00:00.00 589050 N 0 0 0
0:00:00.00 589417 N 0 0 0
0:00:00.00 589680 N 0 0 0
0:00:00.00 589970 N 0 0 0
0:00:00.00 590222 N 0 0 0
0:00:00.00 590616 N 0 0 0
0:00:00.00 590906 N 0 0 0
0:00:00.00 591086 N 0 0 0
0:00:00.00 591473 N 0 0 0
0:00:00.00 591700 N 0 0 0
0:00:00.00 591923 N 0 0 0
0:00:00.00 592178 N 0 0 0
0:00:00.00 592436 N 0 0 0
0:00:00.00 592832 N 0 0 0
0:00:00.00 593091 N 0 0 0
0:00:00.00 593249 N 0 0 0
0:00:00.00 593593 N 0 0 0
0:00:00.00 593825 N 0 0 0
0:00:00.00 594049 N 0 0 0
0:00:00.00 594297 N 0 0 0
0:00:00.00 594527 N 0 0 0
0:00:00.00 594761 N 0 0 0
0:00:00.00 595001 N 0 0 0
0:00:00.00 595453 N 0 0 0
0:00:00.00 595748 N 0 0 0
0:00:00.00 595980 N 0 0 0
0:00:00.00 596248 N 0 0 0
0:00:00.00 596488 N 0 0 0
0:00:00.00 596799 N 0 0 0
0:00:00.00 597087 N 0 0 0
0:00:00.00 597332 N 0 0 0
0:00:00.00 597667 N 0 0 0
0:00:00.00 597983 N 0 0 0
0:00:00.00 598252 N 0 0 0
0:00:00.00 598523 N 0 0 0
0:00:00.00 598765 N 0 0 0
0:00:00.00 598984 N 0 0 0
0:00:00.00 599213 N 0 0 0
0:00:00.00 599476 N 0 0 0
0:00:00.00 599769 N 0 0 0
0:00:00.00 600028 N 0 0 0
0:00:00.00 600298 N 0 0 0
0:00:00.00 600532 N 0 0 0
0:00:00.00 600797 N 0 0 0
0:00:00.00 601279 N 0 0 0
0:00:00.00 601538 N 0 0 0
0:00:00.00 601862 N 0 0 0
0:00:00.00 602105 N 0 0 0
0:00:00.00 602357 N 0 0 0
0:00:00.00 602581 N 0 0 0
0:00:00.00 603043 N 0 0 0
0:00:00.00 603284 N 0 0 0
0:00:00.00 603706 N 0 0 0
0:00:00.00 603970 N 0 0 0
0:00:00.00 604231 N 0 0 0
0:00:00.00 604472 N 0 0 0
0:00:00.00 604733 N 0 0 0
0:00:00.00 604987 N 0 0 0
0:00:00.00 605219 N 0 0 0
0:00:00.00 605453 N 0 0 0
0:00:00.00 605732 N 0 0 0
0:00:00.00 605979 N 0 0 0
0:00:00.00 606305 N 0 0 0
0:00:00.00 606564 N 0 0 0
0:00:00.00 606798 N 0 0 0
0:00:00.00 607018 N 0 0 0
0:00:00.00 607273 N 0 0 0
0:00:00.00 607527 N 0 0 0
0:00:00.00 607766 N 0 0 0
0:00:00.00 608155 N 0 0 0
0:00:00.00 608400 N 0 0 0
0:00:00.00 608638 N 0 0 0
0:00:00.00 608886 N 0 0 0
0:00:00.00 609199 N 0 0 0
0:00:00.00 609478 N 0 0 0
0:00:00.00 609725 N 0 0 0
0:00:00.00 609894 N 0 0 0
0:00:00.00 610243 N 0 0 0
0:00:00.00 610535 N 0 0 0
0:00:00.00 610790 N 0 0 0
0:00:00.00 611069 N 0 0 0
0:00:00.00 611402 N 0 0 0
0:00:00.00 611806 N 0 0 0
0:00:00.00 612148 N 0 0 0
0:00:00.00 612405 N 0 0 0
0:00:00.00 612695 N 0 0 0
0:00:00.00 613010 N 0 0 0
0:00:00.00 613244 N 0 0 0
0:00:00.00 613474 N 0 0 0
0:00:00.00 613694 N 0 0 0
0:00:00.00 613939 N 0 0 0
0:00:00.00 614369 N 0 0 0
0:00:00.00 614633 N 0 0 0
0:00:00.00 614927 N 0 0 0
0:00:00.00 615191 N 0 0 0
0:00:00.00 615742 N 0 0 0
0:00:00.00 616142 N 0 0 0
0:00:00.00 616408 N 0 0 0
0:00:00.00 616772 N 0 0 0
0:00:00.00 617249 N 0 0 0
0:00:00.00 617693 N 0 0 0
0:00:00.00 617935 N 0 0 0
0:00:00.00 618170 N 0 0 0
0:00:00.00 618538 N 0 0 0
0:00:00.00 618790 N 0 0 0
0:00:00.00 618993 N 0 0 0
0:00:00.00 619330 N 0 0 0
0:00:00.00 619668 N 0 0 0
0:00:00.00 619889 N 0 0 0
0:00:00.00 620122 N 0 0 0
0:00:00.00 620343 N 0 0 0
0:00:00.00 620550 N 0 0 0
0:00:00.00 620854 N 0 0 0
0:00:00.00 621115 N 0 0 0
0:00:00.00 621351 N 0 0 0
0:00:00.00 621790 N 0 0 0
0:00:00.00 622035 N 0 0 0
0:00:00.00 622276 N 0 0 0
0:00:00.00 622706 N 0 0 0
0:00:00.00 622960 N 0 0 0
0:00:00.00 623135 N 0 0 0
0:00:00.00 623448 N 0 0 0
0:00:00.00 623765 N 0 0 0
0:00:00.00 624051 N 0 0 0
0:00:00.00 624346 N 0 0 0
0:00:00.00 624578 N 0 0 0
0:00:00.00 624825 N 0 0 0
0:00:00.00 625106 N 0 0 0
0:00:00.00 625367 N 0 0 0
0:00:00.00 625660 N 0 0 0
0:00:00.00 626141 N 0 0 0
0:00:00.00 626450 N 0 0 0
0:00:00.00 626760 N 0 0 0
0:00:00.00 626990 N 0 0 0
0:00:00.00 627412 N 0 0 0
0:00:00.00 627683 N 0 0 0
0:00:00.00 628031 N 0 0 0
0:00:00.00 628270 N 0 0 0
0:00:00.00 628529 N 0 0 0
0:00:00.00 628767 N 0 0 0
0:00:00.00 629028 N 0 0 0
0:00:00.00 629289 N 0 0 0
0:00:00.00 629557 N 0 0 0
0:00:00.00 629816 N 0 0 0
0:00:00.00 630155 N 0 0 0
0:00:00.00 630443 N 0 0 0
0:00:00.00 630688 N 0 0 0
0:00:00.00 630979 N 0 0 0
0:00:00.00 631298 N 0 0 0
0:00:00.00 631526 N 0 0 0
0:00:00.00 631775 N 0 0 0
0:00:00.00 632079 N 0 0 0
0:00:00.00 632347 N 0 0 0
0:00:00.00 632659 N 0 0 0
0:00:00.00 632898 N 0 0 0
0:00:00.00 633146 N 0 0 0
0:00:00.00 633416 N 0 0 0
0:00:00.00 633719 N 0 0 0
0:00:00.00 633956 N 0 0 0
0:00:00.00 634333 N 0 0 0
0:00:00.00 634678 N 0 0 0
0:00:00.00 634923 N 0 0 0
0:00:00.00 635114 N 0 0 0
0:00:00.00 635495 N 0 0 0
0:00:00.00 635900 N 0 0 0
0:00:00.00 636151 N 0 0 0
0:00:00.00 636419 N 0 0 0
0:00:00.00 636656 N 0 0 0
0:00:00.00 636946 N 0 0 0
0:00:00.00 637438 N 0 0 0
0:00:00.00 637702 N 0 0 0
0:00:00.00 638026 N 0 0 0
0:00:00.00 638269 N 0 0 0
0:00:00.00 638523 N 0 0 0
0:00:00.00 638789 N 0 0 0
0:00:00.00 639140 N 0 0 0
0:00:00.00 639551 N 0 0 0
0:00:00.00 639853 N 0 0 0
0:00:00.00 640073 N 0 0 0
0:00:00.00 640305 N 0 0 0
0:00:00.00 640579 N 0 0 0
0:00:00.00 640868 N 0 0 0
0:00:00.00 641165 N 0 0 0
0:00:00.00 641441 N 0 0 0
0:00:00.00 641689 N 0 0 0
0:00:00.00 641986 N 0 0 0
0:00:00.00 642267 N 0 0 0
0:00:00.00 642665 N 0 0 0
0:00:00.00 642973 N 0 0 0
0:00:00.00 643266 N 0 0 0
0:00:00.00 643568 N 0 0 0
0:00:00.00 643851 N 0 0 0
0:00:00.00 644096 N 0 0 0
0:00:00.00 644317 N 0 0 0
0:00:00.00 644549 N 0 0 0
0:00:00.00 644792 N 0 0 0
0:00:00.00 645055 N 0 0 0
0:00:00.00 645316 N 0 0 0
0:00:00.00 645604 N 0 0 0
0:00:00.00 645836 N 0 0 0
0:00:00.00 646078 N 0 0 0
0:00:00.00 646331 N 0 0 0
0:00:00.00 646637 N 0 0 0
0:00:00.00 647069 N 0 0 0
0:00:00.00 647321 N 0 0 0
0:00:00.00 647584 N 0 0 0
0:00:00.00 647968 N 0 0 0
0:00:00.00 648292 N 0 0 0
0:00:00.00 648538 N 0 0 0
0:00:00.00 648763 N 0 0 0
0:00:00.00 648983 N 0 0 0
0:00:00.00 649238 N 0 0 0
0:00:00.00 649530 N 0 0 0
0:00:00.00 649811 N 0 0 0
