0:00:00.00 9 N 0 0 0
0:00:00.00 83 N 0 0 0
0:00:00.00 364 N 0 0 0
0:00:00.00 648 N 0 0 0
0:00:00.00 891 N 0 0 0
0:00:00.00 1195 N 0 0 0
0:00:00.00 1481 N 0 0 0
0:00:00.00 1780 N 0 0 0
0:00:00.00 2074 N 0 0 0
0:00:00.00 2338 N 0 0 0
0:00:00.00 2644 N 0 0 0
0:00:00.00 2941 N 0 0 0
0:00:00.00 3193 N 0 0 0
0:00:00.00 3521 N 0 0 0
0:00:00.00 3830 N 0 0 0
0:00:00.00 4111 N 0 0 0
0:00:00.00 4405 N 0 0 0
0:00:00.00 4687 N 0 0 0
0:00:00.00 4977 N 0 0 0
0:00:00.00 5234 N 0 0 0
0:00:00.00 5571 N 0 0 0
0:00:00.00 5893 N 0 0 0
0:00:00.00 6196 N 0 0 0
0:00:00.00 6484 N 0 0 0
0:00:00.00 6775 N 0 0 0
0:00:00.00 7034 N 0 0 0
0:00:00.00 7331 N 0 0 0
0:00:00.00 7610 N 0 0 0
0:00:00.00 7895 N 0 0 0
0:00:00.00 8203 N 0 0 0
0:00:00.00 8480 N 0 0 0
0:00:00.00 8762 N 0 0 0
0:00:00.00 9043 N 0 0 0
0:00:00.00 9297 N 0 0 0
0:00:00.00 9607 N 0 0 0
0:00:00.00 9916 N 0 0 0
0:00:00.00 10197 N 0 0 0
0:00:00.00 10517 N 0 0 0
0:00:00.00 10782 N 0 0 0
0:00:00.00 11075 N 0 0 0
0:00:00.00 11356 N 0 0 0
0:00:00.00 11644 N 0 0 0
0:00:00.00 11909 N 0 0 0
0:00:00.00 12242 N 0 0 0
0:00:00.00 12548 N 0 0 0
0:00:00.00 12823 N 0 0 0
0:00:00.00 13124 N 0 0 0
0:00:00.00 13387 N 0 0 0
0:00:00.00 13675 N 0 0 0
0:00:00.00 13963 N 0 0 0
0:00:00.00 14252 N 0 0 0
0:00:00.00 14553 N 0 0 0
0:00:00.00 14866 N 0 0 0
0:00:00.00 15140 N 0 0 0
0:00:00.00 15426 N 0 0 0
0:00:00.00 15710 N 0 0 0
0:00:00.00 15961 N 0 0 0
0:00:00.00 16274 N 0 0 0
0:00:00.00 16573 N 0 0 0
0:00:00.00 16861 N 0 0 0
0:00:00.00 17150 N 0 0 0
0:00:00.00 17415 N 0 0 0
0:00:00.00 17723 N 0 0 0
0:00:00.00 17996 N 0 0 0
0:00:00.00 18257 N 0 0 0
0:00:00.00 18576 N 0 0 0
0:00:00.00 18864 N 0 0 0
0:00:00.00 19157 N 0 0 0
0:00:00.00 19440 N 0 0 0
0:00:00.00 19715 N 0 0 0
0:00:00.00 20003 N 0 0 0
0:00:00.00 20282 N 0 0 0
0:00:00.00 20543 N 0 0 0
0:00:00.00 20878 N 0 0 0
0:00:00.00 21168 N 0 0 0
0:00:00.00 21458 N 0 0 0
0:00:00.00 21739 N 0 0 0
0:00:00.00 22039 N 0 0 0
0:00:00.00 22307 N 0 0 0
0:00:00.00 22588 N 0 0 0
0:00:00.00 22914 N 0 0 0
0:00:00.00 23206 N 0 0 0
0:00:00.00 23476 N 0 0 0
0:00:00.00 23789 N 0 0 0
0:00:00.00 24086 N 0 0 0
0:00:00.00 24350 N 0 0 0
0:00:00.00 24629 N 0 0 0
0:00:00.00 24921 N 0 0 0
0:00:00.00 25218 N 0 0 0
0:00:00.00 25537 N 0 0 0
0:00:00.00 25808 N 0 0 0
0:00:00.00 26129 N 0 0 0
0:00:00.00 26401 N 0 0 0
0:00:00.00 26683 N 0 0 0
0:00:00.00 26986 N 0 0 0
0:00:00.00 27283 N 0 0 0
0:00:00.00 27607 N 0 0 0
0:00:00.00 27891 N 0 0 0
0:00:00.00 28193 N 0 0 0
0:00:00.00 28460 N 0 0 0
0:00:00.00 28764 N 0 0 0
0:00:00.00 29050 N 0 0 0
0:00:00.00 29344 N 0 0 0
0:00:00.00 29666 N 0 0 0
0:00:00.00 29956 N 0 0 0
0:00:00.00 30233 N 0 0 0
0:00:00.00 30546 N 0 0 0
0:00:00.00 30825 N 0 0 0
0:00:00.00 31090 N 0 0 0
0:00:00.00 31401 N 0 0 0
0:00:00.00 31696 N 0 0 0
0:00:00.00 31984 N 0 0 0
0:00:00.00 32278 N 0 0 0
0:00:00.00 32571 N 0 0 0
0:00:00.00 32827 N 0 0 0
0:00:00.00 33127 N 0 0 0
0:00:00.00 33394 N 0 0 0
0:00:00.00 33701 N 0 0 0
0:00:00.00 33997 N 0 0 0
0:00:00.00 34294 N 0 0 0
0:00:00.00 34594 N 0 0 0
0:00:00.00 34900 N 0 0 0
0:00:00.00 35194 N 0 0 0
0:00:00.00 35487 N 0 0 0
0:00:00.00 35804 N 0 0 0
0:00:00.00 36122 N 0 0 0
0:00:00.00 36437 N 0 0 0
0:00:00.00 36745 N 0 0 0
0:00:00.00 37055 N 0 0 0
0:00:00.00 37321 N 0 0 0
0:00:00.00 37636 N 0 0 0
0:00:00.00 37962 N 0 0 0
0:00:00.00 38282 N 0 0 0
0:00:00.00 38605 N 0 0 0
0:00:00.00 38916 N 0 0 0
0:00:00.00 39224 N 0 0 0
0:00:00.00 39524 N 0 0 0
0:00:00.00 39814 N 0 0 0
0:00:00.00 40018 N 0 0 0
0:00:00.00 40142 N 0 0 0
0:00:00.00 40464 N 0 0 0
0:00:00.00 40775 N 0 0 0
0:00:00.00 41042 N 0 0 0
0:00:00.00 41364 N 0 0 0
0:00:00.00 41665 N 0 0 0
0:00:00.00 41942 N 0 0 0
0:00:00.00 42271 N 0 0 0
0:00:00.00 42577 N 0 0 0
0:00:00.00 42865 N 0 0 0
0:00:00.00 43178 N 0 0 0
0:00:00.00 43470 N 0 0 0
0:00:00.00 43745 N 0 0 0
0:00:00.00 44048 N 0 0 0
0:00:00.00 44341 N 0 0 0
0:00:00.00 44640 N 0 0 0
0:00:00.00 44962 N 0 0 0
0:00:00.00 45239 N 0 0 0
0:00:00.00 45529 N 0 0 0
0:00:00.00 45830 N 0 0 0
0:00:00.00 46094 N 0 0 0
0:00:00.00 46377 N 0 0 0
0:00:00.00 46670 N 0 0 0
0:00:00.00 46980 N 0 0 0
0:00:00.00 47268 N 0 0 0
0:00:00.00 47552 N 0 0 0
0:00:00.00 47817 N 0 0 0
0:00:00.00 48101 N 0 0 0
0:00:00.00 48380 N 0 0 0
0:00:00.00 48649 N 0 0 0
0:00:00.00 48967 N 0 0 0
0:00:00.00 49226 N 0 0 0
0:00:00.00 49525 N 0 0 0
0:00:00.00 49810 N 0 0 0
0:00:00.00 50090 N 0 0 0
0:00:00.00 50391 N 0 0 0
0:00:00.00 50659 N 0 0 0
0:00:00.00 50962 N 0 0 0
0:00:00.00 51251 N 0 0 0
0:00:00.00 51566 N 0 0 0
0:00:00.00 51842 N 0 0 0
0:00:00.00 52160 N 0 0 0
0:00:00.00 52438 N 0 0 0
0:00:00.00 52708 N 0 0 0
0:00:00.00 53039 N 0 0 0
0:00:00.00 53330 N 0 0 0
0:00:00.00 53638 N 0 0 0
0:00:00.00 53926 N 0 0 0
0:00:00.00 54236 N 0 0 0
0:00:00.00 54500 N 0 0 0
0:00:00.00 54815 N 0 0 0
0:00:00.00 55111 N 0 0 0
0:00:00.00 55402 N 0 0 0
0:00:00.00 55724 N 0 0 0
0:00:00.00 56020 N 0 0 0
0:00:00.00 56318 N 0 0 0
0:00:00.00 56606 N 0 0 0
0:00:00.00 56905 N 0 0 0
0:00:00.00 57175 N 0 0 0
0:00:00.00 57481 N 0 0 0
0:00:00.00 57791 N 0 0 0
0:00:00.00 58097 N 0 0 0
0:00:00.00 58378 N 0 0 0
0:00:00.00 58687 N 0 0 0
0:00:00.00 58954 N 0 0 0
0:00:00.00 59247 N 0 0 0
0:00:00.00 59551 N 0 0 0
0:00:00.00 59857 N 0 0 0
0:00:00.00 60133 N 0 0 0
0:00:00.00 60449 N 0 0 0
0:00:00.00 60719 N 0 0 0
0:00:00.00 61029 N 0 0 0
0:00:00.00 61295 N 0 0 0
0:00:00.00 61592 N 0 0 0
0:00:00.00 61889 N 0 0 0
0:00:00.00 62195 N 0 0 0
0:00:00.00 62485 N 0 0 0
0:00:00.00 62795 N 0 0 0
0:00:00.00 63079 N 0 0 0
0:00:00.00 63362 N 0 0 0
0:00:00.00 63671 N 0 0 0
0:00:00.00 63959 N 0 0 0
0:00:00.00 64292 N 0 0 0
0:00:00.00 64602 N 0 0 0
0:00:00.00 64910 N 0 0 0
0:00:00.00 65209 N 0 0 0
0:00:00.00 65516 N 0 0 0
0:00:00.00 65817 N 0 0 0
0:00:00.00 66136 N 0 0 0
0:00:00.00 66427 N 0 0 0
0:00:00.00 66751 N 0 0 0
0:00:00.00 67061 N 0 0 0
0:00:00.00 67327 N 0 0 0
0:00:00.00 67644 N 0 0 0
0:00:00.00 67916 N 0 0 0
0:00:00.00 68222 N 0 0 0
0:00:00.00 68546 N 0 0 0
0:00:00.00 68845 N 0 0 0
0:00:00.00 69142 N 0 0 0
0:00:00.00 69437 N 0 0 0
0:00:00.00 69694 N 0 0 0
0:00:00.00 70007 N 0 0 0
0:00:00.00 70292 N 0 0 0
0:00:00.00 70594 N 0 0 0
0:00:00.00 70920 N 0 0 0
0:00:00.00 71208 N 0 0 0
0:00:00.00 71473 N 0 0 0
0:00:00.00 71777 N 0 0 0
0:00:00.00 72056 N 0 0 0
0:00:00.00 72340 N 0 0 0
0:00:00.00 72646 N 0 0 0
0:00:00.00 72941 N 0 0 0
0:00:00.00 73229 N 0 0 0
0:00:00.00 73546 N 0 0 0
0:00:00.00 73807 N 0 0 0
0:00:00.00 74113 N 0 0 0
0:00:00.00 74396 N 0 0 0
0:00:00.00 74662 N 0 0 0
0:00:00.00 75004 N 0 0 0
0:00:00.00 75335 N 0 0 0
0:00:00.00 75636 N 0 0 0
0:00:00.00 75922 N 0 0 0
0:00:00.00 76196 N 0 0 0
0:00:00.00 76482 N 0 0 0
0:00:00.00 76777 N 0 0 0
0:00:00.00 77083 N 0 0 0
0:00:00.00 77395 N 0 0 0
0:00:00.00 77665 N 0 0 0
0:00:00.00 77987 N 0 0 0
0:00:00.00 78262 N 0 0 0
0:00:00.00 78557 N 0 0 0
0:00:00.00 78876 N 0 0 0
0:00:00.00 79173 N 0 0 0
0:00:00.00 79502 N 0 0 0
0:00:00.00 79767 N 0 0 0
0:00:00.00 80095 N 0 0 0
0:00:00.00 80372 N 0 0 0
0:00:00.00 80667 N 0 0 0
0:00:00.00 80978 N 0 0 0
0:00:00.00 81259 N 0 0 0
0:00:00.00 81601 N 0 0 0
0:00:00.00 81907 N 0 0 0
0:00:00.00 82197 N 0 0 0
0:00:00.00 82463 N 0 0 0
0:00:00.00 82782 N 0 0 0
0:00:00.00 83065 N 0 0 0
0:00:00.00 83389 N 0 0 0
0:00:00.00 83696 N 0 0 0
0:00:00.00 84006 N 0 0 0
0:00:00.00 84267 N 0 0 0
0:00:00.00 84586 N 0 0 0
0:00:00.00 84856 N 0 0 0
0:00:00.00 85153 N 0 0 0
0:00:00.00 85455 N 0 0 0
0:00:00.00 85729 N 0 0 0
0:00:00.00 86065 N 0 0 0
0:00:00.00 86355 N 0 0 0
0:00:00.00 86632 N 0 0 0
0:00:00.00 86947 N 0 0 0
0:00:00.00 87215 N 0 0 0
0:00:00.00 87502 N 0 0 0
0:00:00.00 87826 N 0 0 0
0:00:00.00 88128 N 0 0 0
0:00:00.00 88396 N 0 0 0
0:00:00.00 88717 N 0 0 0
0:00:00.00 89019 N 0 0 0
0:00:00.00 89284 N 0 0 0
0:00:00.00 89593 N 0 0 0
0:00:00.00 89897 N 0 0 0
0:00:00.00 90202 N 0 0 0
0:00:00.00 90515 N 0 0 0
0:00:00.00 90783 N 0 0 0
0:00:00.00 91051 N 0 0 0
0:00:00.00 91379 N 0 0 0
0:00:00.00 91640 N 0 0 0
0:00:00.00 91948 N 0 0 0
0:00:00.00 92248 N 0 0 0
0:00:00.00 92551 N 0 0 0
0:00:00.00 92837 N 0 0 0
0:00:00.00 93103 N 0 0 0
0:00:00.00 93409 N 0 0 0
0:00:00.00 93676 N 0 0 0
0:00:00.00 93964 N 0 0 0
0:00:00.00 94262 N 0 0 0
0:00:00.00 94545 N 0 0 0
0:00:00.00 94855 N 0 0 0
0:00:00.00 95148 N 0 0 0
0:00:00.00 95423 N 0 0 0
0:00:00.00 95702 N 0 0 0
0:00:00.00 95971 N 0 0 0
0:00:00.00 96271 N 0 0 0
0:00:00.00 96570 N 0 0 0
0:00:00.00 96844 N 0 0 0
0:00:00.00 97159 N 0 0 0
0:00:00.00 97454 N 0 0 0
0:00:00.00 97718 N 0 0 0
0:00:00.00 98032 N 0 0 0
0:00:00.00 98303 N 0 0 0
0:00:00.00 98608 N 0 0 0
0:00:00.00 98910 N 0 0 0
0:00:00.00 99198 N 0 0 0
0:00:00.00 99468 N 0 0 0
0:00:00.00 99779 N 0 0 0
0:00:00.00 100069 N 0 0 0
0:00:00.00 100328 N 0 0 0
0:00:00.00 100660 N 0 0 0
0:00:00.00 100971 N 0 0 0
0:00:00.00 101252 N 0 0 0
0:00:00.00 101545 N 0 0 0
0:00:00.00 101830 N 0 0 0
0:00:00.00 102109 N 0 0 0
0:00:00.00 102395 N 0 0 0
0:00:00.00 102690 N 0 0 0
0:00:00.00 102991 N 0 0 0
0:00:00.00 103320 N 0 0 0
0:00:00.00 103586 N 0 0 0
0:00:00.00 103905 N 0 0 0
0:00:00.00 104193 N 0 0 0
0:00:00.00 104479 N 0 0 0
0:00:00.00 104796 N 0 0 0
0:00:00.00 105100 N 0 0 0
0:00:00.00 105388 N 0 0 0
0:00:00.00 105714 N 0 0 0
0:00:00.00 106016 N 0 0 0
0:00:00.00 106283 N 0 0 0
0:00:00.00 106594 N 0 0 0
0:00:00.00 106893 N 0 0 0
0:00:00.00 107194 N 0 0 0
0:00:00.00 107525 N 0 0 0
0:00:00.00 107793 N 0 0 0
0:00:00.00 108092 N 0 0 0
0:00:00.00 108396 N 0 0 0
0:00:00.00 108668 N 0 0 0
0:00:00.00 108974 N 0 0 0
0:00:00.00 109276 N 0 0 0
0:00:00.00 109553 N 0 0 0
0:00:00.00 109877 N 0 0 0
0:00:00.00 110165 N 0 0 0
0:00:00.00 110455 N 0 0 0
0:00:00.00 110738 N 0 0 0
0:00:00.00 110992 N 0 0 0
0:00:00.00 111308 N 0 0 0
0:00:00.00 111607 N 0 0 0
0:00:00.00 111899 N 0 0 0
0:00:00.00 112198 N 0 0 0
0:00:00.00 112487 N 0 0 0
0:00:00.00 112763 N 0 0 0
0:00:00.00 113051 N 0 0 0
0:00:00.00 113337 N 0 0 0
0:00:00.00 113620 N 0 0 0
0:00:00.00 113954 N 0 0 0
0:00:00.00 114235 N 0 0 0
0:00:00.00 114534 N 0 0 0
0:00:00.00 114820 N 0 0 0
0:00:00.00 115112 N 0 0 0
0:00:00.00 115371 N 0 0 0
0:00:00.00 115713 N 0 0 0
0:00:00.00 116042 N 0 0 0
0:00:00.00 116363 N 0 0 0
0:00:00.00 116681 N 0 0 0
0:00:00.00 116995 N 0 0 0
0:00:00.00 117292 N 0 0 0
0:00:00.00 117581 N 0 0 0
0:00:00.00 117896 N 0 0 0
0:00:00.00 118175 N 0 0 0
0:00:00.00 118523 N 0 0 0
0:00:00.00 118843 N 0 0 0
0:00:00.00 119140 N 0 0 0
0:00:00.00 119435 N 0 0 0
0:00:00.00 119731 N 0 0 0
0:00:00.00 120062 N 0 0 0
0:00:00.00 120377 N 0 0 0
0:00:00.00 120685 N 0 0 0
0:00:00.00 120946 N 0 0 0
0:00:00.00 121264 N 0 0 0
0:00:00.00 121572 N 0 0 0
0:00:00.00 121833 N 0 0 0
0:00:00.00 122150 N 0 0 0
0:00:00.00 122454 N 0 0 0
0:00:00.00 122749 N 0 0 0
0:00:00.00 123066 N 0 0 0
0:00:00.00 123365 N 0 0 0
0:00:00.00 123626 N 0 0 0
0:00:00.00 123932 N 0 0 0
0:00:00.00 124205 N 0 0 0
0:00:00.00 124546 N 0 0 0
0:00:00.00 124834 N 0 0 0
0:00:00.00 125158 N 0 0 0
0:00:00.00 125431 N 0 0 0
0:00:00.00 125735 N 0 0 0
0:00:00.00 126007 N 0 0 0
0:00:00.00 126302 N 0 0 0
0:00:00.00 126608 N 0 0 0
0:00:00.00 126893 N 0 0 0
0:00:00.00 127195 N 0 0 0
0:00:00.00 127480 N 0 0 0
0:00:00.00 127746 N 0 0 0
0:00:00.00 128054 N 0 0 0
0:00:00.00 128318 N 0 0 0
0:00:00.00 128615 N 0 0 0
0:00:00.00 128912 N 0 0 0
0:00:00.00 129202 N 0 0 0
0:00:00.00 129492 N 0 0 0
0:00:00.00 129780 N 0 0 0
0:00:00.00 130041 N 0 0 0
0:00:00.00 130352 N 0 0 0
0:00:00.00 130610 N 0 0 0
0:00:00.00 130914 N 0 0 0
0:00:00.00 131215 N 0 0 0
0:00:00.00 131515 N 0 0 0
0:00:00.00 131776 N 0 0 0
0:00:00.00 132095 N 0 0 0
0:00:00.00 132370 N 0 0 0
0:00:00.00 132628 N 0 0 0
0:00:00.00 132959 N 0 0 0
0:00:00.00 133250 N 0 0 0
0:00:00.00 133524 N 0 0 0
0:00:00.00 133844 N 0 0 0
0:00:00.00 134122 N 0 0 0
0:00:00.00 134388 N 0 0 0
0:00:00.00 134701 N 0 0 0
0:00:00.00 134977 N 0 0 0
0:00:00.00 135275 N 0 0 0
0:00:00.00 135567 N 0 0 0
0:00:00.00 135860 N 0 0 0
0:00:00.00 136154 N 0 0 0
0:00:00.00 136442 N 0 0 0
0:00:00.00 136737 N 0 0 0
0:00:00.00 136998 N 0 0 0
0:00:00.00 137300 N 0 0 0
0:00:00.00 137592 N 0 0 0
0:00:00.00 137876 N 0 0 0
0:00:00.00 138188 N 0 0 0
0:00:00.00 138461 N 0 0 0
0:00:00.00 138735 N 0 0 0
0:00:00.00 139050 N 0 0 0
0:00:00.00 139309 N 0 0 0
0:00:00.00 139649 N 0 0 0
0:00:00.00 139930 N 0 0 0
0:00:00.00 140222 N 0 0 0
0:00:00.00 140508 N 0 0 0
0:00:00.00 140794 N 0 0 0
0:00:00.00 141066 N 0 0 0
0:00:00.00 141336 N 0 0 0
0:00:00.00 141669 N 0 0 0
0:00:00.00 141979 N 0 0 0
0:00:00.00 142258 N 0 0 0
0:00:00.00 142576 N 0 0 0
0:00:00.00 142870 N 0 0 0
0:00:00.00 143132 N 0 0 0
0:00:00.00 143431 N 0 0 0
0:00:00.00 143732 N 0 0 0
0:00:00.00 144050 N 0 0 0
0:00:00.00 144329 N 0 0 0
0:00:00.00 144648 N 0 0 0
0:00:00.00 144936 N 0 0 0
0:00:00.00 145219 N 0 0 0
0:00:00.00 145492 N 0 0 0
0:00:00.00 145813 N 0 0 0
0:00:00.00 146104 N 0 0 0
0:00:00.00 146405 N 0 0 0
0:00:00.00 146718 N 0 0 0
0:00:00.00 146997 N 0 0 0
0:00:00.00 147289 N 0 0 0
0:00:00.00 147587 N 0 0 0
0:00:00.00 147843 N 0 0 0
0:00:00.00 148162 N 0 0 0
0:00:00.00 148489 N 0 0 0
0:00:00.00 148790 N 0 0 0
0:00:00.00 149062 N 0 0 0
0:00:00.00 149373 N 0 0 0
0:00:00.00 149656 N 0 0 0
0:00:00.00 149913 N 0 0 0
0:00:00.00 150244 N 0 0 0
0:00:00.00 150525 N 0 0 0
0:00:00.00 150856 N 0 0 0
0:00:00.00 151135 N 0 0 0
0:00:00.00 151425 N 0 0 0
0:00:00.00 151713 N 0 0 0
0:00:00.00 151979 N 0 0 0
0:00:00.00 152312 N 0 0 0
0:00:00.00 152638 N 0 0 0
0:00:00.00 152950 N 0 0 0
0:00:00.00 153254 N 0 0 0
0:00:00.00 153562 N 0 0 0
0:00:00.00 153862 N 0 0 0
0:00:00.00 154174 N 0 0 0
0:00:00.00 154481 N 0 0 0
0:00:00.00 154789 N 0 0 0
0:00:00.00 155110 N 0 0 0
0:00:00.00 155383 N 0 0 0
0:00:00.00 155720 N 0 0 0
0:00:00.00 156038 N 0 0 0
0:00:00.00 156343 N 0 0 0
0:00:00.00 156661 N 0 0 0
0:00:00.00 156973 N 0 0 0
0:00:00.00 157306 N 0 0 0
0:00:00.00 157608 N 0 0 0
0:00:00.00 157900 N 0 0 0
0:00:00.00 158195 N 0 0 0
0:00:00.00 158459 N 0 0 0
0:00:00.00 158767 N 0 0 0
0:00:00.00 159115 N 0 0 0
0:00:00.00 159428 N 0 0 0
0:00:00.00 159728 N 0 0 0
0:00:00.00 160000 N 0 0 0
0:00:00.00 160315 N 0 0 0
0:00:00.00 160580 N 0 0 0
0:00:00.00 160891 N 0 0 0
0:00:00.00 161181 N 0 0 0
0:00:00.00 161516 N 0 0 0
0:00:00.00 161793 N 0 0 0
0:00:00.00 162104 N 0 0 0
0:00:00.00 162382 N 0 0 0
0:00:00.00 162666 N 0 0 0
0:00:00.00 162952 N 0 0 0
0:00:00.00 163233 N 0 0 0
0:00:00.00 163568 N 0 0 0
0:00:00.00 163850 N 0 0 0
0:00:00.00 164126 N 0 0 0
0:00:00.00 164443 N 0 0 0
0:00:00.00 164731 N 0 0 0
0:00:00.00 165026 N 0 0 0
0:00:00.00 165312 N 0 0 0
0:00:00.00 165620 N 0 0 0
0:00:00.00 165908 N 0 0 0
0:00:00.00 166226 N 0 0 0
0:00:00.00 166498 N 0 0 0
0:00:00.00 166829 N 0 0 0
0:00:00.00 167089 N 0 0 0
0:00:00.00 167407 N 0 0 0
0:00:00.00 167693 N 0 0 0
0:00:00.00 168052 N 0 0 0
0:00:00.00 168372 N 0 0 0
0:00:00.00 168653 N 0 0 0
0:00:00.00 168948 N 0 0 0
0:00:00.00 169211 N 0 0 0
0:00:00.00 169540 N 0 0 0
0:00:00.00 169828 N 0 0 0
0:00:00.00 170159 N 0 0 0
0:00:00.00 170449 N 0 0 0
0:00:00.00 170748 N 0 0 0
0:00:00.00 171036 N 0 0 0
0:00:00.00 171344 N 0 0 0
0:00:00.00 171612 N 0 0 0
0:00:00.00 171909 N 0 0 0
0:00:00.00 172235 N 0 0 0
0:00:00.00 172507 N 0 0 0
0:00:00.00 172832 N 0 0 0
0:00:00.00 173102 N 0 0 0
0:00:00.00 173396 N 0 0 0
0:00:00.00 173682 N 0 0 0
0:00:00.00 173957 N 0 0 0
0:00:00.00 174283 N 0 0 0
0:00:00.00 174587 N 0 0 0
0:00:00.00 174859 N 0 0 0
0:00:00.00 175158 N 0 0 0
0:00:00.00 175441 N 0 0 0
0:00:00.00 175696 N 0 0 0
0:00:00.00 176008 N 0 0 0
0:00:00.00 176297 N 0 0 0
0:00:00.00 176594 N 0 0 0
0:00:00.00 176877 N 0 0 0
0:00:00.00 177154 N 0 0 0
0:00:00.00 177446 N 0 0 0
0:00:00.00 177703 N 0 0 0
0:00:00.00 177986 N 0 0 0
0:00:00.00 178272 N 0 0 0
0:00:00.00 178567 N 0 0 0
0:00:00.00 178873 N 0 0 0
0:00:00.00 179163 N 0 0 0
0:00:00.00 179437 N 0 0 0
0:00:00.00 179746 N 0 0 0
0:00:00.00 180014 N 0 0 0
0:00:00.00 180277 N 0 0 0
0:00:00.00 180617 N 0 0 0
0:00:00.00 180893 N 0 0 0
0:00:00.00 181208 N 0 0 0
0:00:00.00 181471 N 0 0 0
0:00:00.00 181793 N 0 0 0
0:00:00.00 182056 N 0 0 0
0:00:00.00 182335 N 0 0 0
0:00:00.00 182633 N 0 0 0
0:00:00.00 182943 N 0 0 0
0:00:00.00 183217 N 0 0 0
0:00:00.00 183533 N 0 0 0
0:00:00.00 183812 N 0 0 0
0:00:00.00 184095 N 0 0 0
0:00:00.00 184378 N 0 0 0
0:00:00.00 184660 N 0 0 0
0:00:00.00 184937 N 0 0 0
0:00:00.00 185265 N 0 0 0
0:00:00.00 185540 N 0 0 0
0:00:00.00 185843 N 0 0 0
0:00:00.00 186125 N 0 0 0
0:00:00.00 186367 N 0 0 0
0:00:00.00 186676 N 0 0 0
0:00:00.00 186975 N 0 0 0
0:00:00.00 187272 N 0 0 0
0:00:00.00 187562 N 0 0 0
0:00:00.00 187877 N 0 0 0
0:00:00.00 188152 N 0 0 0
0:00:00.00 188433 N 0 0 0
0:00:00.00 188726 N 0 0 0
0:00:00.00 188996 N 0 0 0
0:00:00.00 189326 N 0 0 0
0:00:00.00 189608 N 0 0 0
0:00:00.00 189891 N 0 0 0
0:00:00.00 190188 N 0 0 0
0:00:00.00 190483 N 0 0 0
0:00:00.00 190739 N 0 0 0
0:00:00.00 191043 N 0 0 0
0:00:00.00 191381 N 0 0 0
0:00:00.00 191696 N 0 0 0
0:00:00.00 192002 N 0 0 0
0:00:00.00 192143 N 0 0 0
0:00:00.00 192548 N 0 0 0
0:00:00.00 192789 N 0 0 0
0:00:00.00 193207 N 0 0 0
0:00:00.00 193567 N 0 0 0
0:00:00.00 193718 N 0 0 0
0:00:00.00 194137 N 0 0 0
0:00:00.00 194306 N 0 0 0
0:00:00.00 194656 N 0 0 0
0:00:00.00 194821 N 0 0 0
0:00:00.00 195190 N 0 0 0
0:00:00.00 195358 N 0 0 0
0:00:00.00 195716 N 0 0 0
0:00:00.00 195885 N 0 0 0
0:00:00.00 196087 N 0 0 0
0:00:00.00 196258 N 0 0 0
0:00:00.00 196445 N 0 0 0
0:00:00.00 196628 N 0 0 0
0:00:00.00 196825 N 0 0 0
0:00:00.00 196974 N 0 0 0
0:00:00.00 197356 N 0 0 0
0:00:00.00 197752 N 0 0 0
0:00:00.00 198157 N 0 0 0
0:00:00.00 198542 N 0 0 0
0:00:00.00 198916 N 0 0 0
0:00:00.00 199287 N 0 0 0
0:00:00.00 199640 N 0 0 0
0:00:00.00 199946 N 0 0 0
0:00:00.00 200246 N 0 0 0
0:00:00.00 200558 N 0 0 0
0:00:00.00 200821 N 0 0 0
0:00:00.00 201123 N 0 0 0
0:00:00.00 201382 N 0 0 0
0:00:00.00 201553 N 0 0 0
0:00:00.00 201983 N 0 0 0
0:00:00.00 202345 N 0 0 0
0:00:00.00 202700 N 0 0 0
0:00:00.00 203018 N 0 0 0
0:00:00.00 203332 N 0 0 0
0:00:00.00 203591 N 0 0 0
0:00:00.00 203872 N 0 0 0
0:00:00.00 204134 N 0 0 0
0:00:00.00 204628 N 0 0 0
0:00:00.00 204822 N 0 0 0
0:00:00.00 205198 N 0 0 0
0:00:00.00 205367 N 0 0 0
0:00:00.00 205700 N 0 0 0
0:00:00.00 205866 N 0 0 0
0:00:00.00 206060 N 0 0 0
0:00:00.00 206226 N 0 0 0
0:00:00.00 206528 N 0 0 0
0:00:00.00 206698 N 0 0 0
0:00:00.00 206822 N 0 0 0
0:00:00.00 206995 N 0 0 0
0:00:00.00 207182 N 0 0 0
0:00:00.00 207410 N 0 0 0
0:00:00.00 207619 N 0 0 0
0:00:00.00 207796 N 0 0 0
0:00:00.00 207977 N 0 0 0
0:00:00.00 208159 N 0 0 0
0:00:00.00 208346 N 0 0 0
0:00:00.00 208514 N 0 0 0
0:00:00.00 208712 N 0 0 0
0:00:00.00 208908 N 0 0 0
0:00:00.00 209090 N 0 0 0
0:00:00.00 209421 N 0 0 0
0:00:00.00 209617 N 0 0 0
0:00:00.00 209774 N 0 0 0
0:00:00.00 209938 N 0 0 0
0:00:00.00 210116 N 0 0 0
0:00:00.00 210458 N 0 0 0
0:00:00.00 210852 N 0 0 0
0:00:00.00 211268 N 0 0 0
0:00:00.00 211714 N 0 0 0
0:00:00.00 212164 N 0 0 0
0:00:00.00 212522 N 0 0 0
0:00:00.00 212854 N 0 0 0
0:00:00.00 213226 N 0 0 0
0:00:00.00 213530 N 0 0 0
0:00:00.00 213820 N 0 0 0
0:00:00.00 214123 N 0 0 0
0:00:00.00 214421 N 0 0 0
0:00:00.00 214697 N 0 0 0
0:00:00.00 215012 N 0 0 0
0:00:00.00 215293 N 0 0 0
0:00:00.00 215617 N 0 0 0
0:00:00.00 215899 N 0 0 0
0:00:00.00 216214 N 0 0 0
0:00:00.00 216481 N 0 0 0
0:00:00.00 216745 N 0 0 0
0:00:00.00 217075 N 0 0 0
0:00:00.00 217382 N 0 0 0
0:00:00.00 217692 N 0 0 0
0:00:00.00 217975 N 0 0 0
0:00:00.00 218281 N 0 0 0
0:00:00.00 218583 N 0 0 0
0:00:00.00 218846 N 0 0 0
0:00:00.00 219155 N 0 0 0
0:00:00.00 219458 N 0 0 0
0:00:00.00 219748 N 0 0 0
0:00:00.00 220072 N 0 0 0
0:00:00.00 220228 N 0 0 0
0:00:00.00 220617 N 0 0 0
0:00:00.00 220851 N 0 0 0
0:00:00.00 221227 N 0 0 0
0:00:00.00 221497 N 0 0 0
0:00:00.00 221836 N 0 0 0
0:00:00.00 222010 N 0 0 0
0:00:00.00 222394 N 0 0 0
0:00:00.00 222793 N 0 0 0
0:00:00.00 222953 N 0 0 0
0:00:00.00 223337 N 0 0 0
0:00:00.00 223517 N 0 0 0
0:00:00.00 223927 N 0 0 0
0:00:00.00 224116 N 0 0 0
0:00:00.00 224464 N 0 0 0
0:00:00.00 224629 N 0 0 0
0:00:00.00 225007 N 0 0 0
0:00:00.00 225180 N 0 0 0
0:00:00.00 225365 N 0 0 0
0:00:00.00 225576 N 0 0 0
0:00:00.00 225740 N 0 0 0
0:00:00.00 225907 N 0 0 0
0:00:00.00 226064 N 0 0 0
0:00:00.00 226204 N 0 0 0
0:00:00.00 226418 N 0 0 0
0:00:00.00 226618 N 0 0 0
0:00:00.00 226766 N 0 0 0
0:00:00.00 226933 N 0 0 0
0:00:00.00 227102 N 0 0 0
0:00:00.00 227306 N 0 0 0
0:00:00.00 227488 N 0 0 0
0:00:00.00 227641 N 0 0 0
0:00:00.00 227851 N 0 0 0
0:00:00.00 228038 N 0 0 0
0:00:00.00 228290 N 0 0 0
0:00:00.00 228523 N 0 0 0
0:00:00.00 228730 N 0 0 0
0:00:00.00 229037 N 0 0 0
0:00:00.00 229210 N 0 0 0
0:00:00.00 229396 N 0 0 0
0:00:00.00 229601 N 0 0 0
0:00:00.00 229874 N 0 0 0
0:00:00.00 230296 N 0 0 0
0:00:00.00 230684 N 0 0 0
0:00:00.00 231102 N 0 0 0
0:00:00.00 231516 N 0 0 0
0:00:00.00 231898 N 0 0 0
0:00:00.00 232288 N 0 0 0
0:00:00.00 232679 N 0 0 0
0:00:00.00 233046 N 0 0 0
0:00:00.00 233357 N 0 0 0
0:00:00.00 233644 N 0 0 0
0:00:00.00 233919 N 0 0 0
0:00:00.00 234187 N 0 0 0
0:00:00.00 234472 N 0 0 0
0:00:00.00 234785 N 0 0 0
0:00:00.00 235069 N 0 0 0
0:00:00.00 235341 N 0 0 0
0:00:00.00 235633 N 0 0 0
0:00:00.00 235888 N 0 0 0
0:00:00.00 236194 N 0 0 0
0:00:00.00 236457 N 0 0 0
0:00:00.00 236750 N 0 0 0
0:00:00.00 237062 N 0 0 0
0:00:00.00 237337 N 0 0 0
0:00:00.00 237625 N 0 0 0
0:00:00.00 237919 N 0 0 0
0:00:00.00 238194 N 0 0 0
0:00:00.00 238460 N 0 0 0
0:00:00.00 238759 N 0 0 0
0:00:00.00 239062 N 0 0 0
0:00:00.00 239350 N 0 0 0
0:00:00.00 239661 N 0 0 0
0:00:00.00 239947 N 0 0 0
0:00:00.00 240224 N 0 0 0
0:00:00.00 240500 N 0 0 0
0:00:00.00 240768 N 0 0 0
0:00:00.00 241079 N 0 0 0
0:00:00.00 241384 N 0 0 0
0:00:00.00 241652 N 0 0 0
0:00:00.00 241963 N 0 0 0
0:00:00.00 242242 N 0 0 0
0:00:00.00 242496 N 0 0 0
0:00:00.00 242797 N 0 0 0
0:00:00.00 242942 N 0 0 0
0:00:00.00 243353 N 0 0 0
0:00:00.00 243529 N 0 0 0
0:00:00.00 243857 N 0 0 0
0:00:00.00 244024 N 0 0 0
0:00:00.00 244390 N 0 0 0
0:00:00.00 244618 N 0 0 0
0:00:00.00 244960 N 0 0 0
0:00:00.00 245129 N 0 0 0
0:00:00.00 245489 N 0 0 0
0:00:00.00 245659 N 0 0 0
0:00:00.00 246029 N 0 0 0
0:00:00.00 246281 N 0 0 0
0:00:00.00 246658 N 0 0 0
0:00:00.00 246818 N 0 0 0
0:00:00.00 247165 N 0 0 0
0:00:00.00 247340 N 0 0 0
0:00:00.00 247729 N 0 0 0
0:00:00.00 248024 N 0 0 0
0:00:00.00 248177 N 0 0 0
0:00:00.00 248567 N 0 0 0
0:00:00.00 248873 N 0 0 0
0:00:00.00 249037 N 0 0 0
0:00:00.00 249406 N 0 0 0
0:00:00.00 249658 N 0 0 0
0:00:00.00 249822 N 0 0 0
0:00:00.00 250234 N 0 0 0
0:00:00.00 250409 N 0 0 0
0:00:00.00 250601 N 0 0 0
0:00:00.00 250843 N 0 0 0
0:00:00.00 251017 N 0 0 0
0:00:00.00 251199 N 0 0 0
0:00:00.00 251370 N 0 0 0
0:00:00.00 251532 N 0 0 0
0:00:00.00 251847 N 0 0 0
0:00:00.00 251993 N 0 0 0
0:00:00.00 252214 N 0 0 0
0:00:00.00 252394 N 0 0 0
0:00:00.00 252581 N 0 0 0
0:00:00.00 252761 N 0 0 0
0:00:00.00 252931 N 0 0 0
0:00:00.00 253089 N 0 0 0
0:00:00.00 253242 N 0 0 0
0:00:00.00 253420 N 0 0 0
0:00:00.00 253602 N 0 0 0
0:00:00.00 253994 N 0 0 0
0:00:00.00 254374 N 0 0 0
0:00:00.00 254830 N 0 0 0
0:00:00.00 255289 N 0 0 0
0:00:00.00 255726 N 0 0 0
0:00:00.00 256145 N 0 0 0
0:00:00.00 256477 N 0 0 0
0:00:00.00 256631 N 0 0 0
0:00:00.00 257060 N 0 0 0
0:00:00.00 257229 N 0 0 0
0:00:00.00 257627 N 0 0 0
0:00:00.00 257794 N 0 0 0
0:00:00.00 257971 N 0 0 0
0:00:00.00 258161 N 0 0 0
0:00:00.00 258566 N 0 0 0
0:00:00.00 258743 N 0 0 0
0:00:00.00 259177 N 0 0 0
0:00:00.00 259349 N 0 0 0
0:00:00.00 259598 N 0 0 0
0:00:00.00 259749 N 0 0 0
0:00:00.00 259940 N 0 0 0
0:00:00.00 260156 N 0 0 0
0:00:00.00 260435 N 0 0 0
0:00:00.00 260687 N 0 0 0
0:00:00.00 260914 N 0 0 0
0:00:00.00 261104 N 0 0 0
0:00:00.00 261279 N 0 0 0
0:00:00.00 261491 N 0 0 0
0:00:00.00 261722 N 0 0 0
0:00:00.00 261877 N 0 0 0
0:00:00.00 262080 N 0 0 0
0:00:00.00 262244 N 0 0 0
0:00:00.00 262411 N 0 0 0
0:00:00.00 262606 N 0 0 0
0:00:00.00 262791 N 0 0 0
0:00:00.00 262969 N 0 0 0
0:00:00.00 263158 N 0 0 0
0:00:00.00 263331 N 0 0 0
0:00:00.00 263502 N 0 0 0
0:00:00.00 263682 N 0 0 0
0:00:00.00 263835 N 0 0 0
0:00:00.00 264019 N 0 0 0
0:00:00.00 264202 N 0 0 0
0:00:00.00 264379 N 0 0 0
0:00:00.00 264690 N 0 0 0
0:00:00.00 264881 N 0 0 0
0:00:00.00 265145 N 0 0 0
0:00:00.00 265372 N 0 0 0
0:00:00.00 265563 N 0 0 0
0:00:00.00 265948 N 0 0 0
0:00:00.00 266355 N 0 0 0
0:00:00.00 266807 N 0 0 0
0:00:00.00 267255 N 0 0 0
0:00:00.00 267431 N 0 0 0
0:00:00.00 267833 N 0 0 0
0:00:00.00 268247 N 0 0 0
0:00:00.00 268632 N 0 0 0
0:00:00.00 269017 N 0 0 0
0:00:00.00 269190 N 0 0 0
0:00:00.00 269568 N 0 0 0
0:00:00.00 269932 N 0 0 0
0:00:00.00 270284 N 0 0 0
0:00:00.00 270441 N 0 0 0
0:00:00.00 270760 N 0 0 0
0:00:00.00 270958 N 0 0 0
0:00:00.00 271105 N 0 0 0
0:00:00.00 271462 N 0 0 0
0:00:00.00 271631 N 0 0 0
0:00:00.00 271775 N 0 0 0
0:00:00.00 271904 N 0 0 0
0:00:00.00 272043 N 0 0 0
0:00:00.00 272221 N 0 0 0
0:00:00.00 272407 N 0 0 0
0:00:00.00 272542 N 0 0 0
0:00:00.00 272689 N 0 0 0
0:00:00.00 272844 N 0 0 0
0:00:00.00 273006 N 0 0 0
0:00:00.00 273182 N 0 0 0
0:00:00.00 273380 N 0 0 0
0:00:00.00 273548 N 0 0 0
0:00:00.00 273996 N 0 0 0
0:00:00.00 274333 N 0 0 0
0:00:00.00 274723 N 0 0 0
0:00:00.00 275150 N 0 0 0
0:00:00.00 275589 N 0 0 0
0:00:00.00 276019 N 0 0 0
0:00:00.00 276210 N 0 0 0
0:00:00.00 276500 N 0 0 0
0:00:00.00 276647 N 0 0 0
0:00:00.00 277034 N 0 0 0
0:00:00.00 277409 N 0 0 0
0:00:00.00 277587 N 0 0 0
0:00:00.00 277994 N 0 0 0
0:00:00.00 278174 N 0 0 0
0:00:00.00 278318 N 0 0 0
0:00:00.00 278444 N 0 0 0
0:00:00.00 278595 N 0 0 0
0:00:00.00 278732 N 0 0 0
0:00:00.00 278863 N 0 0 0
0:00:00.00 279004 N 0 0 0
0:00:00.00 279151 N 0 0 0
0:00:00.00 279518 N 0 0 0
0:00:00.00 279911 N 0 0 0
0:00:00.00 280292 N 0 0 0
0:00:00.00 280660 N 0 0 0
0:00:00.00 280985 N 0 0 0
0:00:00.00 281279 N 0 0 0
0:00:00.00 281552 N 0 0 0
0:00:00.00 281837 N 0 0 0
0:00:00.00 282134 N 0 0 0
0:00:00.00 282436 N 0 0 0
0:00:00.00 282721 N 0 0 0
0:00:00.00 283023 N 0 0 0
0:00:00.00 283297 N 0 0 0
0:00:00.00 283577 N 0 0 0
0:00:00.00 283864 N 0 0 0
0:00:00.00 284153 N 0 0 0
0:00:00.00 284467 N 0 0 0
0:00:00.00 284776 N 0 0 0
0:00:00.00 285044 N 0 0 0
0:00:00.00 285361 N 0 0 0
0:00:00.00 285520 N 0 0 0
0:00:00.00 285923 N 0 0 0
0:00:00.00 286088 N 0 0 0
0:00:00.00 286378 N 0 0 0
0:00:00.00 286844 N 0 0 0
0:00:00.00 287028 N 0 0 0
0:00:00.00 287518 N 0 0 0
0:00:00.00 287764 N 0 0 0
0:00:00.00 288061 N 0 0 0
0:00:00.00 288511 N 0 0 0
0:00:00.00 288700 N 0 0 0
0:00:00.00 288952 N 0 0 0
0:00:00.00 289109 N 0 0 0
0:00:00.00 289312 N 0 0 0
0:00:00.00 289548 N 0 0 0
0:00:00.00 289764 N 0 0 0
0:00:00.00 289937 N 0 0 0
0:00:00.00 290108 N 0 0 0
0:00:00.00 290327 N 0 0 0
0:00:00.00 290516 N 0 0 0
0:00:00.00 290695 N 0 0 0
0:00:00.00 291085 N 0 0 0
0:00:00.00 291458 N 0 0 0
0:00:00.00 291816 N 0 0 0
0:00:00.00 292163 N 0 0 0
0:00:00.00 292498 N 0 0 0
0:00:00.00 292847 N 0 0 0
0:00:00.00 293197 N 0 0 0
0:00:00.00 293495 N 0 0 0
0:00:00.00 293783 N 0 0 0
0:00:00.00 294068 N 0 0 0
0:00:00.00 294363 N 0 0 0
0:00:00.00 294628 N 0 0 0
0:00:00.00 294925 N 0 0 0
0:00:00.00 295256 N 0 0 0
0:00:00.00 295544 N 0 0 0
0:00:00.00 295841 N 0 0 0
0:00:00.00 296134 N 0 0 0
0:00:00.00 296426 N 0 0 0
0:00:00.00 296708 N 0 0 0
0:00:00.00 297032 N 0 0 0
0:00:00.00 297346 N 0 0 0
0:00:00.00 297639 N 0 0 0
0:00:00.00 297968 N 0 0 0
0:00:00.00 298130 N 0 0 0
0:00:00.00 298377 N 0 0 0
0:00:00.00 298525 N 0 0 0
0:00:00.00 298694 N 0 0 0
0:00:00.00 298874 N 0 0 0
0:00:00.00 299034 N 0 0 0
0:00:00.00 299201 N 0 0 0
0:00:00.00 299365 N 0 0 0
0:00:00.00 299561 N 0 0 0
0:00:00.00 300004 N 0 0 0
0:00:00.00 300370 N 0 0 0
0:00:00.00 300757 N 0 0 0
0:00:00.00 301124 N 0 0 0
0:00:00.00 301516 N 0 0 0
0:00:00.00 301900 N 0 0 0
0:00:00.00 302069 N 0 0 0
0:00:00.00 302413 N 0 0 0
0:00:00.00 302603 N 0 0 0
0:00:00.00 302855 N 0 0 0
0:00:00.00 303197 N 0 0 0
0:00:00.00 303550 N 0 0 0
0:00:00.00 303905 N 0 0 0
0:00:00.00 304105 N 0 0 0
0:00:00.00 304222 N 0 0 0
0:00:00.00 304443 N 0 0 0
0:00:00.00 304612 N 0 0 0
0:00:00.00 304781 N 0 0 0
0:00:00.00 305141 N 0 0 0
0:00:00.00 305494 N 0 0 0
0:00:00.00 305834 N 0 0 0
0:00:00.00 306146 N 0 0 0
0:00:00.00 306448 N 0 0 0
0:00:00.00 306725 N 0 0 0
0:00:00.00 307010 N 0 0 0
0:00:00.00 307285 N 0 0 0
0:00:00.00 307552 N 0 0 0
0:00:00.00 307829 N 0 0 0
0:00:00.00 308140 N 0 0 0
0:00:00.00 308435 N 0 0 0
0:00:00.00 308700 N 0 0 0
0:00:00.00 309010 N 0 0 0
0:00:00.00 309287 N 0 0 0
0:00:00.00 309550 N 0 0 0
0:00:00.00 309870 N 0 0 0
0:00:00.00 310041 N 0 0 0
0:00:00.00 310457 N 0 0 0
0:00:00.00 310633 N 0 0 0
0:00:00.00 310788 N 0 0 0
0:00:00.00 311114 N 0 0 0
0:00:00.00 311276 N 0 0 0
0:00:00.00 311495 N 0 0 0
0:00:00.00 311701 N 0 0 0
0:00:00.00 312014 N 0 0 0
0:00:00.00 312179 N 0 0 0
0:00:00.00 312412 N 0 0 0
0:00:00.00 312593 N 0 0 0
0:00:00.00 312755 N 0 0 0
0:00:00.00 312926 N 0 0 0
0:00:00.00 313085 N 0 0 0
0:00:00.00 313256 N 0 0 0
0:00:00.00 313636 N 0 0 0
0:00:00.00 313960 N 0 0 0
0:00:00.00 314384 N 0 0 0
0:00:00.00 314842 N 0 0 0
0:00:00.00 315013 N 0 0 0
0:00:00.00 315470 N 0 0 0
0:00:00.00 315675 N 0 0 0
0:00:00.00 315871 N 0 0 0
0:00:00.00 316276 N 0 0 0
0:00:00.00 316469 N 0 0 0
0:00:00.00 316723 N 0 0 0
0:00:00.00 316883 N 0 0 0
0:00:00.00 317106 N 0 0 0
0:00:00.00 317259 N 0 0 0
0:00:00.00 317432 N 0 0 0
0:00:00.00 317578 N 0 0 0
0:00:00.00 317718 N 0 0 0
0:00:00.00 317864 N 0 0 0
0:00:00.00 318128 N 0 0 0
0:00:00.00 318272 N 0 0 0
0:00:00.00 318492 N 0 0 0
0:00:00.00 318704 N 0 0 0
0:00:00.00 318951 N 0 0 0
0:00:00.00 319396 N 0 0 0
0:00:00.00 319804 N 0 0 0
0:00:00.00 320173 N 0 0 0
0:00:00.00 320528 N 0 0 0
0:00:00.00 320686 N 0 0 0
0:00:00.00 321071 N 0 0 0
0:00:00.00 321431 N 0 0 0
0:00:00.00 321759 N 0 0 0
0:00:00.00 322083 N 0 0 0
0:00:00.00 322416 N 0 0 0
0:00:00.00 322688 N 0 0 0
0:00:00.00 322999 N 0 0 0
0:00:00.00 323282 N 0 0 0
0:00:00.00 323559 N 0 0 0
0:00:00.00 323858 N 0 0 0
0:00:00.00 324144 N 0 0 0
0:00:00.00 324401 N 0 0 0
0:00:00.00 324677 N 0 0 0
0:00:00.00 324952 N 0 0 0
0:00:00.00 325220 N 0 0 0
0:00:00.00 325544 N 0 0 0
0:00:00.00 325723 N 0 0 0
0:00:00.00 326117 N 0 0 0
0:00:00.00 326293 N 0 0 0
0:00:00.00 326531 N 0 0 0
0:00:00.00 326848 N 0 0 0
0:00:00.00 327001 N 0 0 0
0:00:00.00 327240 N 0 0 0
0:00:00.00 327402 N 0 0 0
0:00:00.00 327546 N 0 0 0
0:00:00.00 327688 N 0 0 0
0:00:00.00 327949 N 0 0 0
0:00:00.00 328306 N 0 0 0
0:00:00.00 328664 N 0 0 0
0:00:00.00 328975 N 0 0 0
0:00:00.00 329292 N 0 0 0
0:00:00.00 329603 N 0 0 0
0:00:00.00 329958 N 0 0 0
0:00:00.00 330264 N 0 0 0
0:00:00.00 330575 N 0 0 0
0:00:00.00 330881 N 0 0 0
0:00:00.00 331178 N 0 0 0
0:00:00.00 331479 N 0 0 0
0:00:00.00 331754 N 0 0 0
0:00:00.00 331927 N 0 0 0
0:00:00.00 332334 N 0 0 0
0:00:00.00 332712 N 0 0 0
0:00:00.00 332872 N 0 0 0
0:00:00.00 333119 N 0 0 0
0:00:00.00 333279 N 0 0 0
0:00:00.00 333416 N 0 0 0
0:00:00.00 333607 N 0 0 0
0:00:00.00 333754 N 0 0 0
0:00:00.00 333965 N 0 0 0
0:00:00.00 334141 N 0 0 0
0:00:00.00 334318 N 0 0 0
0:00:00.00 334483 N 0 0 0
0:00:00.00 334710 N 0 0 0
0:00:00.00 334850 N 0 0 0
0:00:00.00 335122 N 0 0 0
0:00:00.00 335315 N 0 0 0
0:00:00.00 335522 N 0 0 0
0:00:00.00 335795 N 0 0 0
0:00:00.00 335975 N 0 0 0
0:00:00.00 336150 N 0 0 0
0:00:00.00 336461 N 0 0 0
0:00:00.00 336670 N 0 0 0
0:00:00.00 336892 N 0 0 0
0:00:00.00 337093 N 0 0 0
0:00:00.00 337457 N 0 0 0
0:00:00.00 337815 N 0 0 0
0:00:00.00 338198 N 0 0 0
0:00:00.00 338647 N 0 0 0
0:00:00.00 339052 N 0 0 0
0:00:00.00 339433 N 0 0 0
0:00:00.00 339806 N 0 0 0
0:00:00.00 340166 N 0 0 0
0:00:00.00 340468 N 0 0 0
0:00:00.00 340771 N 0 0 0
0:00:00.00 341050 N 0 0 0
0:00:00.00 341379 N 0 0 0
0:00:00.00 341658 N 0 0 0
0:00:00.00 341942 N 0 0 0
0:00:00.00 342223 N 0 0 0
0:00:00.00 342517 N 0 0 0
0:00:00.00 342805 N 0 0 0
0:00:00.00 343244 N 0 0 0
0:00:00.00 343658 N 0 0 0
0:00:00.00 344047 N 0 0 0
0:00:00.00 344209 N 0 0 0
0:00:00.00 344612 N 0 0 0
0:00:00.00 344790 N 0 0 0
0:00:00.00 344927 N 0 0 0
0:00:00.00 345143 N 0 0 0
0:00:00.00 345310 N 0 0 0
0:00:00.00 345496 N 0 0 0
0:00:00.00 345658 N 0 0 0
0:00:00.00 345816 N 0 0 0
0:00:00.00 345980 N 0 0 0
0:00:00.00 346135 N 0 0 0
0:00:00.00 346297 N 0 0 0
0:00:00.00 346475 N 0 0 0
0:00:00.00 346718 N 0 0 0
0:00:00.00 346898 N 0 0 0
0:00:00.00 347391 N 0 0 0
0:00:00.00 347791 N 0 0 0
0:00:00.00 348203 N 0 0 0
0:00:00.00 348638 N 0 0 0
0:00:00.00 348809 N 0 0 0
0:00:00.00 349056 N 0 0 0
0:00:00.00 349268 N 0 0 0
0:00:00.00 349452 N 0 0 0
0:00:00.00 349628 N 0 0 0
0:00:00.00 349891 N 0 0 0
0:00:00.00 350230 N 0 0 0
0:00:00.00 350422 N 0 0 0
0:00:00.00 350615 N 0 0 0
0:00:00.00 350824 N 0 0 0
0:00:00.00 350978 N 0 0 0
0:00:00.00 351209 N 0 0 0
0:00:00.00 351405 N 0 0 0
0:00:00.00 351617 N 0 0 0
0:00:00.00 351842 N 0 0 0
0:00:00.00 352010 N 0 0 0
0:00:00.00 352231 N 0 0 0
0:00:00.00 352408 N 0 0 0
0:00:00.00 352615 N 0 0 0
0:00:00.00 352827 N 0 0 0
0:00:00.00 353054 N 0 0 0
0:00:00.00 353293 N 0 0 0
0:00:00.00 353448 N 0 0 0
0:00:00.00 353633 N 0 0 0
0:00:00.00 353871 N 0 0 0
0:00:00.00 354056 N 0 0 0
0:00:00.00 354276 N 0 0 0
0:00:00.00 354535 N 0 0 0
0:00:00.00 354708 N 0 0 0
0:00:00.00 354913 N 0 0 0
0:00:00.00 355064 N 0 0 0
0:00:00.00 355316 N 0 0 0
0:00:00.00 355750 N 0 0 0
0:00:00.00 356006 N 0 0 0
0:00:00.00 356213 N 0 0 0
0:00:00.00 356398 N 0 0 0
0:00:00.00 356686 N 0 0 0
0:00:00.00 356976 N 0 0 0
0:00:00.00 357170 N 0 0 0
0:00:00.00 357422 N 0 0 0
0:00:00.00 357624 N 0 0 0
0:00:00.00 357926 N 0 0 0
0:00:00.00 358189 N 0 0 0
0:00:00.00 358423 N 0 0 0
0:00:00.00 358697 N 0 0 0
0:00:00.00 358897 N 0 0 0
0:00:00.00 359123 N 0 0 0
0:00:00.00 359357 N 0 0 0
0:00:00.00 359617 N 0 0 0
0:00:00.00 359816 N 0 0 0
0:00:00.00 360018 N 0 0 0
0:00:00.00 360326 N 0 0 0
0:00:00.00 360560 N 0 0 0
0:00:00.00 360745 N 0 0 0
0:00:00.00 360895 N 0 0 0
0:00:00.00 361042 N 0 0 0
0:00:00.00 361175 N 0 0 0
0:00:00.00 361382 N 0 0 0
0:00:00.00 361561 N 0 0 0
0:00:00.00 361827 N 0 0 0
0:00:00.00 362034 N 0 0 0
0:00:00.00 362205 N 0 0 0
0:00:00.00 362358 N 0 0 0
0:00:00.00 362520 N 0 0 0
0:00:00.00 362678 N 0 0 0
0:00:00.00 362857 N 0 0 0
0:00:00.00 363080 N 0 0 0
0:00:00.00 363334 N 0 0 0
0:00:00.00 363560 N 0 0 0
0:00:00.00 363816 N 0 0 0
0:00:00.00 364095 N 0 0 0
0:00:00.00 364311 N 0 0 0
0:00:00.00 364471 N 0 0 0
0:00:00.00 364626 N 0 0 0
0:00:00.00 364763 N 0 0 0
0:00:00.00 364972 N 0 0 0
0:00:00.00 365301 N 0 0 0
0:00:00.00 365461 N 0 0 0
0:00:00.00 365670 N 0 0 0
0:00:00.00 365911 N 0 0 0
0:00:00.00 366098 N 0 0 0
0:00:00.00 366352 N 0 0 0
0:00:00.00 366543 N 0 0 0
0:00:00.00 366790 N 0 0 0
0:00:00.00 367000 N 0 0 0
0:00:00.00 367259 N 0 0 0
0:00:00.00 367544 N 0 0 0
0:00:00.00 367796 N 0 0 0
0:00:00.00 367965 N 0 0 0
0:00:00.00 368194 N 0 0 0
0:00:00.00 368392 N 0 0 0
0:00:00.00 368586 N 0 0 0
0:00:00.00 368815 N 0 0 0
0:00:00.00 369023 N 0 0 0
0:00:00.00 369319 N 0 0 0
0:00:00.00 369497 N 0 0 0
0:00:00.00 369639 N 0 0 0
0:00:00.00 369932 N 0 0 0
0:00:00.00 370089 N 0 0 0
0:00:00.00 370228 N 0 0 0
0:00:00.00 370523 N 0 0 0
0:00:00.00 370780 N 0 0 0
0:00:00.00 370939 N 0 0 0
0:00:00.00 371090 N 0 0 0
0:00:00.00 371259 N 0 0 0
0:00:00.00 371423 N 0 0 0
0:00:00.00 371570 N 0 0 0
0:00:00.00 371794 N 0 0 0
0:00:00.00 371972 N 0 0 0
0:00:00.00 372159 N 0 0 0
0:00:00.00 372373 N 0 0 0
0:00:00.00 372535 N 0 0 0
0:00:00.00 372685 N 0 0 0
0:00:00.00 372938 N 0 0 0
0:00:00.00 373095 N 0 0 0
0:00:00.00 373356 N 0 0 0
0:00:00.00 373565 N 0 0 0
0:00:00.00 373752 N 0 0 0
0:00:00.00 373900 N 0 0 0
0:00:00.00 374053 N 0 0 0
0:00:00.00 374314 N 0 0 0
0:00:00.00 374544 N 0 0 0
0:00:00.00 374787 N 0 0 0
0:00:00.00 375091 N 0 0 0
0:00:00.00 375392 N 0 0 0
0:00:00.00 375583 N 0 0 0
0:00:00.00 375880 N 0 0 0
0:00:00.00 376099 N 0 0 0
0:00:00.00 376274 N 0 0 0
0:00:00.00 376492 N 0 0 0
0:00:00.00 376668 N 0 0 0
0:00:00.00 376814 N 0 0 0
0:00:00.00 376961 N 0 0 0
0:00:00.00 377303 N 0 0 0
0:00:00.00 377555 N 0 0 0
0:00:00.00 377719 N 0 0 0
0:00:00.00 377993 N 0 0 0
0:00:00.00 378248 N 0 0 0
0:00:00.00 378488 N 0 0 0
0:00:00.00 378630 N 0 0 0
0:00:00.00 378778 N 0 0 0
0:00:00.00 379048 N 0 0 0
0:00:00.00 379228 N 0 0 0
0:00:00.00 379397 N 0 0 0
0:00:00.00 379624 N 0 0 0
0:00:00.00 379985 N 0 0 0
0:00:00.00 380221 N 0 0 0
0:00:00.00 380457 N 0 0 0
0:00:00.00 380612 N 0 0 0
0:00:00.00 380824 N 0 0 0
0:00:00.00 380963 N 0 0 0
0:00:00.00 381247 N 0 0 0
0:00:00.00 381541 N 0 0 0
0:00:00.00 381717 N 0 0 0
0:00:00.00 381866 N 0 0 0
0:00:00.00 382048 N 0 0 0
0:00:00.00 382259 N 0 0 0
0:00:00.00 382426 N 0 0 0
0:00:00.00 382657 N 0 0 0
0:00:00.00 382867 N 0 0 0
0:00:00.00 383135 N 0 0 0
0:00:00.00 383396 N 0 0 0
0:00:00.00 383621 N 0 0 0
0:00:00.00 383758 N 0 0 0
0:00:00.00 383913 N 0 0 0
0:00:00.00 384113 N 0 0 0
0:00:00.00 384257 N 0 0 0
0:00:00.00 384406 N 0 0 0
0:00:00.00 384658 N 0 0 0
0:00:00.00 384925 N 0 0 0
0:00:00.00 385128 N 0 0 0
0:00:00.00 385261 N 0 0 0
0:00:00.00 385506 N 0 0 0
0:00:00.00 385673 N 0 0 0
0:00:00.00 385823 N 0 0 0
0:00:00.00 385978 N 0 0 0
0:00:00.00 386233 N 0 0 0
0:00:00.00 386410 N 0 0 0
0:00:00.00 386644 N 0 0 0
0:00:00.00 386906 N 0 0 0
0:00:00.00 387108 N 0 0 0
0:00:00.00 387560 N 0 0 0
0:00:00.00 388019 N 0 0 0
0:00:00.00 388211 N 0 0 0
0:00:00.00 388541 N 0 0 0
0:00:00.00 388939 N 0 0 0
0:00:00.00 389113 N 0 0 0
0:00:00.00 389525 N 0 0 0
0:00:00.00 389689 N 0 0 0
0:00:00.00 390143 N 0 0 0
0:00:00.00 390319 N 0 0 0
0:00:00.00 390753 N 0 0 0
0:00:00.00 391169 N 0 0 0
0:00:00.00 391545 N 0 0 0
0:00:00.00 391907 N 0 0 0
0:00:00.00 392063 N 0 0 0
0:00:00.00 392429 N 0 0 0
0:00:00.00 392796 N 0 0 0
0:00:00.00 393066 N 0 0 0
0:00:00.00 393365 N 0 0 0
0:00:00.00 393629 N 0 0 0
0:00:00.00 393905 N 0 0 0
0:00:00.00 394191 N 0 0 0
0:00:00.00 394479 N 0 0 0
0:00:00.00 394785 N 0 0 0
0:00:00.00 395089 N 0 0 0
0:00:00.00 395368 N 0 0 0
0:00:00.00 395647 N 0 0 0
0:00:00.00 395951 N 0 0 0
0:00:00.00 396227 N 0 0 0
0:00:00.00 396522 N 0 0 0
0:00:00.00 396832 N 0 0 0
0:00:00.00 397121 N 0 0 0
0:00:00.00 397413 N 0 0 0
0:00:00.00 397708 N 0 0 0
0:00:00.00 397957 N 0 0 0
0:00:00.00 398255 N 0 0 0
0:00:00.00 398538 N 0 0 0
0:00:00.00 398840 N 0 0 0
0:00:00.00 399136 N 0 0 0
0:00:00.00 399442 N 0 0 0
0:00:00.00 399717 N 0 0 0
0:00:00.00 400000 N 0 0 0
0:00:00.00 400266 N 0 0 0
0:00:00.00 400570 N 0 0 0
0:00:00.00 400860 N 0 0 0
0:00:00.00 401152 N 0 0 0
0:00:00.00 401456 N 0 0 0
0:00:00.00 401746 N 0 0 0
0:00:00.00 402017 N 0 0 0
0:00:00.00 402327 N 0 0 0
0:00:00.00 402592 N 0 0 0
0:00:00.00 402899 N 0 0 0
0:00:00.00 403169 N 0 0 0
0:00:00.00 403330 N 0 0 0
0:00:00.00 403769 N 0 0 0
0:00:00.00 403943 N 0 0 0
0:00:00.00 404325 N 0 0 0
0:00:00.00 404555 N 0 0 0
0:00:00.00 404894 N 0 0 0
0:00:00.00 405157 N 0 0 0
0:00:00.00 405315 N 0 0 0
0:00:00.00 405718 N 0 0 0
0:00:00.00 405974 N 0 0 0
0:00:00.00 406287 N 0 0 0
0:00:00.00 406580 N 0 0 0
0:00:00.00 406872 N 0 0 0
0:00:00.00 407029 N 0 0 0
0:00:00.00 407416 N 0 0 0
0:00:00.00 407588 N 0 0 0
0:00:00.00 407947 N 0 0 0
0:00:00.00 408265 N 0 0 0
0:00:00.00 408560 N 0 0 0
0:00:00.00 408859 N 0 0 0
0:00:00.00 409144 N 0 0 0
0:00:00.00 409446 N 0 0 0
0:00:00.00 409774 N 0 0 0
0:00:00.00 410087 N 0 0 0
0:00:00.00 410362 N 0 0 0
0:00:00.00 410666 N 0 0 0
0:00:00.00 410927 N 0 0 0
0:00:00.00 411232 N 0 0 0
0:00:00.00 411498 N 0 0 0
0:00:00.00 411971 N 0 0 0
0:00:00.00 412373 N 0 0 0
0:00:00.00 412538 N 0 0 0
0:00:00.00 412888 N 0 0 0
0:00:00.00 413219 N 0 0 0
0:00:00.00 413494 N 0 0 0
0:00:00.00 413671 N 0 0 0
0:00:00.00 414058 N 0 0 0
0:00:00.00 414306 N 0 0 0
0:00:00.00 414706 N 0 0 0
0:00:00.00 415053 N 0 0 0
0:00:00.00 415208 N 0 0 0
0:00:00.00 415577 N 0 0 0
0:00:00.00 415750 N 0 0 0
0:00:00.00 416117 N 0 0 0
0:00:00.00 416299 N 0 0 0
0:00:00.00 416662 N 0 0 0
0:00:00.00 416828 N 0 0 0
0:00:00.00 417209 N 0 0 0
0:00:00.00 417434 N 0 0 0
0:00:00.00 417839 N 0 0 0
0:00:00.00 418102 N 0 0 0
0:00:00.00 418561 N 0 0 0
0:00:00.00 418739 N 0 0 0
0:00:00.00 419096 N 0 0 0
0:00:00.00 419265 N 0 0 0
0:00:00.00 419636 N 0 0 0
0:00:00.00 419801 N 0 0 0
0:00:00.00 420154 N 0 0 0
0:00:00.00 420325 N 0 0 0
0:00:00.00 420721 N 0 0 0
0:00:00.00 420889 N 0 0 0
0:00:00.00 421270 N 0 0 0
0:00:00.00 421439 N 0 0 0
0:00:00.00 421790 N 0 0 0
0:00:00.00 421949 N 0 0 0
0:00:00.00 422332 N 0 0 0
0:00:00.00 422509 N 0 0 0
0:00:00.00 422878 N 0 0 0
0:00:00.00 423049 N 0 0 0
0:00:00.00 423301 N 0 0 0
0:00:00.00 423716 N 0 0 0
0:00:00.00 424109 N 0 0 0
0:00:00.00 424319 N 0 0 0
0:00:00.00 424483 N 0 0 0
0:00:00.00 424832 N 0 0 0
0:00:00.00 425011 N 0 0 0
0:00:00.00 425351 N 0 0 0
0:00:00.00 425525 N 0 0 0
0:00:00.00 425889 N 0 0 0
0:00:00.00 426060 N 0 0 0
0:00:00.00 426402 N 0 0 0
0:00:00.00 426555 N 0 0 0
0:00:00.00 426937 N 0 0 0
0:00:00.00 427156 N 0 0 0
0:00:00.00 427516 N 0 0 0
0:00:00.00 427745 N 0 0 0
0:00:00.00 428085 N 0 0 0
0:00:00.00 428258 N 0 0 0
0:00:00.00 428576 N 0 0 0
0:00:00.00 428773 N 0 0 0
0:00:00.00 429122 N 0 0 0
0:00:00.00 429343 N 0 0 0
0:00:00.00 429493 N 0 0 0
0:00:00.00 429800 N 0 0 0
0:00:00.00 430006 N 0 0 0
0:00:00.00 430315 N 0 0 0
0:00:00.00 430526 N 0 0 0
0:00:00.00 430852 N 0 0 0
0:00:00.00 431050 N 0 0 0
0:00:00.00 431399 N 0 0 0
0:00:00.00 431608 N 0 0 0
0:00:00.00 431946 N 0 0 0
0:00:00.00 432146 N 0 0 0
0:00:00.00 432481 N 0 0 0
0:00:00.00 432664 N 0 0 0
0:00:00.00 432992 N 0 0 0
0:00:00.00 433192 N 0 0 0
0:00:00.00 433336 N 0 0 0
0:00:00.00 433678 N 0 0 0
0:00:00.00 433879 N 0 0 0
0:00:00.00 434227 N 0 0 0
0:00:00.00 434394 N 0 0 0
0:00:00.00 434729 N 0 0 0
0:00:00.00 434909 N 0 0 0
0:00:00.00 435281 N 0 0 0
0:00:00.00 435460 N 0 0 0
0:00:00.00 435852 N 0 0 0
0:00:00.00 436018 N 0 0 0
0:00:00.00 436379 N 0 0 0
0:00:00.00 436556 N 0 0 0
0:00:00.00 436896 N 0 0 0
0:00:00.00 437056 N 0 0 0
0:00:00.00 437425 N 0 0 0
0:00:00.00 437598 N 0 0 0
0:00:00.00 437974 N 0 0 0
0:00:00.00 438143 N 0 0 0
0:00:00.00 438512 N 0 0 0
0:00:00.00 438678 N 0 0 0
0:00:00.00 439040 N 0 0 0
0:00:00.00 439198 N 0 0 0
0:00:00.00 439313 N 0 0 0
0:00:00.00 439565 N 0 0 0
0:00:00.00 439733 N 0 0 0
0:00:00.00 439942 N 0 0 0
0:00:00.00 440127 N 0 0 0
0:00:00.00 440433 N 0 0 0
0:00:00.00 440602 N 0 0 0
0:00:00.00 440735 N 0 0 0
0:00:00.00 441007 N 0 0 0
0:00:00.00 441202 N 0 0 0
0:00:00.00 441360 N 0 0 0
0:00:00.00 441522 N 0 0 0
0:00:00.00 441700 N 0 0 0
0:00:00.00 442080 N 0 0 0
0:00:00.00 442409 N 0 0 0
0:00:00.00 442798 N 0 0 0
0:00:00.00 443201 N 0 0 0
0:00:00.00 443605 N 0 0 0
0:00:00.00 444013 N 0 0 0
0:00:00.00 444236 N 0 0 0
0:00:00.00 444652 N 0 0 0
0:00:00.00 444827 N 0 0 0
0:00:00.00 445010 N 0 0 0
0:00:00.00 445415 N 0 0 0
0:00:00.00 445577 N 0 0 0
0:00:00.00 445765 N 0 0 0
0:00:00.00 446175 N 0 0 0
0:00:00.00 446342 N 0 0 0
0:00:00.00 446605 N 0 0 0
0:00:00.00 446765 N 0 0 0
0:00:00.00 446936 N 0 0 0
0:00:00.00 447086 N 0 0 0
0:00:00.00 447239 N 0 0 0
0:00:00.00 447401 N 0 0 0
0:00:00.00 447557 N 0 0 0
0:00:00.00 447709 N 0 0 0
0:00:00.00 447894 N 0 0 0
0:00:00.00 448382 N 0 0 0
0:00:00.00 448744 N 0 0 0
0:00:00.00 449219 N 0 0 0
0:00:00.00 449692 N 0 0 0
0:00:00.00 449856 N 0 0 0
0:00:00.00 450049 N 0 0 0
0:00:00.00 450506 N 0 0 0
0:00:00.00 450686 N 0 0 0
0:00:00.00 450952 N 0 0 0
0:00:00.00 451355 N 0 0 0
0:00:00.00 451528 N 0 0 0
0:00:00.00 451775 N 0 0 0
0:00:00.00 452140 N 0 0 0
0:00:00.00 452313 N 0 0 0
0:00:00.00 452581 N 0 0 0
0:00:00.00 452765 N 0 0 0
0:00:00.00 452999 N 0 0 0
0:00:00.00 453154 N 0 0 0
0:00:00.00 453305 N 0 0 0
0:00:00.00 453442 N 0 0 0
0:00:00.00 453692 N 0 0 0
0:00:00.00 453874 N 0 0 0
0:00:00.00 454023 N 0 0 0
0:00:00.00 454219 N 0 0 0
0:00:00.00 454372 N 0 0 0
0:00:00.00 454531 N 0 0 0
0:00:00.00 454698 N 0 0 0
0:00:00.00 455159 N 0 0 0
0:00:00.00 455560 N 0 0 0
0:00:00.00 455983 N 0 0 0
0:00:00.00 456379 N 0 0 0
0:00:00.00 456755 N 0 0 0
0:00:00.00 457139 N 0 0 0
0:00:00.00 457519 N 0 0 0
0:00:00.00 457706 N 0 0 0
0:00:00.00 458057 N 0 0 0
0:00:00.00 458264 N 0 0 0
0:00:00.00 458397 N 0 0 0
0:00:00.00 458600 N 0 0 0
0:00:00.00 458923 N 0 0 0
0:00:00.00 459266 N 0 0 0
0:00:00.00 459470 N 0 0 0
0:00:00.00 459610 N 0 0 0
0:00:00.00 459772 N 0 0 0
0:00:00.00 459952 N 0 0 0
0:00:00.00 460134 N 0 0 0
0:00:00.00 460310 N 0 0 0
0:00:00.00 460496 N 0 0 0
0:00:00.00 460656 N 0 0 0
0:00:00.00 460829 N 0 0 0
0:00:00.00 460957 N 0 0 0
0:00:00.00 461108 N 0 0 0
0:00:00.00 461331 N 0 0 0
0:00:00.00 461612 N 0 0 0
0:00:00.00 461916 N 0 0 0
0:00:00.00 462244 N 0 0 0
0:00:00.00 462568 N 0 0 0
0:00:00.00 462854 N 0 0 0
0:00:00.00 463001 N 0 0 0
0:00:00.00 463151 N 0 0 0
0:00:00.00 463385 N 0 0 0
0:00:00.00 463621 N 0 0 0
0:00:00.00 463757 N 0 0 0
0:00:00.00 464031 N 0 0 0
0:00:00.00 464360 N 0 0 0
0:00:00.00 464681 N 0 0 0
0:00:00.00 464983 N 0 0 0
0:00:00.00 465257 N 0 0 0
0:00:00.00 465548 N 0 0 0
0:00:00.00 465833 N 0 0 0
0:00:00.00 466124 N 0 0 0
0:00:00.00 466276 N 0 0 0
0:00:00.00 466407 N 0 0 0
0:00:00.00 466560 N 0 0 0
0:00:00.00 466731 N 0 0 0
0:00:00.00 467042 N 0 0 0
0:00:00.00 467368 N 0 0 0
0:00:00.00 467703 N 0 0 0
0:00:00.00 468040 N 0 0 0
0:00:00.00 468340 N 0 0 0
0:00:00.00 468484 N 0 0 0
0:00:00.00 468619 N 0 0 0
0:00:00.00 468963 N 0 0 0
0:00:00.00 469274 N 0 0 0
0:00:00.00 469424 N 0 0 0
0:00:00.00 469543 N 0 0 0
0:00:00.00 469705 N 0 0 0
0:00:00.00 469985 N 0 0 0
0:00:00.00 470275 N 0 0 0
0:00:00.00 470587 N 0 0 0
0:00:00.00 470860 N 0 0 0
0:00:00.00 471136 N 0 0 0
0:00:00.00 471413 N 0 0 0
0:00:00.00 471667 N 0 0 0
0:00:00.00 471958 N 0 0 0
0:00:00.00 472118 N 0 0 0
0:00:00.00 472536 N 0 0 0
0:00:00.00 472703 N 0 0 0
0:00:00.00 472957 N 0 0 0
0:00:00.00 473117 N 0 0 0
0:00:00.00 473256 N 0 0 0
0:00:00.00 473625 N 0 0 0
0:00:00.00 473783 N 0 0 0
0:00:00.00 473967 N 0 0 0
0:00:00.00 474343 N 0 0 0
0:00:00.00 474512 N 0 0 0
0:00:00.00 474712 N 0 0 0
0:00:00.00 475094 N 0 0 0
0:00:00.00 475294 N 0 0 0
0:00:00.00 475668 N 0 0 0
0:00:00.00 475902 N 0 0 0
0:00:00.00 476048 N 0 0 0
0:00:00.00 476420 N 0 0 0
0:00:00.00 476606 N 0 0 0
0:00:00.00 476743 N 0 0 0
0:00:00.00 476926 N 0 0 0
0:00:00.00 477104 N 0 0 0
0:00:00.00 477414 N 0 0 0
0:00:00.00 477720 N 0 0 0
0:00:00.00 477995 N 0 0 0
0:00:00.00 478319 N 0 0 0
0:00:00.00 478480 N 0 0 0
0:00:00.00 478624 N 0 0 0
0:00:00.00 478773 N 0 0 0
0:00:00.00 478962 N 0 0 0
0:00:00.00 479182 N 0 0 0
0:00:00.00 479315 N 0 0 0
0:00:00.00 479480 N 0 0 0
0:00:00.00 479732 N 0 0 0
0:00:00.00 479889 N 0 0 0
0:00:00.00 480040 N 0 0 0
0:00:00.00 480350 N 0 0 0
0:00:00.00 480692 N 0 0 0
0:00:00.00 481064 N 0 0 0
0:00:00.00 481405 N 0 0 0
0:00:00.00 481743 N 0 0 0
0:00:00.00 482099 N 0 0 0
0:00:00.00 482396 N 0 0 0
0:00:00.00 482546 N 0 0 0
0:00:00.00 482690 N 0 0 0
0:00:00.00 482832 N 0 0 0
0:00:00.00 483016 N 0 0 0
0:00:00.00 483226 N 0 0 0
0:00:00.00 483469 N 0 0 0
0:00:00.00 483651 N 0 0 0
0:00:00.00 483833 N 0 0 0
0:00:00.00 484009 N 0 0 0
0:00:00.00 484160 N 0 0 0
0:00:00.00 484322 N 0 0 0
0:00:00.00 484475 N 0 0 0
0:00:00.00 484834 N 0 0 0
0:00:00.00 485185 N 0 0 0
0:00:00.00 485593 N 0 0 0
0:00:00.00 485944 N 0 0 0
0:00:00.00 486385 N 0 0 0
0:00:00.00 486815 N 0 0 0
0:00:00.00 486981 N 0 0 0
0:00:00.00 487408 N 0 0 0
0:00:00.00 487591 N 0 0 0
0:00:00.00 487903 N 0 0 0
0:00:00.00 488063 N 0 0 0
0:00:00.00 488286 N 0 0 0
0:00:00.00 488453 N 0 0 0
0:00:00.00 488619 N 0 0 0
0:00:00.00 488781 N 0 0 0
0:00:00.00 488912 N 0 0 0
0:00:00.00 489200 N 0 0 0
0:00:00.00 489470 N 0 0 0
0:00:00.00 489667 N 0 0 0
0:00:00.00 489821 N 0 0 0
0:00:00.00 489992 N 0 0 0
0:00:00.00 490415 N 0 0 0
0:00:00.00 490739 N 0 0 0
0:00:00.00 491112 N 0 0 0
0:00:00.00 491567 N 0 0 0
0:00:00.00 492026 N 0 0 0
0:00:00.00 492435 N 0 0 0
0:00:00.00 492604 N 0 0 0
0:00:00.00 492980 N 0 0 0
0:00:00.00 493148 N 0 0 0
0:00:00.00 493420 N 0 0 0
0:00:00.00 493583 N 0 0 0
0:00:00.00 493850 N 0 0 0
0:00:00.00 494033 N 0 0 0
0:00:00.00 494231 N 0 0 0
0:00:00.00 494377 N 0 0 0
0:00:00.00 494606 N 0 0 0
0:00:00.00 494820 N 0 0 0
0:00:00.00 494989 N 0 0 0
0:00:00.00 495182 N 0 0 0
0:00:00.00 495331 N 0 0 0
0:00:00.00 495540 N 0 0 0
0:00:00.00 495686 N 0 0 0
0:00:00.00 496060 N 0 0 0
0:00:00.00 496427 N 0 0 0
0:00:00.00 496784 N 0 0 0
0:00:00.00 497219 N 0 0 0
0:00:00.00 497671 N 0 0 0
0:00:00.00 498051 N 0 0 0
0:00:00.00 498218 N 0 0 0
0:00:00.00 498445 N 0 0 0
0:00:00.00 498605 N 0 0 0
0:00:00.00 498760 N 0 0 0
0:00:00.00 498911 N 0 0 0
0:00:00.00 499090 N 0 0 0
0:00:00.00 499234 N 0 0 0
0:00:00.00 499475 N 0 0 0
0:00:00.00 499682 N 0 0 0
0:00:00.00 499851 N 0 0 0
0:00:00.00 500251 N 0 0 0
0:00:00.00 500634 N 0 0 0
0:00:00.00 501104 N 0 0 0
0:00:00.00 501550 N 0 0 0
0:00:00.00 501912 N 0 0 0
0:00:00.00 502245 N 0 0 0
0:00:00.00 502619 N 0 0 0
0:00:00.00 502787 N 0 0 0
0:00:00.00 503197 N 0 0 0
0:00:00.00 503559 N 0 0 0
0:00:00.00 503719 N 0 0 0
0:00:00.00 503960 N 0 0 0
0:00:00.00 504101 N 0 0 0
0:00:00.00 504299 N 0 0 0
0:00:00.00 504454 N 0 0 0
0:00:00.00 504875 N 0 0 0
0:00:00.00 505202 N 0 0 0
0:00:00.00 505528 N 0 0 0
0:00:00.00 505831 N 0 0 0
0:00:00.00 506122 N 0 0 0
0:00:00.00 506421 N 0 0 0
0:00:00.00 506714 N 0 0 0
0:00:00.00 507028 N 0 0 0
0:00:00.00 507303 N 0 0 0
0:00:00.00 507611 N 0 0 0
0:00:00.00 507769 N 0 0 0
0:00:00.00 508156 N 0 0 0
0:00:00.00 508543 N 0 0 0
0:00:00.00 508712 N 0 0 0
0:00:00.00 508964 N 0 0 0
0:00:00.00 509123 N 0 0 0
0:00:00.00 509317 N 0 0 0
0:00:00.00 509501 N 0 0 0
0:00:00.00 509683 N 0 0 0
0:00:00.00 509897 N 0 0 0
0:00:00.00 510246 N 0 0 0
0:00:00.00 510602 N 0 0 0
0:00:00.00 510984 N 0 0 0
0:00:00.00 511286 N 0 0 0
0:00:00.00 511582 N 0 0 0
0:00:00.00 511880 N 0 0 0
0:00:00.00 512161 N 0 0 0
0:00:00.00 512440 N 0 0 0
0:00:00.00 512708 N 0 0 0
0:00:00.00 513018 N 0 0 0
0:00:00.00 513324 N 0 0 0
0:00:00.00 513601 N 0 0 0
0:00:00.00 513922 N 0 0 0
0:00:00.00 514080 N 0 0 0
0:00:00.00 514337 N 0 0 0
0:00:00.00 514829 N 0 0 0
0:00:00.00 515088 N 0 0 0
0:00:00.00 515534 N 0 0 0
0:00:00.00 515711 N 0 0 0
0:00:00.00 515959 N 0 0 0
0:00:00.00 516388 N 0 0 0
0:00:00.00 516744 N 0 0 0
0:00:00.00 516899 N 0 0 0
0:00:00.00 517113 N 0 0 0
0:00:00.00 517270 N 0 0 0
0:00:00.00 517473 N 0 0 0
0:00:00.00 517703 N 0 0 0
0:00:00.00 518013 N 0 0 0
0:00:00.00 518432 N 0 0 0
0:00:00.00 518827 N 0 0 0
0:00:00.00 519023 N 0 0 0
0:00:00.00 519280 N 0 0 0
0:00:00.00 519723 N 0 0 0
0:00:00.00 520150 N 0 0 0
0:00:00.00 520355 N 0 0 0
0:00:00.00 520506 N 0 0 0
0:00:00.00 520664 N 0 0 0
0:00:00.00 521026 N 0 0 0
0:00:00.00 521426 N 0 0 0
0:00:00.00 521613 N 0 0 0
0:00:00.00 521818 N 0 0 0
0:00:00.00 522221 N 0 0 0
0:00:00.00 522394 N 0 0 0
0:00:00.00 522578 N 0 0 0
0:00:00.00 522801 N 0 0 0
0:00:00.00 522967 N 0 0 0
0:00:00.00 523111 N 0 0 0
0:00:00.00 523253 N 0 0 0
0:00:00.00 523399 N 0 0 0
0:00:00.00 523629 N 0 0 0
0:00:00.00 524124 N 0 0 0
0:00:00.00 524590 N 0 0 0
0:00:00.00 525022 N 0 0 0
0:00:00.00 525416 N 0 0 0
0:00:00.00 525623 N 0 0 0
0:00:00.00 525775 N 0 0 0
0:00:00.00 526149 N 0 0 0
0:00:00.00 526325 N 0 0 0
0:00:00.00 526718 N 0 0 0
0:00:00.00 526952 N 0 0 0
0:00:00.00 527103 N 0 0 0
0:00:00.00 527303 N 0 0 0
0:00:00.00 527468 N 0 0 0
0:00:00.00 527677 N 0 0 0
0:00:00.00 527810 N 0 0 0
0:00:00.00 527965 N 0 0 0
0:00:00.00 528107 N 0 0 0
0:00:00.00 528370 N 0 0 0
0:00:00.00 528784 N 0 0 0
0:00:00.00 529175 N 0 0 0
0:00:00.00 529339 N 0 0 0
0:00:00.00 529594 N 0 0 0
0:00:00.00 529742 N 0 0 0
0:00:00.00 529918 N 0 0 0
0:00:00.00 530375 N 0 0 0
0:00:00.00 530797 N 0 0 0
0:00:00.00 531218 N 0 0 0
0:00:00.00 531603 N 0 0 0
0:00:00.00 531977 N 0 0 0
0:00:00.00 532336 N 0 0 0
0:00:00.00 532679 N 0 0 0
0:00:00.00 532845 N 0 0 0
0:00:00.00 532982 N 0 0 0
0:00:00.00 533171 N 0 0 0
0:00:00.00 533362 N 0 0 0
0:00:00.00 533531 N 0 0 0
0:00:00.00 533729 N 0 0 0
0:00:00.00 533896 N 0 0 0
0:00:00.00 534040 N 0 0 0
0:00:00.00 534238 N 0 0 0
0:00:00.00 534436 N 0 0 0
0:00:00.00 534613 N 0 0 0
0:00:00.00 534929 N 0 0 0
0:00:00.00 535286 N 0 0 0
0:00:00.00 535655 N 0 0 0
0:00:00.00 535988 N 0 0 0
0:00:00.00 536319 N 0 0 0
0:00:00.00 536616 N 0 0 0
0:00:00.00 536735 N 0 0 0
0:00:00.00 536920 N 0 0 0
0:00:00.00 537208 N 0 0 0
0:00:00.00 537523 N 0 0 0
0:00:00.00 537865 N 0 0 0
0:00:00.00 538137 N 0 0 0
0:00:00.00 538423 N 0 0 0
0:00:00.00 538699 N 0 0 0
0:00:00.00 538990 N 0 0 0
0:00:00.00 539156 N 0 0 0
0:00:00.00 539285 N 0 0 0
0:00:00.00 539456 N 0 0 0
0:00:00.00 539599 N 0 0 0
0:00:00.00 539734 N 0 0 0
0:00:00.00 539926 N 0 0 0
0:00:00.00 540162 N 0 0 0
0:00:00.00 540344 N 0 0 0
0:00:00.00 540515 N 0 0 0
0:00:00.00 540738 N 0 0 0
0:00:00.00 540904 N 0 0 0
0:00:00.00 541028 N 0 0 0
0:00:00.00 541240 N 0 0 0
0:00:00.00 541390 N 0 0 0
0:00:00.00 541611 N 0 0 0
0:00:00.00 541820 N 0 0 0
0:00:00.00 541978 N 0 0 0
0:00:00.00 542268 N 0 0 0
0:00:00.00 542441 N 0 0 0
0:00:00.00 542653 N 0 0 0
0:00:00.00 542853 N 0 0 0
0:00:00.00 542983 N 0 0 0
0:00:00.00 543343 N 0 0 0
0:00:00.00 543715 N 0 0 0
0:00:00.00 544064 N 0 0 0
0:00:00.00 544412 N 0 0 0
0:00:00.00 544743 N 0 0 0
0:00:00.00 545015 N 0 0 0
0:00:00.00 545288 N 0 0 0
0:00:00.00 545569 N 0 0 0
0:00:00.00 545852 N 0 0 0
0:00:00.00 546127 N 0 0 0
0:00:00.00 546399 N 0 0 0
0:00:00.00 546662 N 0 0 0
0:00:00.00 546907 N 0 0 0
0:00:00.00 547184 N 0 0 0
0:00:00.00 547439 N 0 0 0
0:00:00.00 547724 N 0 0 0
0:00:00.00 547999 N 0 0 0
0:00:00.00 548284 N 0 0 0
0:00:00.00 548557 N 0 0 0
0:00:00.00 548825 N 0 0 0
0:00:00.00 549095 N 0 0 0
0:00:00.00 549355 N 0 0 0
0:00:00.00 549639 N 0 0 0
0:00:00.00 549931 N 0 0 0
0:00:00.00 550211 N 0 0 0
0:00:00.00 550499 N 0 0 0
0:00:00.00 550780 N 0 0 0
0:00:00.00 551034 N 0 0 0
0:00:00.00 551342 N 0 0 0
0:00:00.00 551610 N 0 0 0
0:00:00.00 551885 N 0 0 0
0:00:00.00 552186 N 0 0 0
0:00:00.00 552478 N 0 0 0
0:00:00.00 552631 N 0 0 0
0:00:00.00 552877 N 0 0 0
0:00:00.00 553032 N 0 0 0
0:00:00.00 553172 N 0 0 0
0:00:00.00 553327 N 0 0 0
0:00:00.00 553489 N 0 0 0
0:00:00.00 553682 N 0 0 0
0:00:00.00 553833 N 0 0 0
0:00:00.00 553990 N 0 0 0
0:00:00.00 554179 N 0 0 0
0:00:00.00 554377 N 0 0 0
0:00:00.00 554539 N 0 0 0
0:00:00.00 554726 N 0 0 0
0:00:00.00 554859 N 0 0 0
0:00:00.00 555016 N 0 0 0
0:00:00.00 555169 N 0 0 0
0:00:00.00 555329 N 0 0 0
0:00:00.00 555487 N 0 0 0
0:00:00.00 555655 N 0 0 0
0:00:00.00 555862 N 0 0 0
0:00:00.00 556101 N 0 0 0
0:00:00.00 556283 N 0 0 0
0:00:00.00 556763 N 0 0 0
0:00:00.00 557093 N 0 0 0
0:00:00.00 557507 N 0 0 0
0:00:00.00 557959 N 0 0 0
0:00:00.00 558416 N 0 0 0
0:00:00.00 558814 N 0 0 0
0:00:00.00 559152 N 0 0 0
0:00:00.00 559499 N 0 0 0
0:00:00.00 559778 N 0 0 0
0:00:00.00 560050 N 0 0 0
0:00:00.00 560313 N 0 0 0
0:00:00.00 560606 N 0 0 0
0:00:00.00 560891 N 0 0 0
0:00:00.00 561209 N 0 0 0
0:00:00.00 561508 N 0 0 0
0:00:00.00 561771 N 0 0 0
0:00:00.00 562055 N 0 0 0
0:00:00.00 562336 N 0 0 0
0:00:00.00 562628 N 0 0 0
0:00:00.00 562928 N 0 0 0
0:00:00.00 563236 N 0 0 0
0:00:00.00 563524 N 0 0 0
0:00:00.00 563794 N 0 0 0
0:00:00.00 564111 N 0 0 0
0:00:00.00 564394 N 0 0 0
0:00:00.00 564671 N 0 0 0
0:00:00.00 564980 N 0 0 0
0:00:00.00 565139 N 0 0 0
0:00:00.00 565358 N 0 0 0
0:00:00.00 565528 N 0 0 0
0:00:00.00 565682 N 0 0 0
0:00:00.00 565848 N 0 0 0
0:00:00.00 566001 N 0 0 0
0:00:00.00 566149 N 0 0 0
0:00:00.00 566291 N 0 0 0
0:00:00.00 566453 N 0 0 0
0:00:00.00 566599 N 0 0 0
0:00:00.00 566757 N 0 0 0
0:00:00.00 566917 N 0 0 0
0:00:00.00 567081 N 0 0 0
0:00:00.00 567241 N 0 0 0
0:00:00.00 567412 N 0 0 0
0:00:00.00 567594 N 0 0 0
0:00:00.00 567752 N 0 0 0
0:00:00.00 567943 N 0 0 0
0:00:00.00 568251 N 0 0 0
0:00:00.00 568661 N 0 0 0
0:00:00.00 569111 N 0 0 0
0:00:00.00 569594 N 0 0 0
0:00:00.00 570044 N 0 0 0
0:00:00.00 570427 N 0 0 0
0:00:00.00 570748 N 0 0 0
0:00:00.00 570902 N 0 0 0
0:00:00.00 571102 N 0 0 0
0:00:00.00 571277 N 0 0 0
0:00:00.00 571419 N 0 0 0
0:00:00.00 571630 N 0 0 0
0:00:00.00 572056 N 0 0 0
0:00:00.00 572456 N 0 0 0
0:00:00.00 572836 N 0 0 0
0:00:00.00 573201 N 0 0 0
0:00:00.00 573577 N 0 0 0
0:00:00.00 573946 N 0 0 0
0:00:00.00 574250 N 0 0 0
0:00:00.00 574407 N 0 0 0
0:00:00.00 574549 N 0 0 0
0:00:00.00 574895 N 0 0 0
0:00:00.00 575194 N 0 0 0
0:00:00.00 575341 N 0 0 0
0:00:00.00 575473 N 0 0 0
0:00:00.00 575611 N 0 0 0
0:00:00.00 575780 N 0 0 0
0:00:00.00 575986 N 0 0 0
0:00:00.00 576182 N 0 0 0
0:00:00.00 576405 N 0 0 0
0:00:00.00 576556 N 0 0 0
0:00:00.00 576763 N 0 0 0
0:00:00.00 577028 N 0 0 0
0:00:00.00 577228 N 0 0 0
0:00:00.00 577404 N 0 0 0
0:00:00.00 577535 N 0 0 0
0:00:00.00 577690 N 0 0 0
0:00:00.00 577951 N 0 0 0
0:00:00.00 578169 N 0 0 0
0:00:00.00 578484 N 0 0 0
0:00:00.00 578626 N 0 0 0
0:00:00.00 578758 N 0 0 0
0:00:00.00 578898 N 0 0 0
0:00:00.00 579042 N 0 0 0
0:00:00.00 579188 N 0 0 0
0:00:00.00 579346 N 0 0 0
0:00:00.00 579587 N 0 0 0
0:00:00.00 579766 N 0 0 0
0:00:00.00 579935 N 0 0 0
0:00:00.00 580133 N 0 0 0
0:00:00.00 580381 N 0 0 0
0:00:00.00 580583 N 0 0 0
0:00:00.00 580739 N 0 0 0
0:00:00.00 580885 N 0 0 0
0:00:00.00 581035 N 0 0 0
0:00:00.00 581234 N 0 0 0
0:00:00.00 581468 N 0 0 0
0:00:00.00 581674 N 0 0 0
0:00:00.00 581855 N 0 0 0
0:00:00.00 582066 N 0 0 0
0:00:00.00 582300 N 0 0 0
0:00:00.00 582602 N 0 0 0
0:00:00.00 582847 N 0 0 0
0:00:00.00 582986 N 0 0 0
0:00:00.00 583222 N 0 0 0
0:00:00.00 583425 N 0 0 0
0:00:00.00 583657 N 0 0 0
0:00:00.00 583918 N 0 0 0
0:00:00.00 584116 N 0 0 0
0:00:00.00 584300 N 0 0 0
0:00:00.00 584581 N 0 0 0
0:00:00.00 584786 N 0 0 0
0:00:00.00 585002 N 0 0 0
0:00:00.00 585202 N 0 0 0
0:00:00.00 585432 N 0 0 0
0:00:00.00 585695 N 0 0 0
0:00:00.00 585864 N 0 0 0
0:00:00.00 586121 N 0 0 0
0:00:00.00 586312 N 0 0 0
0:00:00.00 586564 N 0 0 0
0:00:00.00 586933 N 0 0 0
0:00:00.00 587106 N 0 0 0
0:00:00.00 587255 N 0 0 0
0:00:00.00 587392 N 0 0 0
0:00:00.00 587597 N 0 0 0
0:00:00.00 587824 N 0 0 0
0:00:00.00 588074 N 0 0 0
0:00:00.00 588361 N 0 0 0
0:00:00.00 588595 N 0 0 0
0:00:00.00 588848 N 0 0 0
0:00:00.00 589009 N 0 0 0
0:00:00.00 589241 N 0 0 0
0:00:00.00 589460 N 0 0 0
0:00:00.00 589711 N 0 0 0
0:00:00.00 589943 N 0 0 0
0:00:00.00 590107 N 0 0 0
0:00:00.00 590285 N 0 0 0
0:00:00.00 590452 N 0 0 0
0:00:00.00 590704 N 0 0 0
0:00:00.00 590965 N 0 0 0
0:00:00.00 591174 N 0 0 0
0:00:00.00 591376 N 0 0 0
0:00:00.00 591631 N 0 0 0
0:00:00.00 591890 N 0 0 0
0:00:00.00 592214 N 0 0 0
0:00:00.00 592465 N 0 0 0
0:00:00.00 592619 N 0 0 0
0:00:00.00 592781 N 0 0 0
0:00:00.00 593086 N 0 0 0
0:00:00.00 593300 N 0 0 0
0:00:00.00 593444 N 0 0 0
0:00:00.00 593573 N 0 0 0
0:00:00.00 593703 N 0 0 0
0:00:00.00 593953 N 0 0 0
0:00:00.00 594209 N 0 0 0
0:00:00.00 594329 N 0 0 0
0:00:00.00 594551 N 0 0 0
0:00:00.00 594763 N 0 0 0
0:00:00.00 594940 N 0 0 0
0:00:00.00 595098 N 0 0 0
0:00:00.00 595253 N 0 0 0
0:00:00.00 595418 N 0 0 0
0:00:00.00 595651 N 0 0 0
0:00:00.00 595829 N 0 0 0
0:00:00.00 596050 N 0 0 0
0:00:00.00 596261 N 0 0 0
0:00:00.00 596491 N 0 0 0
0:00:00.00 596740 N 0 0 0
0:00:00.00 596918 N 0 0 0
0:00:00.00 597082 N 0 0 0
0:00:00.00 597272 N 0 0 0
0:00:00.00 597433 N 0 0 0
0:00:00.00 597715 N 0 0 0
0:00:00.00 597906 N 0 0 0
0:00:00.00 598045 N 0 0 0
0:00:00.00 598212 N 0 0 0
0:00:00.00 598507 N 0 0 0
0:00:00.00 598788 N 0 0 0
0:00:00.00 599018 N 0 0 0
0:00:00.00 599200 N 0 0 0
0:00:00.00 599474 N 0 0 0
0:00:00.00 599630 N 0 0 0
0:00:00.00 599886 N 0 0 0
0:00:00.00 600089 N 0 0 0
0:00:00.00 600269 N 0 0 0
0:00:00.00 600572 N 0 0 0
0:00:00.00 600863 N 0 0 0
0:00:00.00 601060 N 0 0 0
0:00:00.00 601198 N 0 0 0
0:00:00.00 601481 N 0 0 0
0:00:00.00 601731 N 0 0 0
0:00:00.00 601949 N 0 0 0
0:00:00.00 602244 N 0 0 0
0:00:00.00 602419 N 0 0 0
0:00:00.00 602698 N 0 0 0
0:00:00.00 602919 N 0 0 0
0:00:00.00 603090 N 0 0 0
0:00:00.00 603320 N 0 0 0
0:00:00.00 603466 N 0 0 0
0:00:00.00 603731 N 0 0 0
0:00:00.00 603909 N 0 0 0
0:00:00.00 604107 N 0 0 0
0:00:00.00 604399 N 0 0 0
0:00:00.00 604705 N 0 0 0
0:00:00.00 604899 N 0 0 0
0:00:00.00 605068 N 0 0 0
0:00:00.00 605376 N 0 0 0
0:00:00.00 605538 N 0 0 0
0:00:00.00 605749 N 0 0 0
0:00:00.00 605959 N 0 0 0
0:00:00.00 606157 N 0 0 0
0:00:00.00 606316 N 0 0 0
0:00:00.00 606596 N 0 0 0
0:00:00.00 606775 N 0 0 0
0:00:00.00 607032 N 0 0 0
0:00:00.00 607230 N 0 0 0
0:00:00.00 607433 N 0 0 0
0:00:00.00 607648 N 0 0 0
0:00:00.00 607892 N 0 0 0
0:00:00.00 608090 N 0 0 0
0:00:00.00 608260 N 0 0 0
0:00:00.00 608539 N 0 0 0
0:00:00.00 608724 N 0 0 0
0:00:00.00 608884 N 0 0 0
0:00:00.00 609039 N 0 0 0
0:00:00.00 609273 N 0 0 0
0:00:00.00 609521 N 0 0 0
0:00:00.00 609802 N 0 0 0
0:00:00.00 609988 N 0 0 0
0:00:00.00 610151 N 0 0 0
0:00:00.00 610346 N 0 0 0
0:00:00.00 610603 N 0 0 0
0:00:00.00 610816 N 0 0 0
0:00:00.00 611055 N 0 0 0
0:00:00.00 611345 N 0 0 0
0:00:00.00 611501 N 0 0 0
0:00:00.00 611701 N 0 0 0
0:00:00.00 611926 N 0 0 0
0:00:00.00 612063 N 0 0 0
0:00:00.00 612236 N 0 0 0
0:00:00.00 612520 N 0 0 0
0:00:00.00 612769 N 0 0 0
0:00:00.00 612923 N 0 0 0
0:00:00.00 613219 N 0 0 0
0:00:00.00 613438 N 0 0 0
0:00:00.00 613579 N 0 0 0
0:00:00.00 613795 N 0 0 0
0:00:00.00 613960 N 0 0 0
0:00:00.00 614183 N 0 0 0
0:00:00.00 614408 N 0 0 0
0:00:00.00 614617 N 0 0 0
0:00:00.00 614875 N 0 0 0
0:00:00.00 615042 N 0 0 0
0:00:00.00 615301 N 0 0 0
0:00:00.00 615454 N 0 0 0
0:00:00.00 615652 N 0 0 0
0:00:00.00 615793 N 0 0 0
0:00:00.00 615922 N 0 0 0
0:00:00.00 616120 N 0 0 0
0:00:00.00 616421 N 0 0 0
0:00:00.00 616700 N 0 0 0
0:00:00.00 616991 N 0 0 0
0:00:00.00 617306 N 0 0 0
0:00:00.00 617515 N 0 0 0
0:00:00.00 617774 N 0 0 0
0:00:00.00 617944 N 0 0 0
0:00:00.00 618100 N 0 0 0
0:00:00.00 618354 N 0 0 0
0:00:00.00 618525 N 0 0 0
0:00:00.00 618669 N 0 0 0
0:00:00.00 618817 N 0 0 0
0:00:00.00 619045 N 0 0 0
0:00:00.00 619344 N 0 0 0
0:00:00.00 619513 N 0 0 0
0:00:00.00 619749 N 0 0 0
0:00:00.00 619934 N 0 0 0
0:00:00.00 620082 N 0 0 0
0:00:00.00 620291 N 0 0 0
0:00:00.00 620514 N 0 0 0
0:00:00.00 620669 N 0 0 0
0:00:00.00 620951 N 0 0 0
0:00:00.00 621115 N 0 0 0
0:00:00.00 621405 N 0 0 0
0:00:00.00 621583 N 0 0 0
0:00:00.00 621754 N 0 0 0
0:00:00.00 621900 N 0 0 0
0:00:00.00 622096 N 0 0 0
0:00:00.00 622269 N 0 0 0
0:00:00.00 622526 N 0 0 0
0:00:00.00 622766 N 0 0 0
0:00:00.00 623038 N 0 0 0
0:00:00.00 623264 N 0 0 0
0:00:00.00 623498 N 0 0 0
0:00:00.00 623815 N 0 0 0
0:00:00.00 623986 N 0 0 0
0:00:00.00 624220 N 0 0 0
0:00:00.00 624443 N 0 0 0
0:00:00.00 624591 N 0 0 0
0:00:00.00 624841 N 0 0 0
0:00:00.00 625133 N 0 0 0
0:00:00.00 625351 N 0 0 0
0:00:00.00 625495 N 0 0 0
0:00:00.00 625754 N 0 0 0
0:00:00.00 625921 N 0 0 0
0:00:00.00 626209 N 0 0 0
0:00:00.00 626357 N 0 0 0
0:00:00.00 626497 N 0 0 0
0:00:00.00 626715 N 0 0 0
0:00:00.00 626960 N 0 0 0
0:00:00.00 627293 N 0 0 0
0:00:00.00 627525 N 0 0 0
0:00:00.00 627752 N 0 0 0
0:00:00.00 627952 N 0 0 0
0:00:00.00 628155 N 0 0 0
0:00:00.00 628425 N 0 0 0
0:00:00.00 628684 N 0 0 0
0:00:00.00 628875 N 0 0 0
0:00:00.00 629109 N 0 0 0
0:00:00.00 629401 N 0 0 0
0:00:00.00 629606 N 0 0 0
0:00:00.00 629759 N 0 0 0
0:00:00.00 629894 N 0 0 0
0:00:00.00 630173 N 0 0 0
0:00:00.00 630412 N 0 0 0
0:00:00.00 630625 N 0 0 0
0:00:00.00 630886 N 0 0 0
0:00:00.00 631190 N 0 0 0
0:00:00.00 631395 N 0 0 0
0:00:00.00 631649 N 0 0 0
0:00:00.00 631825 N 0 0 0
0:00:00.00 631975 N 0 0 0
0:00:00.00 632228 N 0 0 0
0:00:00.00 632455 N 0 0 0
0:00:00.00 632637 N 0 0 0
0:00:00.00 632912 N 0 0 0
0:00:00.00 633125 N 0 0 0
0:00:00.00 633350 N 0 0 0
0:00:00.00 633523 N 0 0 0
0:00:00.00 633800 N 0 0 0
0:00:00.00 634093 N 0 0 0
0:00:00.00 634340 N 0 0 0
0:00:00.00 634513 N 0 0 0
0:00:00.00 634745 N 0 0 0
0:00:00.00 634898 N 0 0 0
0:00:00.00 635209 N 0 0 0
0:00:00.00 635389 N 0 0 0
0:00:00.00 635627 N 0 0 0
0:00:00.00 635839 N 0 0 0
0:00:00.00 636037 N 0 0 0
0:00:00.00 636307 N 0 0 0
0:00:00.00 636619 N 0 0 0
0:00:00.00 636853 N 0 0 0
0:00:00.00 637060 N 0 0 0
0:00:00.00 637243 N 0 0 0
0:00:00.00 637429 N 0 0 0
0:00:00.00 637605 N 0 0 0
0:00:00.00 637819 N 0 0 0
0:00:00.00 638048 N 0 0 0
0:00:00.00 638370 N 0 0 0
0:00:00.00 638528 N 0 0 0
0:00:00.00 638714 N 0 0 0
0:00:00.00 638991 N 0 0 0
0:00:00.00 639135 N 0 0 0
0:00:00.00 639403 N 0 0 0
0:00:00.00 639659 N 0 0 0
0:00:00.00 639871 N 0 0 0
0:00:00.00 640033 N 0 0 0
0:00:00.00 640267 N 0 0 0
0:00:00.00 640510 N 0 0 0
0:00:00.00 640712 N 0 0 0
0:00:00.00 640946 N 0 0 0
0:00:00.00 641232 N 0 0 0
0:00:00.00 641414 N 0 0 0
0:00:00.00 641569 N 0 0 0
0:00:00.00 641696 N 0 0 0
0:00:00.00 641900 N 0 0 0
0:00:00.00 642114 N 0 0 0
0:00:00.00 642326 N 0 0 0
0:00:00.00 642661 N 0 0 0
0:00:00.00 642938 N 0 0 0
0:00:00.00 643154 N 0 0 0
0:00:00.00 643370 N 0 0 0
0:00:00.00 643561 N 0 0 0
0:00:00.00 643878 N 0 0 0
0:00:00.00 644042 N 0 0 0
0:00:00.00 644249 N 0 0 0
0:00:00.00 644389 N 0 0 0
0:00:00.00 644632 N 0 0 0
0:00:00.00 644819 N 0 0 0
0:00:00.00 644983 N 0 0 0
0:00:00.00 645246 N 0 0 0
0:00:00.00 645437 N 0 0 0
0:00:00.00 645572 N 0 0 0
0:00:00.00 645829 N 0 0 0
0:00:00.00 645982 N 0 0 0
0:00:00.00 646303 N 0 0 0
0:00:00.00 646463 N 0 0 0
0:00:00.00 646684 N 0 0 0
0:00:00.00 646976 N 0 0 0
0:00:00.00 647138 N 0 0 0
0:00:00.00 647388 N 0 0 0
0:00:00.00 647554 N 0 0 0
0:00:00.00 647723 N 0 0 0
0:00:00.00 648054 N 0 0 0
0:00:00.00 648236 N 0 0 0
0:00:00.00 648497 N 0 0 0
0:00:00.00 648722 N 0 0 0
0:00:00.00 648985 N 0 0 0
0:00:00.00 649159 N 0 0 0
0:00:00.00 649319 N 0 0 0
0:00:00.00 649602 N 0 0 0
0:00:00.00 649856 N 0 0 0
