0:00:00.00 9 N 0 0 0
0:00:00.00 99 N 0 0 0
0:00:00.00 184 N 0 0 0
0:00:00.00 484 N 0 0 0
0:00:00.00 763 N 0 0 0
0:00:00.00 1037 N 0 0 0
0:00:00.00 1309 N 0 0 0
0:00:00.00 1577 N 0 0 0
0:00:00.00 1858 N 0 0 0
0:00:00.00 2128 N 0 0 0
0:00:00.00 2387 N 0 0 0
0:00:00.00 2650 N 0 0 0
0:00:00.00 2909 N 0 0 0
0:00:00.00 3177 N 0 0 0
0:00:00.00 3447 N 0 0 0
0:00:00.00 3712 N 0 0 0
0:00:00.00 3969 N 0 0 0
0:00:00.00 4239 N 0 0 0
0:00:00.00 4516 N 0 0 0
0:00:00.00 4781 N 0 0 0
0:00:00.00 5038 N 0 0 0
0:00:00.00 5303 N 0 0 0
0:00:00.00 5571 N 0 0 0
0:00:00.00 5843 N 0 0 0
0:00:00.00 6109 N 0 0 0
0:00:00.00 6374 N 0 0 0
0:00:00.00 6647 N 0 0 0
0:00:00.00 6923 N 0 0 0
0:00:00.00 7186 N 0 0 0
0:00:00.00 7445 N 0 0 0
0:00:00.00 7709 N 0 0 0
0:00:00.00 7979 N 0 0 0
0:00:00.00 8253 N 0 0 0
0:00:00.00 8492 N 0 0 0
0:00:00.00 8779 N 0 0 0
0:00:00.00 9049 N 0 0 0
0:00:00.00 9324 N 0 0 0
0:00:00.00 9589 N 0 0 0
0:00:00.00 9855 N 0 0 0
0:00:00.00 10121 N 0 0 0
0:00:00.00 10390 N 0 0 0
0:00:00.00 10670 N 0 0 0
0:00:00.00 10944 N 0 0 0
0:00:00.00 11212 N 0 0 0
0:00:00.00 11479 N 0 0 0
0:00:00.00 11763 N 0 0 0
0:00:00.00 12038 N 0 0 0
0:00:00.00 12312 N 0 0 0
0:00:00.00 12586 N 0 0 0
0:00:00.00 12856 N 0 0 0
0:00:00.00 13133 N 0 0 0
0:00:00.00 13405 N 0 0 0
0:00:00.00 13671 N 0 0 0
0:00:00.00 13936 N 0 0 0
0:00:00.00 14216 N 0 0 0
0:00:00.00 14483 N 0 0 0
0:00:00.00 14744 N 0 0 0
0:00:00.00 15012 N 0 0 0
0:00:00.00 15277 N 0 0 0
0:00:00.00 15550 N 0 0 0
0:00:00.00 15826 N 0 0 0
0:00:00.00 16097 N 0 0 0
0:00:00.00 16375 N 0 0 0
0:00:00.00 16666 N 0 0 0
0:00:00.00 16945 N 0 0 0
0:00:00.00 17213 N 0 0 0
0:00:00.00 17491 N 0 0 0
0:00:00.00 17766 N 0 0 0
0:00:00.00 18049 N 0 0 0
0:00:00.00 18319 N 0 0 0
0:00:00.00 18583 N 0 0 0
0:00:00.00 18853 N 0 0 0
0:00:00.00 19127 N 0 0 0
0:00:00.00 19391 N 0 0 0
0:00:00.00 19645 N 0 0 0
0:00:00.00 19906 N 0 0 0
0:00:00.00 20173 N 0 0 0
0:00:00.00 20441 N 0 0 0
0:00:00.00 20707 N 0 0 0
0:00:00.00 20975 N 0 0 0
0:00:00.00 21236 N 0 0 0
0:00:00.00 21510 N 0 0 0
0:00:00.00 21780 N 0 0 0
0:00:00.00 22037 N 0 0 0
0:00:00.00 22271 N 0 0 0
0:00:00.00 22574 N 0 0 0
0:00:00.00 22849 N 0 0 0
0:00:00.00 23049 N 0 0 0
0:00:00.00 23341 N 0 0 0
0:00:00.00 23632 N 0 0 0
0:00:00.00 23924 N 0 0 0
0:00:00.00 24208 N 0 0 0
0:00:00.00 24484 N 0 0 0
0:00:00.00 24761 N 0 0 0
0:00:00.00 25033 N 0 0 0
0:00:00.00 25315 N 0 0 0
0:00:00.00 25585 N 0 0 0
0:00:00.00 25850 N 0 0 0
0:00:00.00 26125 N 0 0 0
0:00:00.00 26309 N 0 0 0
0:00:00.00 26672 N 0 0 0
0:00:00.00 26935 N 0 0 0
0:00:00.00 27205 N 0 0 0
0:00:00.00 27463 N 0 0 0
0:00:00.00 27736 N 0 0 0
0:00:00.00 28004 N 0 0 0
0:00:00.00 28271 N 0 0 0
0:00:00.00 28541 N 0 0 0
0:00:00.00 28825 N 0 0 0
0:00:00.00 29097 N 0 0 0
0:00:00.00 29363 N 0 0 0
0:00:00.00 29635 N 0 0 0
0:00:00.00 29905 N 0 0 0
0:00:00.00 30182 N 0 0 0
0:00:00.00 30460 N 0 0 0
0:00:00.00 30730 N 0 0 0
0:00:00.00 30998 N 0 0 0
0:00:00.00 31271 N 0 0 0
0:00:00.00 31536 N 0 0 0
0:00:00.00 31784 N 0 0 0
0:00:00.00 32051 N 0 0 0
0:00:00.00 32315 N 0 0 0
0:00:00.00 32580 N 0 0 0
0:00:00.00 32850 N 0 0 0
0:00:00.00 33113 N 0 0 0
0:00:00.00 33374 N 0 0 0
0:00:00.00 33647 N 0 0 0
0:00:00.00 33912 N 0 0 0
0:00:00.00 34171 N 0 0 0
0:00:00.00 34432 N 0 0 0
0:00:00.00 34700 N 0 0 0
0:00:00.00 34972 N 0 0 0
0:00:00.00 35240 N 0 0 0
0:00:00.00 35501 N 0 0 0
0:00:00.00 35759 N 0 0 0
0:00:00.00 36022 N 0 0 0
0:00:00.00 36293 N 0 0 0
0:00:00.00 36562 N 0 0 0
0:00:00.00 36821 N 0 0 0
0:00:00.00 37094 N 0 0 0
0:00:00.00 37359 N 0 0 0
0:00:00.00 37631 N 0 0 0
0:00:00.00 37894 N 0 0 0
0:00:00.00 38153 N 0 0 0
0:00:00.00 38416 N 0 0 0
0:00:00.00 38686 N 0 0 0
0:00:00.00 38947 N 0 0 0
0:00:00.00 39206 N 0 0 0
0:00:00.00 39465 N 0 0 0
0:00:00.00 39728 N 0 0 0
0:00:00.00 39994 N 0 0 0
0:00:00.00 40264 N 0 0 0
0:00:00.00 40523 N 0 0 0
0:00:00.00 40781 N 0 0 0
0:00:00.00 41058 N 0 0 0
0:00:00.00 41333 N 0 0 0
0:00:00.00 41603 N 0 0 0
0:00:00.00 41868 N 0 0 0
0:00:00.00 42142 N 0 0 0
0:00:00.00 42413 N 0 0 0
0:00:00.00 42687 N 0 0 0
0:00:00.00 42831 N 0 0 0
0:00:00.00 43000 N 0 0 0
0:00:00.00 43416 N 0 0 0
0:00:00.00 43623 N 0 0 0
0:00:00.00 44048 N 0 0 0
0:00:00.00 44327 N 0 0 0
0:00:00.00 44590 N 0 0 0
0:00:00.00 44881 N 0 0 0
0:00:00.00 45164 N 0 0 0
0:00:00.00 45427 N 0 0 0
0:00:00.00 45697 N 0 0 0
0:00:00.00 45968 N 0 0 0
0:00:00.00 46220 N 0 0 0
0:00:00.00 46499 N 0 0 0
0:00:00.00 46764 N 0 0 0
0:00:00.00 46998 N 0 0 0
0:00:00.00 47299 N 0 0 0
0:00:00.00 47574 N 0 0 0
0:00:00.00 47765 N 0 0 0
0:00:00.00 48092 N 0 0 0
0:00:00.00 48366 N 0 0 0
0:00:00.00 48566 N 0 0 0
0:00:00.00 48906 N 0 0 0
0:00:00.00 49171 N 0 0 0
0:00:00.00 49370 N 0 0 0
0:00:00.00 49696 N 0 0 0
0:00:00.00 49945 N 0 0 0
0:00:00.00 50168 N 0 0 0
0:00:00.00 50492 N 0 0 0
0:00:00.00 50756 N 0 0 0
0:00:00.00 51034 N 0 0 0
0:00:00.00 51298 N 0 0 0
0:00:00.00 51548 N 0 0 0
0:00:00.00 51808 N 0 0 0
0:00:00.00 52070 N 0 0 0
0:00:00.00 52335 N 0 0 0
0:00:00.00 52600 N 0 0 0
0:00:00.00 52853 N 0 0 0
0:00:00.00 53107 N 0 0 0
0:00:00.00 53377 N 0 0 0
0:00:00.00 53642 N 0 0 0
0:00:00.00 53894 N 0 0 0
0:00:00.00 54149 N 0 0 0
0:00:00.00 54400 N 0 0 0
0:00:00.00 54679 N 0 0 0
0:00:00.00 54949 N 0 0 0
0:00:00.00 55213 N 0 0 0
0:00:00.00 55460 N 0 0 0
0:00:00.00 55755 N 0 0 0
0:00:00.00 56030 N 0 0 0
0:00:00.00 56295 N 0 0 0
0:00:00.00 56554 N 0 0 0
0:00:00.00 56822 N 0 0 0
0:00:00.00 57089 N 0 0 0
0:00:00.00 57359 N 0 0 0
0:00:00.00 57607 N 0 0 0
0:00:00.00 57861 N 0 0 0
0:00:00.00 58124 N 0 0 0
0:00:00.00 58388 N 0 0 0
0:00:00.00 58640 N 0 0 0
0:00:00.00 58892 N 0 0 0
0:00:00.00 59065 N 0 0 0
0:00:00.00 59398 N 0 0 0
0:00:00.00 59663 N 0 0 0
0:00:00.00 59918 N 0 0 0
0:00:00.00 60172 N 0 0 0
0:00:00.00 60433 N 0 0 0
0:00:00.00 60705 N 0 0 0
0:00:00.00 60964 N 0 0 0
0:00:00.00 61220 N 0 0 0
0:00:00.00 61479 N 0 0 0
0:00:00.00 61736 N 0 0 0
0:00:00.00 61997 N 0 0 0
0:00:00.00 62190 N 0 0 0
0:00:00.00 62473 N 0 0 0
0:00:00.00 62750 N 0 0 0
0:00:00.00 62987 N 0 0 0
0:00:00.00 63293 N 0 0 0
0:00:00.00 63556 N 0 0 0
0:00:00.00 63817 N 0 0 0
0:00:00.00 64094 N 0 0 0
0:00:00.00 64364 N 0 0 0
0:00:00.00 64642 N 0 0 0
0:00:00.00 64906 N 0 0 0
0:00:00.00 65167 N 0 0 0
0:00:00.00 65434 N 0 0 0
0:00:00.00 65705 N 0 0 0
0:00:00.00 65959 N 0 0 0
0:00:00.00 66213 N 0 0 0
0:00:00.00 66476 N 0 0 0
0:00:00.00 66740 N 0 0 0
0:00:00.00 66962 N 0 0 0
0:00:00.00 67244 N 0 0 0
0:00:00.00 67520 N 0 0 0
0:00:00.00 67761 N 0 0 0
0:00:00.00 68065 N 0 0 0
0:00:00.00 68333 N 0 0 0
0:00:00.00 68598 N 0 0 0
0:00:00.00 68870 N 0 0 0
0:00:00.00 69138 N 0 0 0
0:00:00.00 69410 N 0 0 0
0:00:00.00 69676 N 0 0 0
0:00:00.00 69946 N 0 0 0
0:00:00.00 70207 N 0 0 0
0:00:00.00 70481 N 0 0 0
0:00:00.00 70751 N 0 0 0
0:00:00.00 71014 N 0 0 0
0:00:00.00 71284 N 0 0 0
0:00:00.00 71545 N 0 0 0
0:00:00.00 71815 N 0 0 0
0:00:00.00 72079 N 0 0 0
0:00:00.00 72344 N 0 0 0
0:00:00.00 72603 N 0 0 0
0:00:00.00 72880 N 0 0 0
0:00:00.00 73147 N 0 0 0
0:00:00.00 73415 N 0 0 0
0:00:00.00 73678 N 0 0 0
0:00:00.00 73940 N 0 0 0
0:00:00.00 74212 N 0 0 0
0:00:00.00 74482 N 0 0 0
0:00:00.00 74741 N 0 0 0
0:00:00.00 74999 N 0 0 0
0:00:00.00 75278 N 0 0 0
0:00:00.00 75557 N 0 0 0
0:00:00.00 75821 N 0 0 0
0:00:00.00 76086 N 0 0 0
0:00:00.00 76352 N 0 0 0
0:00:00.00 76621 N 0 0 0
0:00:00.00 76892 N 0 0 0
0:00:00.00 77159 N 0 0 0
0:00:00.00 77420 N 0 0 0
0:00:00.00 77690 N 0 0 0
0:00:00.00 77965 N 0 0 0
0:00:00.00 78224 N 0 0 0
0:00:00.00 78478 N 0 0 0
0:00:00.00 78739 N 0 0 0
0:00:00.00 78989 N 0 0 0
0:00:00.00 79252 N 0 0 0
0:00:00.00 79513 N 0 0 0
0:00:00.00 79778 N 0 0 0
0:00:00.00 80039 N 0 0 0
0:00:00.00 80320 N 0 0 0
0:00:00.00 80588 N 0 0 0
0:00:00.00 80852 N 0 0 0
0:00:00.00 81119 N 0 0 0
0:00:00.00 81337 N 0 0 0
0:00:00.00 81639 N 0 0 0
0:00:00.00 81934 N 0 0 0
0:00:00.00 82204 N 0 0 0
0:00:00.00 82471 N 0 0 0
0:00:00.00 82744 N 0 0 0
0:00:00.00 83011 N 0 0 0
0:00:00.00 83264 N 0 0 0
0:00:00.00 83518 N 0 0 0
0:00:00.00 83779 N 0 0 0
0:00:00.00 84033 N 0 0 0
0:00:00.00 84303 N 0 0 0
0:00:00.00 84560 N 0 0 0
0:00:00.00 84816 N 0 0 0
0:00:00.00 85082 N 0 0 0
0:00:00.00 85351 N 0 0 0
0:00:00.00 85613 N 0 0 0
0:00:00.00 85871 N 0 0 0
0:00:00.00 86137 N 0 0 0
0:00:00.00 86407 N 0 0 0
0:00:00.00 86683 N 0 0 0
0:00:00.00 86944 N 0 0 0
0:00:00.00 87206 N 0 0 0
0:00:00.00 87475 N 0 0 0
0:00:00.00 87745 N 0 0 0
0:00:00.00 88007 N 0 0 0
0:00:00.00 88261 N 0 0 0
0:00:00.00 88528 N 0 0 0
0:00:00.00 88787 N 0 0 0
0:00:00.00 89059 N 0 0 0
0:00:00.00 89316 N 0 0 0
0:00:00.00 89570 N 0 0 0
0:00:00.00 89829 N 0 0 0
0:00:00.00 90103 N 0 0 0
0:00:00.00 90364 N 0 0 0
0:00:00.00 90612 N 0 0 0
0:00:00.00 90869 N 0 0 0
0:00:00.00 91127 N 0 0 0
0:00:00.00 91395 N 0 0 0
0:00:00.00 91660 N 0 0 0
0:00:00.00 91917 N 0 0 0
0:00:00.00 92174 N 0 0 0
0:00:00.00 92450 N 0 0 0
0:00:00.00 92714 N 0 0 0
0:00:00.00 92965 N 0 0 0
0:00:00.00 93233 N 0 0 0
0:00:00.00 93497 N 0 0 0
0:00:00.00 93767 N 0 0 0
0:00:00.00 94037 N 0 0 0
0:00:00.00 94302 N 0 0 0
0:00:00.00 94563 N 0 0 0
0:00:00.00 94833 N 0 0 0
0:00:00.00 95092 N 0 0 0
0:00:00.00 95346 N 0 0 0
0:00:00.00 95602 N 0 0 0
0:00:00.00 95863 N 0 0 0
0:00:00.00 96120 N 0 0 0
0:00:00.00 96385 N 0 0 0
0:00:00.00 96637 N 0 0 0
0:00:00.00 96890 N 0 0 0
0:00:00.00 97153 N 0 0 0
0:00:00.00 97416 N 0 0 0
0:00:00.00 97679 N 0 0 0
0:00:00.00 97936 N 0 0 0
0:00:00.00 98199 N 0 0 0
0:00:00.00 98464 N 0 0 0
0:00:00.00 98732 N 0 0 0
0:00:00.00 98987 N 0 0 0
0:00:00.00 99247 N 0 0 0
0:00:00.00 99508 N 0 0 0
0:00:00.00 99776 N 0 0 0
0:00:00.00 100040 N 0 0 0
0:00:00.00 100296 N 0 0 0
0:00:00.00 100503 N 0 0 0
0:00:00.00 100804 N 0 0 0
0:00:00.00 101047 N 0 0 0
0:00:00.00 101329 N 0 0 0
0:00:00.00 101588 N 0 0 0
0:00:00.00 101842 N 0 0 0
0:00:00.00 102109 N 0 0 0
0:00:00.00 102368 N 0 0 0
0:00:00.00 102627 N 0 0 0
0:00:00.00 102890 N 0 0 0
0:00:00.00 103153 N 0 0 0
0:00:00.00 103415 N 0 0 0
0:00:00.00 103684 N 0 0 0
0:00:00.00 103939 N 0 0 0
0:00:00.00 104195 N 0 0 0
0:00:00.00 104459 N 0 0 0
0:00:00.00 104731 N 0 0 0
0:00:00.00 104994 N 0 0 0
0:00:00.00 105251 N 0 0 0
0:00:00.00 105516 N 0 0 0
0:00:00.00 105770 N 0 0 0
0:00:00.00 106038 N 0 0 0
0:00:00.00 106241 N 0 0 0
0:00:00.00 106526 N 0 0 0
0:00:00.00 106798 N 0 0 0
0:00:00.00 107077 N 0 0 0
0:00:00.00 107352 N 0 0 0
0:00:00.00 107611 N 0 0 0
0:00:00.00 107872 N 0 0 0
0:00:00.00 108135 N 0 0 0
0:00:00.00 108396 N 0 0 0
0:00:00.00 108661 N 0 0 0
0:00:00.00 108911 N 0 0 0
0:00:00.00 109166 N 0 0 0
0:00:00.00 109426 N 0 0 0
0:00:00.00 109694 N 0 0 0
0:00:00.00 109955 N 0 0 0
0:00:00.00 110209 N 0 0 0
0:00:00.00 110470 N 0 0 0
0:00:00.00 110729 N 0 0 0
0:00:00.00 110990 N 0 0 0
0:00:00.00 111249 N 0 0 0
0:00:00.00 111427 N 0 0 0
0:00:00.00 111775 N 0 0 0
0:00:00.00 112054 N 0 0 0
0:00:00.00 112324 N 0 0 0
0:00:00.00 112579 N 0 0 0
0:00:00.00 112842 N 0 0 0
0:00:00.00 113101 N 0 0 0
0:00:00.00 113366 N 0 0 0
0:00:00.00 113630 N 0 0 0
0:00:00.00 113890 N 0 0 0
0:00:00.00 114149 N 0 0 0
0:00:00.00 114412 N 0 0 0
0:00:00.00 114673 N 0 0 0
0:00:00.00 114930 N 0 0 0
0:00:00.00 115186 N 0 0 0
0:00:00.00 115443 N 0 0 0
0:00:00.00 115706 N 0 0 0
0:00:00.00 115979 N 0 0 0
0:00:00.00 116240 N 0 0 0
0:00:00.00 116498 N 0 0 0
0:00:00.00 116768 N 0 0 0
0:00:00.00 117038 N 0 0 0
0:00:00.00 117302 N 0 0 0
0:00:00.00 117554 N 0 0 0
0:00:00.00 117815 N 0 0 0
0:00:00.00 118069 N 0 0 0
0:00:00.00 118336 N 0 0 0
0:00:00.00 118593 N 0 0 0
0:00:00.00 118852 N 0 0 0
0:00:00.00 119113 N 0 0 0
0:00:00.00 119383 N 0 0 0
0:00:00.00 119646 N 0 0 0
0:00:00.00 119900 N 0 0 0
0:00:00.00 120166 N 0 0 0
0:00:00.00 120433 N 0 0 0
0:00:00.00 120701 N 0 0 0
0:00:00.00 120973 N 0 0 0
0:00:00.00 121235 N 0 0 0
0:00:00.00 121496 N 0 0 0
0:00:00.00 121777 N 0 0 0
0:00:00.00 122036 N 0 0 0
0:00:00.00 122290 N 0 0 0
0:00:00.00 122555 N 0 0 0
0:00:00.00 122814 N 0 0 0
0:00:00.00 123086 N 0 0 0
0:00:00.00 123349 N 0 0 0
0:00:00.00 123610 N 0 0 0
0:00:00.00 123862 N 0 0 0
0:00:00.00 124128 N 0 0 0
0:00:00.00 124389 N 0 0 0
0:00:00.00 124641 N 0 0 0
0:00:00.00 124895 N 0 0 0
0:00:00.00 125154 N 0 0 0
0:00:00.00 125422 N 0 0 0
0:00:00.00 125687 N 0 0 0
0:00:00.00 125948 N 0 0 0
0:00:00.00 126139 N 0 0 0
0:00:00.00 126432 N 0 0 0
0:00:00.00 126715 N 0 0 0
0:00:00.00 126985 N 0 0 0
0:00:00.00 127253 N 0 0 0
0:00:00.00 127526 N 0 0 0
0:00:00.00 127802 N 0 0 0
0:00:00.00 128077 N 0 0 0
0:00:00.00 128340 N 0 0 0
0:00:00.00 128603 N 0 0 0
0:00:00.00 128882 N 0 0 0
0:00:00.00 129146 N 0 0 0
0:00:00.00 129413 N 0 0 0
0:00:00.00 129674 N 0 0 0
0:00:00.00 129937 N 0 0 0
0:00:00.00 130201 N 0 0 0
0:00:00.00 130471 N 0 0 0
0:00:00.00 130723 N 0 0 0
0:00:00.00 130979 N 0 0 0
0:00:00.00 131242 N 0 0 0
0:00:00.00 131512 N 0 0 0
0:00:00.00 131780 N 0 0 0
0:00:00.00 132039 N 0 0 0
0:00:00.00 132307 N 0 0 0
0:00:00.00 132565 N 0 0 0
0:00:00.00 132829 N 0 0 0
0:00:00.00 133025 N 0 0 0
0:00:00.00 133308 N 0 0 0
0:00:00.00 133612 N 0 0 0
0:00:00.00 133898 N 0 0 0
0:00:00.00 134168 N 0 0 0
0:00:00.00 134428 N 0 0 0
0:00:00.00 134678 N 0 0 0
0:00:00.00 134959 N 0 0 0
0:00:00.00 135232 N 0 0 0
0:00:00.00 135495 N 0 0 0
0:00:00.00 135763 N 0 0 0
0:00:00.00 136031 N 0 0 0
0:00:00.00 136312 N 0 0 0
0:00:00.00 136584 N 0 0 0
0:00:00.00 136845 N 0 0 0
0:00:00.00 137119 N 0 0 0
0:00:00.00 137392 N 0 0 0
0:00:00.00 137678 N 0 0 0
0:00:00.00 137957 N 0 0 0
0:00:00.00 138231 N 0 0 0
0:00:00.00 138494 N 0 0 0
0:00:00.00 138767 N 0 0 0
0:00:00.00 139028 N 0 0 0
0:00:00.00 139282 N 0 0 0
0:00:00.00 139540 N 0 0 0
0:00:00.00 139797 N 0 0 0
0:00:00.00 140063 N 0 0 0
0:00:00.00 140326 N 0 0 0
0:00:00.00 140582 N 0 0 0
0:00:00.00 140830 N 0 0 0
0:00:00.00 141088 N 0 0 0
0:00:00.00 141349 N 0 0 0
0:00:00.00 141606 N 0 0 0
0:00:00.00 141854 N 0 0 0
0:00:00.00 142112 N 0 0 0
0:00:00.00 142362 N 0 0 0
0:00:00.00 142621 N 0 0 0
0:00:00.00 142873 N 0 0 0
0:00:00.00 143123 N 0 0 0
0:00:00.00 143372 N 0 0 0
0:00:00.00 143629 N 0 0 0
0:00:00.00 143883 N 0 0 0
0:00:00.00 144135 N 0 0 0
0:00:00.00 144380 N 0 0 0
0:00:00.00 144634 N 0 0 0
0:00:00.00 144886 N 0 0 0
0:00:00.00 145139 N 0 0 0
0:00:00.00 145391 N 0 0 0
0:00:00.00 145636 N 0 0 0
0:00:00.00 145890 N 0 0 0
0:00:00.00 146156 N 0 0 0
0:00:00.00 146408 N 0 0 0
0:00:00.00 146662 N 0 0 0
0:00:00.00 146914 N 0 0 0
0:00:00.00 147166 N 0 0 0
0:00:00.00 147420 N 0 0 0
0:00:00.00 147679 N 0 0 0
0:00:00.00 147920 N 0 0 0
0:00:00.00 148163 N 0 0 0
0:00:00.00 148417 N 0 0 0
0:00:00.00 148678 N 0 0 0
0:00:00.00 148934 N 0 0 0
0:00:00.00 149179 N 0 0 0
0:00:00.00 149431 N 0 0 0
0:00:00.00 149683 N 0 0 0
0:00:00.00 149940 N 0 0 0
0:00:00.00 150203 N 0 0 0
0:00:00.00 150455 N 0 0 0
0:00:00.00 150705 N 0 0 0
0:00:00.00 150968 N 0 0 0
0:00:00.00 151229 N 0 0 0
0:00:00.00 151484 N 0 0 0
0:00:00.00 151731 N 0 0 0
0:00:00.00 151988 N 0 0 0
0:00:00.00 152240 N 0 0 0
0:00:00.00 152496 N 0 0 0
0:00:00.00 152744 N 0 0 0
0:00:00.00 152993 N 0 0 0
0:00:00.00 153245 N 0 0 0
0:00:00.00 153511 N 0 0 0
0:00:00.00 153769 N 0 0 0
0:00:00.00 154017 N 0 0 0
0:00:00.00 154269 N 0 0 0
0:00:00.00 154510 N 0 0 0
0:00:00.00 154787 N 0 0 0
0:00:00.00 155045 N 0 0 0
0:00:00.00 155281 N 0 0 0
0:00:00.00 155551 N 0 0 0
0:00:00.00 155812 N 0 0 0
0:00:00.00 156062 N 0 0 0
0:00:00.00 156317 N 0 0 0
0:00:00.00 156560 N 0 0 0
0:00:00.00 156811 N 0 0 0
0:00:00.00 157057 N 0 0 0
0:00:00.00 157300 N 0 0 0
0:00:00.00 157556 N 0 0 0
0:00:00.00 157797 N 0 0 0
0:00:00.00 158047 N 0 0 0
0:00:00.00 158306 N 0 0 0
0:00:00.00 158558 N 0 0 0
0:00:00.00 158803 N 0 0 0
0:00:00.00 159052 N 0 0 0
0:00:00.00 159300 N 0 0 0
0:00:00.00 159550 N 0 0 0
0:00:00.00 159806 N 0 0 0
0:00:00.00 160047 N 0 0 0
0:00:00.00 160285 N 0 0 0
0:00:00.00 160546 N 0 0 0
0:00:00.00 160799 N 0 0 0
0:00:00.00 161048 N 0 0 0
0:00:00.00 161289 N 0 0 0
0:00:00.00 161537 N 0 0 0
0:00:00.00 161780 N 0 0 0
0:00:00.00 162031 N 0 0 0
0:00:00.00 162279 N 0 0 0
0:00:00.00 162526 N 0 0 0
0:00:00.00 162765 N 0 0 0
0:00:00.00 162961 N 0 0 0
0:00:00.00 163256 N 0 0 0
0:00:00.00 163505 N 0 0 0
0:00:00.00 163724 N 0 0 0
0:00:00.00 164002 N 0 0 0
0:00:00.00 164246 N 0 0 0
0:00:00.00 164497 N 0 0 0
0:00:00.00 164740 N 0 0 0
0:00:00.00 164983 N 0 0 0
0:00:00.00 165224 N 0 0 0
0:00:00.00 165472 N 0 0 0
0:00:00.00 165712 N 0 0 0
0:00:00.00 165955 N 0 0 0
0:00:00.00 166194 N 0 0 0
0:00:00.00 166442 N 0 0 0
0:00:00.00 166685 N 0 0 0
0:00:00.00 166937 N 0 0 0
0:00:00.00 167135 N 0 0 0
0:00:00.00 167423 N 0 0 0
0:00:00.00 167672 N 0 0 0
0:00:00.00 167927 N 0 0 0
0:00:00.00 168172 N 0 0 0
0:00:00.00 168415 N 0 0 0
0:00:00.00 168655 N 0 0 0
0:00:00.00 168867 N 0 0 0
0:00:00.00 169144 N 0 0 0
0:00:00.00 169393 N 0 0 0
0:00:00.00 169589 N 0 0 0
0:00:00.00 169868 N 0 0 0
0:00:00.00 170116 N 0 0 0
0:00:00.00 170370 N 0 0 0
0:00:00.00 170609 N 0 0 0
0:00:00.00 170856 N 0 0 0
0:00:00.00 171097 N 0 0 0
0:00:00.00 171311 N 0 0 0
0:00:00.00 171580 N 0 0 0
0:00:00.00 171833 N 0 0 0
0:00:00.00 172078 N 0 0 0
0:00:00.00 172319 N 0 0 0
0:00:00.00 172550 N 0 0 0
0:00:00.00 172820 N 0 0 0
0:00:00.00 173074 N 0 0 0
0:00:00.00 173322 N 0 0 0
0:00:00.00 173570 N 0 0 0
0:00:00.00 173819 N 0 0 0
0:00:00.00 174064 N 0 0 0
0:00:00.00 174316 N 0 0 0
0:00:00.00 174560 N 0 0 0
0:00:00.00 174773 N 0 0 0
0:00:00.00 175014 N 0 0 0
0:00:00.00 175298 N 0 0 0
0:00:00.00 175552 N 0 0 0
0:00:00.00 175793 N 0 0 0
0:00:00.00 176038 N 0 0 0
0:00:00.00 176294 N 0 0 0
0:00:00.00 176542 N 0 0 0
0:00:00.00 176796 N 0 0 0
0:00:00.00 177044 N 0 0 0
0:00:00.00 177287 N 0 0 0
0:00:00.00 177538 N 0 0 0
0:00:00.00 177791 N 0 0 0
0:00:00.00 178040 N 0 0 0
0:00:00.00 178281 N 0 0 0
0:00:00.00 178526 N 0 0 0
0:00:00.00 178778 N 0 0 0
0:00:00.00 179024 N 0 0 0
0:00:00.00 179278 N 0 0 0
0:00:00.00 179528 N 0 0 0
0:00:00.00 179779 N 0 0 0
0:00:00.00 180029 N 0 0 0
0:00:00.00 180293 N 0 0 0
0:00:00.00 180544 N 0 0 0
0:00:00.00 180788 N 0 0 0
0:00:00.00 181044 N 0 0 0
0:00:00.00 181296 N 0 0 0
0:00:00.00 181557 N 0 0 0
0:00:00.00 181818 N 0 0 0
0:00:00.00 182075 N 0 0 0
0:00:00.00 182327 N 0 0 0
0:00:00.00 182587 N 0 0 0
0:00:00.00 182844 N 0 0 0
0:00:00.00 183103 N 0 0 0
0:00:00.00 183348 N 0 0 0
0:00:00.00 183600 N 0 0 0
0:00:00.00 183848 N 0 0 0
0:00:00.00 184104 N 0 0 0
0:00:00.00 184354 N 0 0 0
0:00:00.00 184572 N 0 0 0
0:00:00.00 184815 N 0 0 0
0:00:00.00 185117 N 0 0 0
0:00:00.00 185378 N 0 0 0
0:00:00.00 185632 N 0 0 0
0:00:00.00 185884 N 0 0 0
0:00:00.00 186138 N 0 0 0
0:00:00.00 186395 N 0 0 0
0:00:00.00 186653 N 0 0 0
0:00:00.00 186896 N 0 0 0
0:00:00.00 187141 N 0 0 0
0:00:00.00 187393 N 0 0 0
0:00:00.00 187648 N 0 0 0
0:00:00.00 187902 N 0 0 0
0:00:00.00 188143 N 0 0 0
0:00:00.00 188393 N 0 0 0
0:00:00.00 188636 N 0 0 0
0:00:00.00 188894 N 0 0 0
0:00:00.00 189148 N 0 0 0
0:00:00.00 189396 N 0 0 0
0:00:00.00 189637 N 0 0 0
0:00:00.00 189895 N 0 0 0
0:00:00.00 190145 N 0 0 0
0:00:00.00 190393 N 0 0 0
0:00:00.00 190642 N 0 0 0
0:00:00.00 190843 N 0 0 0
0:00:00.00 191095 N 0 0 0
0:00:00.00 191380 N 0 0 0
0:00:00.00 191633 N 0 0 0
0:00:00.00 191884 N 0 0 0
0:00:00.00 192127 N 0 0 0
0:00:00.00 192393 N 0 0 0
0:00:00.00 192641 N 0 0 0
0:00:00.00 192884 N 0 0 0
0:00:00.00 193133 N 0 0 0
0:00:00.00 193388 N 0 0 0
0:00:00.00 193644 N 0 0 0
0:00:00.00 193901 N 0 0 0
0:00:00.00 194157 N 0 0 0
0:00:00.00 194396 N 0 0 0
0:00:00.00 194654 N 0 0 0
0:00:00.00 194908 N 0 0 0
0:00:00.00 195156 N 0 0 0
0:00:00.00 195395 N 0 0 0
0:00:00.00 195633 N 0 0 0
0:00:00.00 195871 N 0 0 0
0:00:00.00 196070 N 0 0 0
0:00:00.00 196360 N 0 0 0
0:00:00.00 196607 N 0 0 0
0:00:00.00 196841 N 0 0 0
0:00:00.00 197105 N 0 0 0
0:00:00.00 197350 N 0 0 0
0:00:00.00 197599 N 0 0 0
0:00:00.00 197842 N 0 0 0
0:00:00.00 198090 N 0 0 0
0:00:00.00 198331 N 0 0 0
0:00:00.00 198581 N 0 0 0
0:00:00.00 198823 N 0 0 0
0:00:00.00 199066 N 0 0 0
0:00:00.00 199303 N 0 0 0
0:00:00.00 199557 N 0 0 0
0:00:00.00 199798 N 0 0 0
0:00:00.00 200041 N 0 0 0
0:00:00.00 200284 N 0 0 0
0:00:00.00 200504 N 0 0 0
0:00:00.00 200772 N 0 0 0
0:00:00.00 201031 N 0 0 0
0:00:00.00 201274 N 0 0 0
0:00:00.00 201523 N 0 0 0
0:00:00.00 201767 N 0 0 0
0:00:00.00 202027 N 0 0 0
0:00:00.00 202273 N 0 0 0
0:00:00.00 202514 N 0 0 0
0:00:00.00 202759 N 0 0 0
0:00:00.00 202907 N 0 0 0
0:00:00.00 203254 N 0 0 0
0:00:00.00 203506 N 0 0 0
0:00:00.00 203749 N 0 0 0
0:00:00.00 203989 N 0 0 0
0:00:00.00 204226 N 0 0 0
0:00:00.00 204478 N 0 0 0
0:00:00.00 204718 N 0 0 0
0:00:00.00 204926 N 0 0 0
0:00:00.00 205187 N 0 0 0
0:00:00.00 205434 N 0 0 0
0:00:00.00 205655 N 0 0 0
0:00:00.00 205915 N 0 0 0
0:00:00.00 206154 N 0 0 0
0:00:00.00 206397 N 0 0 0
0:00:00.00 206609 N 0 0 0
0:00:00.00 206878 N 0 0 0
0:00:00.00 207122 N 0 0 0
0:00:00.00 207356 N 0 0 0
0:00:00.00 207590 N 0 0 0
0:00:00.00 207792 N 0 0 0
0:00:00.00 208012 N 0 0 0
0:00:00.00 208256 N 0 0 0
0:00:00.00 208436 N 0 0 0
0:00:00.00 208705 N 0 0 0
0:00:00.00 208872 N 0 0 0
0:00:00.00 209138 N 0 0 0
0:00:00.00 209320 N 0 0 0
0:00:00.00 209592 N 0 0 0
0:00:00.00 209765 N 0 0 0
0:00:00.00 210019 N 0 0 0
0:00:00.00 210193 N 0 0 0
0:00:00.00 210436 N 0 0 0
0:00:00.00 210618 N 0 0 0
0:00:00.00 210872 N 0 0 0
0:00:00.00 211050 N 0 0 0
0:00:00.00 211288 N 0 0 0
0:00:00.00 211459 N 0 0 0
0:00:00.00 211712 N 0 0 0
0:00:00.00 211892 N 0 0 0
0:00:00.00 212134 N 0 0 0
0:00:00.00 212314 N 0 0 0
0:00:00.00 212540 N 0 0 0
0:00:00.00 212710 N 0 0 0
0:00:00.00 212938 N 0 0 0
0:00:00.00 213116 N 0 0 0
0:00:00.00 213350 N 0 0 0
0:00:00.00 213527 N 0 0 0
0:00:00.00 213748 N 0 0 0
0:00:00.00 213923 N 0 0 0
0:00:00.00 214148 N 0 0 0
0:00:00.00 214333 N 0 0 0
0:00:00.00 214549 N 0 0 0
0:00:00.00 214731 N 0 0 0
0:00:00.00 214945 N 0 0 0
0:00:00.00 215114 N 0 0 0
0:00:00.00 215320 N 0 0 0
0:00:00.00 215496 N 0 0 0
0:00:00.00 215716 N 0 0 0
0:00:00.00 215896 N 0 0 0
0:00:00.00 216121 N 0 0 0
0:00:00.00 216295 N 0 0 0
0:00:00.00 216497 N 0 0 0
0:00:00.00 216682 N 0 0 0
0:00:00.00 216911 N 0 0 0
0:00:00.00 217080 N 0 0 0
0:00:00.00 217283 N 0 0 0
0:00:00.00 217460 N 0 0 0
0:00:00.00 217678 N 0 0 0
0:00:00.00 217850 N 0 0 0
0:00:00.00 218066 N 0 0 0
0:00:00.00 218252 N 0 0 0
0:00:00.00 218453 N 0 0 0
0:00:00.00 218633 N 0 0 0
0:00:00.00 218849 N 0 0 0
0:00:00.00 219029 N 0 0 0
0:00:00.00 219267 N 0 0 0
0:00:00.00 219440 N 0 0 0
0:00:00.00 219656 N 0 0 0
0:00:00.00 219832 N 0 0 0
0:00:00.00 220037 N 0 0 0
0:00:00.00 220216 N 0 0 0
0:00:00.00 220441 N 0 0 0
0:00:00.00 220617 N 0 0 0
0:00:00.00 220835 N 0 0 0
0:00:00.00 221015 N 0 0 0
0:00:00.00 221206 N 0 0 0
0:00:00.00 221382 N 0 0 0
0:00:00.00 221636 N 0 0 0
0:00:00.00 221807 N 0 0 0
0:00:00.00 222023 N 0 0 0
0:00:00.00 222197 N 0 0 0
0:00:00.00 222404 N 0 0 0
0:00:00.00 222579 N 0 0 0
0:00:00.00 222806 N 0 0 0
0:00:00.00 222984 N 0 0 0
0:00:00.00 223202 N 0 0 0
0:00:00.00 223371 N 0 0 0
0:00:00.00 223592 N 0 0 0
0:00:00.00 223769 N 0 0 0
0:00:00.00 223992 N 0 0 0
0:00:00.00 224167 N 0 0 0
0:00:00.00 224392 N 0 0 0
0:00:00.00 224559 N 0 0 0
0:00:00.00 224770 N 0 0 0
0:00:00.00 224953 N 0 0 0
0:00:00.00 225185 N 0 0 0
0:00:00.00 225355 N 0 0 0
0:00:00.00 225603 N 0 0 0
0:00:00.00 225781 N 0 0 0
0:00:00.00 225999 N 0 0 0
0:00:00.00 226175 N 0 0 0
0:00:00.00 226413 N 0 0 0
0:00:00.00 226589 N 0 0 0
0:00:00.00 226834 N 0 0 0
0:00:00.00 227005 N 0 0 0
0:00:00.00 227234 N 0 0 0
0:00:00.00 227401 N 0 0 0
0:00:00.00 227754 N 0 0 0
0:00:00.00 228101 N 0 0 0
0:00:00.00 228290 N 0 0 0
0:00:00.00 228505 N 0 0 0
0:00:00.00 228811 N 0 0 0
0:00:00.00 229068 N 0 0 0
0:00:00.00 229297 N 0 0 0
0:00:00.00 229565 N 0 0 0
0:00:00.00 229811 N 0 0 0
0:00:00.00 230054 N 0 0 0
0:00:00.00 230305 N 0 0 0
0:00:00.00 230537 N 0 0 0
0:00:00.00 230773 N 0 0 0
0:00:00.00 231007 N 0 0 0
0:00:00.00 231259 N 0 0 0
0:00:00.00 231491 N 0 0 0
0:00:00.00 231719 N 0 0 0
0:00:00.00 231950 N 0 0 0
0:00:00.00 232196 N 0 0 0
0:00:00.00 232434 N 0 0 0
0:00:00.00 232675 N 0 0 0
0:00:00.00 232911 N 0 0 0
0:00:00.00 233150 N 0 0 0
0:00:00.00 233386 N 0 0 0
0:00:00.00 233626 N 0 0 0
0:00:00.00 233870 N 0 0 0
0:00:00.00 234108 N 0 0 0
0:00:00.00 234340 N 0 0 0
0:00:00.00 234576 N 0 0 0
0:00:00.00 234812 N 0 0 0
0:00:00.00 235060 N 0 0 0
0:00:00.00 235301 N 0 0 0
0:00:00.00 235546 N 0 0 0
0:00:00.00 235782 N 0 0 0
0:00:00.00 236032 N 0 0 0
0:00:00.00 236275 N 0 0 0
0:00:00.00 236522 N 0 0 0
0:00:00.00 236761 N 0 0 0
0:00:00.00 237008 N 0 0 0
0:00:00.00 237256 N 0 0 0
0:00:00.00 237501 N 0 0 0
0:00:00.00 237748 N 0 0 0
0:00:00.00 237998 N 0 0 0
0:00:00.00 238243 N 0 0 0
0:00:00.00 238505 N 0 0 0
0:00:00.00 238754 N 0 0 0
0:00:00.00 239000 N 0 0 0
0:00:00.00 239249 N 0 0 0
0:00:00.00 239497 N 0 0 0
0:00:00.00 239749 N 0 0 0
0:00:00.00 239976 N 0 0 0
0:00:00.00 240246 N 0 0 0
0:00:00.00 240496 N 0 0 0
0:00:00.00 240743 N 0 0 0
0:00:00.00 241006 N 0 0 0
0:00:00.00 241256 N 0 0 0
0:00:00.00 241506 N 0 0 0
0:00:00.00 241753 N 0 0 0
0:00:00.00 241999 N 0 0 0
0:00:00.00 242249 N 0 0 0
0:00:00.00 242498 N 0 0 0
0:00:00.00 242744 N 0 0 0
0:00:00.00 242982 N 0 0 0
0:00:00.00 243223 N 0 0 0
0:00:00.00 243481 N 0 0 0
0:00:00.00 243725 N 0 0 0
0:00:00.00 243974 N 0 0 0
0:00:00.00 244219 N 0 0 0
0:00:00.00 244469 N 0 0 0
0:00:00.00 244721 N 0 0 0
0:00:00.00 244975 N 0 0 0
0:00:00.00 245221 N 0 0 0
0:00:00.00 245462 N 0 0 0
0:00:00.00 245716 N 0 0 0
0:00:00.00 245972 N 0 0 0
0:00:00.00 246215 N 0 0 0
0:00:00.00 246451 N 0 0 0
0:00:00.00 246697 N 0 0 0
0:00:00.00 246942 N 0 0 0
0:00:00.00 247187 N 0 0 0
0:00:00.00 247432 N 0 0 0
0:00:00.00 247669 N 0 0 0
0:00:00.00 247905 N 0 0 0
0:00:00.00 248146 N 0 0 0
0:00:00.00 248396 N 0 0 0
0:00:00.00 248636 N 0 0 0
0:00:00.00 248873 N 0 0 0
0:00:00.00 249111 N 0 0 0
0:00:00.00 249356 N 0 0 0
0:00:00.00 249602 N 0 0 0
0:00:00.00 249849 N 0 0 0
0:00:00.00 250096 N 0 0 0
0:00:00.00 250342 N 0 0 0
0:00:00.00 250589 N 0 0 0
0:00:00.00 250843 N 0 0 0
0:00:00.00 251091 N 0 0 0
0:00:00.00 251330 N 0 0 0
0:00:00.00 251572 N 0 0 0
0:00:00.00 251818 N 0 0 0
0:00:00.00 252065 N 0 0 0
0:00:00.00 252313 N 0 0 0
0:00:00.00 252484 N 0 0 0
0:00:00.00 252670 N 0 0 0
0:00:00.00 252958 N 0 0 0
0:00:00.00 253242 N 0 0 0
0:00:00.00 253496 N 0 0 0
0:00:00.00 253744 N 0 0 0
0:00:00.00 253989 N 0 0 0
0:00:00.00 254245 N 0 0 0
0:00:00.00 254491 N 0 0 0
0:00:00.00 254743 N 0 0 0
0:00:00.00 254984 N 0 0 0
0:00:00.00 255226 N 0 0 0
0:00:00.00 255474 N 0 0 0
0:00:00.00 255728 N 0 0 0
0:00:00.00 255974 N 0 0 0
0:00:00.00 256217 N 0 0 0
0:00:00.00 256464 N 0 0 0
0:00:00.00 256709 N 0 0 0
0:00:00.00 256964 N 0 0 0
0:00:00.00 257220 N 0 0 0
0:00:00.00 257465 N 0 0 0
0:00:00.00 257704 N 0 0 0
0:00:00.00 257960 N 0 0 0
0:00:00.00 258215 N 0 0 0
0:00:00.00 258462 N 0 0 0
0:00:00.00 258710 N 0 0 0
0:00:00.00 258961 N 0 0 0
0:00:00.00 259202 N 0 0 0
0:00:00.00 259456 N 0 0 0
0:00:00.00 259700 N 0 0 0
0:00:00.00 259945 N 0 0 0
0:00:00.00 260179 N 0 0 0
0:00:00.00 260428 N 0 0 0
0:00:00.00 260678 N 0 0 0
0:00:00.00 260915 N 0 0 0
0:00:00.00 261149 N 0 0 0
0:00:00.00 261400 N 0 0 0
0:00:00.00 261643 N 0 0 0
0:00:00.00 261893 N 0 0 0
0:00:00.00 262084 N 0 0 0
0:00:00.00 262357 N 0 0 0
0:00:00.00 262532 N 0 0 0
0:00:00.00 262805 N 0 0 0
0:00:00.00 263129 N 0 0 0
0:00:00.00 263371 N 0 0 0
0:00:00.00 263615 N 0 0 0
0:00:00.00 263801 N 0 0 0
0:00:00.00 264112 N 0 0 0
0:00:00.00 264314 N 0 0 0
0:00:00.00 264604 N 0 0 0
0:00:00.00 264778 N 0 0 0
0:00:00.00 265097 N 0 0 0
0:00:00.00 265291 N 0 0 0
0:00:00.00 265586 N 0 0 0
0:00:00.00 265757 N 0 0 0
0:00:00.00 266058 N 0 0 0
0:00:00.00 266236 N 0 0 0
0:00:00.00 266535 N 0 0 0
0:00:00.00 266715 N 0 0 0
0:00:00.00 266971 N 0 0 0
0:00:00.00 267149 N 0 0 0
0:00:00.00 267498 N 0 0 0
0:00:00.00 267678 N 0 0 0
0:00:00.00 268000 N 0 0 0
0:00:00.00 268175 N 0 0 0
0:00:00.00 268477 N 0 0 0
0:00:00.00 268657 N 0 0 0
0:00:00.00 268961 N 0 0 0
0:00:00.00 269143 N 0 0 0
0:00:00.00 269356 N 0 0 0
0:00:00.00 269521 N 0 0 0
0:00:00.00 269822 N 0 0 0
0:00:00.00 270004 N 0 0 0
0:00:00.00 270373 N 0 0 0
0:00:00.00 270545 N 0 0 0
0:00:00.00 270864 N 0 0 0
0:00:00.00 271042 N 0 0 0
0:00:00.00 271361 N 0 0 0
0:00:00.00 271537 N 0 0 0
0:00:00.00 271845 N 0 0 0
0:00:00.00 272030 N 0 0 0
0:00:00.00 272326 N 0 0 0
0:00:00.00 272513 N 0 0 0
0:00:00.00 272813 N 0 0 0
0:00:00.00 273055 N 0 0 0
0:00:00.00 273290 N 0 0 0
0:00:00.00 273535 N 0 0 0
0:00:00.00 273766 N 0 0 0
0:00:00.00 274007 N 0 0 0
0:00:00.00 274246 N 0 0 0
0:00:00.00 274482 N 0 0 0
0:00:00.00 274709 N 0 0 0
0:00:00.00 274954 N 0 0 0
0:00:00.00 275191 N 0 0 0
0:00:00.00 275432 N 0 0 0
0:00:00.00 275656 N 0 0 0
0:00:00.00 275900 N 0 0 0
0:00:00.00 276140 N 0 0 0
0:00:00.00 276381 N 0 0 0
0:00:00.00 276628 N 0 0 0
0:00:00.00 276865 N 0 0 0
0:00:00.00 277101 N 0 0 0
0:00:00.00 277339 N 0 0 0
0:00:00.00 277591 N 0 0 0
0:00:00.00 277828 N 0 0 0
0:00:00.00 278057 N 0 0 0
0:00:00.00 278291 N 0 0 0
0:00:00.00 278536 N 0 0 0
0:00:00.00 278780 N 0 0 0
0:00:00.00 279023 N 0 0 0
0:00:00.00 279261 N 0 0 0
0:00:00.00 279495 N 0 0 0
0:00:00.00 279742 N 0 0 0
0:00:00.00 279992 N 0 0 0
0:00:00.00 280237 N 0 0 0
0:00:00.00 280472 N 0 0 0
0:00:00.00 280708 N 0 0 0
0:00:00.00 280957 N 0 0 0
0:00:00.00 281203 N 0 0 0
0:00:00.00 281453 N 0 0 0
0:00:00.00 281700 N 0 0 0
0:00:00.00 281941 N 0 0 0
0:00:00.00 282193 N 0 0 0
0:00:00.00 282449 N 0 0 0
0:00:00.00 282695 N 0 0 0
0:00:00.00 282938 N 0 0 0
0:00:00.00 283185 N 0 0 0
0:00:00.00 283430 N 0 0 0
0:00:00.00 283682 N 0 0 0
0:00:00.00 283939 N 0 0 0
0:00:00.00 284189 N 0 0 0
0:00:00.00 284440 N 0 0 0
0:00:00.00 284643 N 0 0 0
0:00:00.00 284944 N 0 0 0
0:00:00.00 285143 N 0 0 0
0:00:00.00 285381 N 0 0 0
0:00:00.00 285683 N 0 0 0
0:00:00.00 285930 N 0 0 0
0:00:00.00 286177 N 0 0 0
0:00:00.00 286430 N 0 0 0
0:00:00.00 286673 N 0 0 0
0:00:00.00 286906 N 0 0 0
0:00:00.00 287159 N 0 0 0
0:00:00.00 287415 N 0 0 0
0:00:00.00 287660 N 0 0 0
0:00:00.00 287899 N 0 0 0
0:00:00.00 288146 N 0 0 0
0:00:00.00 288389 N 0 0 0
0:00:00.00 288637 N 0 0 0
0:00:00.00 288887 N 0 0 0
0:00:00.00 289138 N 0 0 0
0:00:00.00 289382 N 0 0 0
0:00:00.00 289638 N 0 0 0
0:00:00.00 289825 N 0 0 0
0:00:00.00 290011 N 0 0 0
0:00:00.00 290293 N 0 0 0
0:00:00.00 290583 N 0 0 0
0:00:00.00 290842 N 0 0 0
0:00:00.00 291100 N 0 0 0
0:00:00.00 291350 N 0 0 0
0:00:00.00 291598 N 0 0 0
0:00:00.00 291847 N 0 0 0
0:00:00.00 292108 N 0 0 0
0:00:00.00 292360 N 0 0 0
0:00:00.00 292599 N 0 0 0
0:00:00.00 292846 N 0 0 0
0:00:00.00 293094 N 0 0 0
0:00:00.00 293346 N 0 0 0
0:00:00.00 293596 N 0 0 0
0:00:00.00 293834 N 0 0 0
0:00:00.00 294077 N 0 0 0
0:00:00.00 294323 N 0 0 0
0:00:00.00 294579 N 0 0 0
0:00:00.00 294829 N 0 0 0
0:00:00.00 295069 N 0 0 0
0:00:00.00 295317 N 0 0 0
0:00:00.00 295560 N 0 0 0
0:00:00.00 295814 N 0 0 0
0:00:00.00 296044 N 0 0 0
0:00:00.00 296311 N 0 0 0
0:00:00.00 296557 N 0 0 0
0:00:00.00 296743 N 0 0 0
0:00:00.00 296941 N 0 0 0
0:00:00.00 297236 N 0 0 0
0:00:00.00 297520 N 0 0 0
0:00:00.00 297796 N 0 0 0
0:00:00.00 298055 N 0 0 0
0:00:00.00 298316 N 0 0 0
0:00:00.00 298528 N 0 0 0
0:00:00.00 298823 N 0 0 0
0:00:00.00 299054 N 0 0 0
0:00:00.00 299342 N 0 0 0
0:00:00.00 299581 N 0 0 0
0:00:00.00 299844 N 0 0 0
0:00:00.00 300082 N 0 0 0
0:00:00.00 300346 N 0 0 0
0:00:00.00 300589 N 0 0 0
0:00:00.00 300854 N 0 0 0
0:00:00.00 301086 N 0 0 0
0:00:00.00 301343 N 0 0 0
0:00:00.00 301572 N 0 0 0
0:00:00.00 301846 N 0 0 0
0:00:00.00 302071 N 0 0 0
0:00:00.00 302341 N 0 0 0
0:00:00.00 302584 N 0 0 0
0:00:00.00 302832 N 0 0 0
0:00:00.00 303050 N 0 0 0
0:00:00.00 303334 N 0 0 0
0:00:00.00 303579 N 0 0 0
0:00:00.00 303820 N 0 0 0
0:00:00.00 304015 N 0 0 0
0:00:00.00 304312 N 0 0 0
0:00:00.00 304562 N 0 0 0
0:00:00.00 304805 N 0 0 0
0:00:00.00 305057 N 0 0 0
0:00:00.00 305309 N 0 0 0
0:00:00.00 305564 N 0 0 0
0:00:00.00 305811 N 0 0 0
0:00:00.00 306067 N 0 0 0
0:00:00.00 306313 N 0 0 0
0:00:00.00 306574 N 0 0 0
0:00:00.00 306823 N 0 0 0
0:00:00.00 307067 N 0 0 0
0:00:00.00 307319 N 0 0 0
0:00:00.00 307570 N 0 0 0
0:00:00.00 307823 N 0 0 0
0:00:00.00 308021 N 0 0 0
0:00:00.00 308308 N 0 0 0
0:00:00.00 308525 N 0 0 0
0:00:00.00 308795 N 0 0 0
0:00:00.00 309049 N 0 0 0
0:00:00.00 309294 N 0 0 0
0:00:00.00 309533 N 0 0 0
0:00:00.00 309780 N 0 0 0
0:00:00.00 309956 N 0 0 0
0:00:00.00 310176 N 0 0 0
0:00:00.00 310486 N 0 0 0
0:00:00.00 310745 N 0 0 0
0:00:00.00 310990 N 0 0 0
0:00:00.00 311234 N 0 0 0
0:00:00.00 311495 N 0 0 0
0:00:00.00 311738 N 0 0 0
0:00:00.00 311980 N 0 0 0
0:00:00.00 312221 N 0 0 0
0:00:00.00 312469 N 0 0 0
0:00:00.00 312714 N 0 0 0
0:00:00.00 312959 N 0 0 0
0:00:00.00 313202 N 0 0 0
0:00:00.00 313445 N 0 0 0
0:00:00.00 313681 N 0 0 0
0:00:00.00 313938 N 0 0 0
0:00:00.00 314177 N 0 0 0
0:00:00.00 314422 N 0 0 0
0:00:00.00 314660 N 0 0 0
0:00:00.00 314912 N 0 0 0
0:00:00.00 315158 N 0 0 0
0:00:00.00 315405 N 0 0 0
0:00:00.00 315650 N 0 0 0
0:00:00.00 315853 N 0 0 0
0:00:00.00 316121 N 0 0 0
0:00:00.00 316388 N 0 0 0
0:00:00.00 316642 N 0 0 0
0:00:00.00 316886 N 0 0 0
0:00:00.00 317131 N 0 0 0
0:00:00.00 317380 N 0 0 0
0:00:00.00 317637 N 0 0 0
0:00:00.00 317882 N 0 0 0
0:00:00.00 318132 N 0 0 0
0:00:00.00 318377 N 0 0 0
0:00:00.00 318559 N 0 0 0
0:00:00.00 318839 N 0 0 0
0:00:00.00 319023 N 0 0 0
0:00:00.00 319297 N 0 0 0
0:00:00.00 319590 N 0 0 0
0:00:00.00 319840 N 0 0 0
0:00:00.00 320089 N 0 0 0
0:00:00.00 320350 N 0 0 0
0:00:00.00 320598 N 0 0 0
0:00:00.00 320843 N 0 0 0
0:00:00.00 321093 N 0 0 0
0:00:00.00 321350 N 0 0 0
0:00:00.00 321601 N 0 0 0
0:00:00.00 321844 N 0 0 0
0:00:00.00 322094 N 0 0 0
0:00:00.00 322344 N 0 0 0
0:00:00.00 322603 N 0 0 0
0:00:00.00 322796 N 0 0 0
0:00:00.00 323073 N 0 0 0
0:00:00.00 323271 N 0 0 0
0:00:00.00 323528 N 0 0 0
0:00:00.00 323870 N 0 0 0
0:00:00.00 324122 N 0 0 0
0:00:00.00 324337 N 0 0 0
0:00:00.00 324587 N 0 0 0
0:00:00.00 324869 N 0 0 0
0:00:00.00 325123 N 0 0 0
0:00:00.00 325373 N 0 0 0
0:00:00.00 325611 N 0 0 0
0:00:00.00 325858 N 0 0 0
0:00:00.00 326115 N 0 0 0
0:00:00.00 326360 N 0 0 0
0:00:00.00 326594 N 0 0 0
0:00:00.00 326846 N 0 0 0
0:00:00.00 327085 N 0 0 0
0:00:00.00 327343 N 0 0 0
0:00:00.00 327598 N 0 0 0
0:00:00.00 327847 N 0 0 0
0:00:00.00 328023 N 0 0 0
0:00:00.00 328230 N 0 0 0
0:00:00.00 328550 N 0 0 0
0:00:00.00 328813 N 0 0 0
0:00:00.00 329063 N 0 0 0
0:00:00.00 329314 N 0 0 0
0:00:00.00 329566 N 0 0 0
0:00:00.00 329821 N 0 0 0
0:00:00.00 330080 N 0 0 0
0:00:00.00 330329 N 0 0 0
0:00:00.00 330579 N 0 0 0
0:00:00.00 330838 N 0 0 0
0:00:00.00 331092 N 0 0 0
0:00:00.00 331339 N 0 0 0
0:00:00.00 331580 N 0 0 0
0:00:00.00 331834 N 0 0 0
0:00:00.00 332080 N 0 0 0
0:00:00.00 332330 N 0 0 0
0:00:00.00 332573 N 0 0 0
0:00:00.00 332813 N 0 0 0
0:00:00.00 333063 N 0 0 0
0:00:00.00 333315 N 0 0 0
0:00:00.00 333563 N 0 0 0
0:00:00.00 333803 N 0 0 0
0:00:00.00 334046 N 0 0 0
0:00:00.00 334285 N 0 0 0
0:00:00.00 334490 N 0 0 0
0:00:00.00 334773 N 0 0 0
0:00:00.00 334969 N 0 0 0
0:00:00.00 335293 N 0 0 0
0:00:00.00 335488 N 0 0 0
0:00:00.00 335810 N 0 0 0
0:00:00.00 336006 N 0 0 0
0:00:00.00 336314 N 0 0 0
0:00:00.00 336508 N 0 0 0
0:00:00.00 336814 N 0 0 0
0:00:00.00 336992 N 0 0 0
0:00:00.00 337331 N 0 0 0
0:00:00.00 337504 N 0 0 0
0:00:00.00 337826 N 0 0 0
0:00:00.00 338004 N 0 0 0
0:00:00.00 338341 N 0 0 0
0:00:00.00 338515 N 0 0 0
0:00:00.00 338834 N 0 0 0
0:00:00.00 339016 N 0 0 0
0:00:00.00 339338 N 0 0 0
0:00:00.00 339512 N 0 0 0
0:00:00.00 339768 N 0 0 0
0:00:00.00 340047 N 0 0 0
0:00:00.00 340304 N 0 0 0
0:00:00.00 340562 N 0 0 0
0:00:00.00 340814 N 0 0 0
0:00:00.00 341051 N 0 0 0
0:00:00.00 341293 N 0 0 0
0:00:00.00 341541 N 0 0 0
0:00:00.00 341786 N 0 0 0
0:00:00.00 342031 N 0 0 0
0:00:00.00 342275 N 0 0 0
0:00:00.00 342526 N 0 0 0
0:00:00.00 342765 N 0 0 0
0:00:00.00 343017 N 0 0 0
0:00:00.00 343265 N 0 0 0
0:00:00.00 343512 N 0 0 0
0:00:00.00 343759 N 0 0 0
0:00:00.00 344007 N 0 0 0
0:00:00.00 344255 N 0 0 0
0:00:00.00 344507 N 0 0 0
0:00:00.00 344758 N 0 0 0
0:00:00.00 345010 N 0 0 0
0:00:00.00 345260 N 0 0 0
0:00:00.00 345521 N 0 0 0
0:00:00.00 345746 N 0 0 0
0:00:00.00 346018 N 0 0 0
0:00:00.00 346268 N 0 0 0
0:00:00.00 346518 N 0 0 0
0:00:00.00 346770 N 0 0 0
0:00:00.00 347022 N 0 0 0
0:00:00.00 347267 N 0 0 0
0:00:00.00 347510 N 0 0 0
0:00:00.00 347762 N 0 0 0
0:00:00.00 348021 N 0 0 0
0:00:00.00 348264 N 0 0 0
0:00:00.00 348505 N 0 0 0
0:00:00.00 348750 N 0 0 0
0:00:00.00 348991 N 0 0 0
0:00:00.00 349245 N 0 0 0
0:00:00.00 349495 N 0 0 0
0:00:00.00 349740 N 0 0 0
0:00:00.00 349985 N 0 0 0
0:00:00.00 350237 N 0 0 0
0:00:00.00 350494 N 0 0 0
0:00:00.00 350741 N 0 0 0
0:00:00.00 350986 N 0 0 0
0:00:00.00 351229 N 0 0 0
0:00:00.00 351470 N 0 0 0
0:00:00.00 351718 N 0 0 0
0:00:00.00 351974 N 0 0 0
0:00:00.00 352179 N 0 0 0
0:00:00.00 352456 N 0 0 0
0:00:00.00 352683 N 0 0 0
0:00:00.00 352957 N 0 0 0
0:00:00.00 353207 N 0 0 0
0:00:00.00 353443 N 0 0 0
0:00:00.00 353689 N 0 0 0
0:00:00.00 353930 N 0 0 0
0:00:00.00 354173 N 0 0 0
0:00:00.00 354422 N 0 0 0
0:00:00.00 354663 N 0 0 0
0:00:00.00 354899 N 0 0 0
0:00:00.00 355144 N 0 0 0
0:00:00.00 355392 N 0 0 0
0:00:00.00 355637 N 0 0 0
0:00:00.00 355865 N 0 0 0
0:00:00.00 356110 N 0 0 0
0:00:00.00 356348 N 0 0 0
0:00:00.00 356596 N 0 0 0
0:00:00.00 356843 N 0 0 0
0:00:00.00 357088 N 0 0 0
0:00:00.00 357327 N 0 0 0
0:00:00.00 357588 N 0 0 0
0:00:00.00 357844 N 0 0 0
0:00:00.00 358094 N 0 0 0
0:00:00.00 358339 N 0 0 0
0:00:00.00 358592 N 0 0 0
0:00:00.00 358846 N 0 0 0
0:00:00.00 359098 N 0 0 0
0:00:00.00 359347 N 0 0 0
0:00:00.00 359591 N 0 0 0
0:00:00.00 359840 N 0 0 0
0:00:00.00 360101 N 0 0 0
0:00:00.00 360351 N 0 0 0
0:00:00.00 360603 N 0 0 0
0:00:00.00 360857 N 0 0 0
0:00:00.00 361102 N 0 0 0
0:00:00.00 361359 N 0 0 0
0:00:00.00 361620 N 0 0 0
0:00:00.00 361870 N 0 0 0
0:00:00.00 362119 N 0 0 0
0:00:00.00 362380 N 0 0 0
0:00:00.00 362644 N 0 0 0
0:00:00.00 362903 N 0 0 0
0:00:00.00 363152 N 0 0 0
0:00:00.00 363413 N 0 0 0
0:00:00.00 363672 N 0 0 0
0:00:00.00 363931 N 0 0 0
0:00:00.00 364111 N 0 0 0
0:00:00.00 364288 N 0 0 0
0:00:00.00 364660 N 0 0 0
0:00:00.00 364847 N 0 0 0
0:00:00.00 365119 N 0 0 0
0:00:00.00 365337 N 0 0 0
0:00:00.00 365708 N 0 0 0
0:00:00.00 365884 N 0 0 0
0:00:00.00 366221 N 0 0 0
0:00:00.00 366399 N 0 0 0
0:00:00.00 366678 N 0 0 0
0:00:00.00 366845 N 0 0 0
0:00:00.00 367204 N 0 0 0
0:00:00.00 367499 N 0 0 0
0:00:00.00 367747 N 0 0 0
0:00:00.00 367997 N 0 0 0
0:00:00.00 368246 N 0 0 0
0:00:00.00 368473 N 0 0 0
0:00:00.00 368741 N 0 0 0
0:00:00.00 368984 N 0 0 0
0:00:00.00 369232 N 0 0 0
0:00:00.00 369475 N 0 0 0
0:00:00.00 369731 N 0 0 0
0:00:00.00 369974 N 0 0 0
0:00:00.00 370202 N 0 0 0
0:00:00.00 370462 N 0 0 0
0:00:00.00 370683 N 0 0 0
0:00:00.00 370949 N 0 0 0
0:00:00.00 371209 N 0 0 0
0:00:00.00 371435 N 0 0 0
0:00:00.00 371698 N 0 0 0
0:00:00.00 371956 N 0 0 0
0:00:00.00 372213 N 0 0 0
0:00:00.00 372463 N 0 0 0
0:00:00.00 372704 N 0 0 0
0:00:00.00 372953 N 0 0 0
0:00:00.00 373196 N 0 0 0
0:00:00.00 373399 N 0 0 0
0:00:00.00 373702 N 0 0 0
0:00:00.00 373945 N 0 0 0
0:00:00.00 374157 N 0 0 0
0:00:00.00 374447 N 0 0 0
0:00:00.00 374701 N 0 0 0
0:00:00.00 374922 N 0 0 0
0:00:00.00 375194 N 0 0 0
0:00:00.00 375403 N 0 0 0
0:00:00.00 375673 N 0 0 0
0:00:00.00 375856 N 0 0 0
0:00:00.00 376088 N 0 0 0
0:00:00.00 376259 N 0 0 0
0:00:00.00 376475 N 0 0 0
0:00:00.00 376639 N 0 0 0
0:00:00.00 376862 N 0 0 0
0:00:00.00 377042 N 0 0 0
0:00:00.00 377264 N 0 0 0
0:00:00.00 377435 N 0 0 0
0:00:00.00 377662 N 0 0 0
0:00:00.00 377829 N 0 0 0
0:00:00.00 378050 N 0 0 0
0:00:00.00 378211 N 0 0 0
0:00:00.00 378457 N 0 0 0
0:00:00.00 378628 N 0 0 0
0:00:00.00 378855 N 0 0 0
0:00:00.00 379017 N 0 0 0
0:00:00.00 379256 N 0 0 0
0:00:00.00 379431 N 0 0 0
0:00:00.00 379661 N 0 0 0
0:00:00.00 379832 N 0 0 0
0:00:00.00 380048 N 0 0 0
0:00:00.00 380218 N 0 0 0
0:00:00.00 380461 N 0 0 0
0:00:00.00 380624 N 0 0 0
0:00:00.00 380867 N 0 0 0
0:00:00.00 381044 N 0 0 0
0:00:00.00 381272 N 0 0 0
0:00:00.00 381438 N 0 0 0
0:00:00.00 381679 N 0 0 0
0:00:00.00 381852 N 0 0 0
0:00:00.00 382091 N 0 0 0
0:00:00.00 382261 N 0 0 0
0:00:00.00 382477 N 0 0 0
0:00:00.00 382646 N 0 0 0
0:00:00.00 382887 N 0 0 0
0:00:00.00 383049 N 0 0 0
0:00:00.00 383292 N 0 0 0
0:00:00.00 383465 N 0 0 0
0:00:00.00 383699 N 0 0 0
0:00:00.00 383872 N 0 0 0
0:00:00.00 384115 N 0 0 0
0:00:00.00 384287 N 0 0 0
0:00:00.00 384541 N 0 0 0
0:00:00.00 384712 N 0 0 0
0:00:00.00 384953 N 0 0 0
0:00:00.00 385121 N 0 0 0
0:00:00.00 385380 N 0 0 0
0:00:00.00 385549 N 0 0 0
0:00:00.00 385821 N 0 0 0
0:00:00.00 385988 N 0 0 0
0:00:00.00 386251 N 0 0 0
0:00:00.00 386420 N 0 0 0
0:00:00.00 386680 N 0 0 0
0:00:00.00 386860 N 0 0 0
0:00:00.00 387103 N 0 0 0
0:00:00.00 387274 N 0 0 0
0:00:00.00 387520 N 0 0 0
0:00:00.00 387688 N 0 0 0
0:00:00.00 387958 N 0 0 0
0:00:00.00 388130 N 0 0 0
0:00:00.00 388408 N 0 0 0
0:00:00.00 388575 N 0 0 0
0:00:00.00 388861 N 0 0 0
0:00:00.00 389036 N 0 0 0
0:00:00.00 389412 N 0 0 0
0:00:00.00 389759 N 0 0 0
0:00:00.00 390017 N 0 0 0
0:00:00.00 390267 N 0 0 0
0:00:00.00 390524 N 0 0 0
0:00:00.00 390780 N 0 0 0
0:00:00.00 391028 N 0 0 0
0:00:00.00 391270 N 0 0 0
0:00:00.00 391525 N 0 0 0
0:00:00.00 391775 N 0 0 0
0:00:00.00 392022 N 0 0 0
0:00:00.00 392265 N 0 0 0
0:00:00.00 392515 N 0 0 0
0:00:00.00 392758 N 0 0 0
0:00:00.00 393008 N 0 0 0
0:00:00.00 393255 N 0 0 0
0:00:00.00 393505 N 0 0 0
0:00:00.00 393752 N 0 0 0
0:00:00.00 394011 N 0 0 0
0:00:00.00 394195 N 0 0 0
0:00:00.00 394470 N 0 0 0
0:00:00.00 394727 N 0 0 0
0:00:00.00 394990 N 0 0 0
0:00:00.00 395246 N 0 0 0
0:00:00.00 395503 N 0 0 0
0:00:00.00 395753 N 0 0 0
0:00:00.00 396004 N 0 0 0
0:00:00.00 396256 N 0 0 0
0:00:00.00 396513 N 0 0 0
0:00:00.00 396767 N 0 0 0
0:00:00.00 397010 N 0 0 0
0:00:00.00 397251 N 0 0 0
0:00:00.00 397498 N 0 0 0
0:00:00.00 397730 N 0 0 0
0:00:00.00 398000 N 0 0 0
0:00:00.00 398246 N 0 0 0
0:00:00.00 398495 N 0 0 0
0:00:00.00 398750 N 0 0 0
0:00:00.00 399004 N 0 0 0
0:00:00.00 399254 N 0 0 0
0:00:00.00 399496 N 0 0 0
0:00:00.00 399751 N 0 0 0
0:00:00.00 399998 N 0 0 0
0:00:00.00 400250 N 0 0 0
0:00:00.00 400496 N 0 0 0
0:00:00.00 400745 N 0 0 0
0:00:00.00 401002 N 0 0 0
0:00:00.00 401265 N 0 0 0
0:00:00.00 401519 N 0 0 0
0:00:00.00 401764 N 0 0 0
0:00:00.00 402017 N 0 0 0
0:00:00.00 402269 N 0 0 0
0:00:00.00 402523 N 0 0 0
0:00:00.00 402784 N 0 0 0
0:00:00.00 403034 N 0 0 0
0:00:00.00 403281 N 0 0 0
0:00:00.00 403538 N 0 0 0
0:00:00.00 403798 N 0 0 0
0:00:00.00 404051 N 0 0 0
0:00:00.00 404300 N 0 0 0
0:00:00.00 404550 N 0 0 0
0:00:00.00 404797 N 0 0 0
0:00:00.00 404969 N 0 0 0
0:00:00.00 405295 N 0 0 0
0:00:00.00 405477 N 0 0 0
0:00:00.00 405758 N 0 0 0
0:00:00.00 406057 N 0 0 0
0:00:00.00 406310 N 0 0 0
0:00:00.00 406562 N 0 0 0
0:00:00.00 406804 N 0 0 0
0:00:00.00 407057 N 0 0 0
0:00:00.00 407309 N 0 0 0
0:00:00.00 407558 N 0 0 0
0:00:00.00 407804 N 0 0 0
0:00:00.00 408046 N 0 0 0
0:00:00.00 408298 N 0 0 0
0:00:00.00 408559 N 0 0 0
0:00:00.00 408809 N 0 0 0
0:00:00.00 409050 N 0 0 0
0:00:00.00 409300 N 0 0 0
0:00:00.00 409552 N 0 0 0
0:00:00.00 409808 N 0 0 0
0:00:00.00 410067 N 0 0 0
0:00:00.00 410312 N 0 0 0
0:00:00.00 410557 N 0 0 0
0:00:00.00 410810 N 0 0 0
0:00:00.00 411066 N 0 0 0
0:00:00.00 411322 N 0 0 0
0:00:00.00 411565 N 0 0 0
0:00:00.00 411817 N 0 0 0
0:00:00.00 412056 N 0 0 0
0:00:00.00 412312 N 0 0 0
0:00:00.00 412562 N 0 0 0
0:00:00.00 412807 N 0 0 0
0:00:00.00 413042 N 0 0 0
0:00:00.00 413294 N 0 0 0
0:00:00.00 413550 N 0 0 0
0:00:00.00 413798 N 0 0 0
0:00:00.00 414040 N 0 0 0
0:00:00.00 414221 N 0 0 0
0:00:00.00 414495 N 0 0 0
0:00:00.00 414682 N 0 0 0
0:00:00.00 414945 N 0 0 0
0:00:00.00 415210 N 0 0 0
0:00:00.00 415517 N 0 0 0
0:00:00.00 415710 N 0 0 0
0:00:00.00 415994 N 0 0 0
0:00:00.00 416254 N 0 0 0
0:00:00.00 416511 N 0 0 0
0:00:00.00 416765 N 0 0 0
0:00:00.00 417017 N 0 0 0
0:00:00.00 417274 N 0 0 0
0:00:00.00 417532 N 0 0 0
0:00:00.00 417776 N 0 0 0
0:00:00.00 418028 N 0 0 0
0:00:00.00 418289 N 0 0 0
0:00:00.00 418541 N 0 0 0
0:00:00.00 418788 N 0 0 0
0:00:00.00 419033 N 0 0 0
0:00:00.00 419285 N 0 0 0
0:00:00.00 419537 N 0 0 0
0:00:00.00 419785 N 0 0 0
0:00:00.00 420037 N 0 0 0
0:00:00.00 420278 N 0 0 0
0:00:00.00 420523 N 0 0 0
0:00:00.00 420779 N 0 0 0
0:00:00.00 421029 N 0 0 0
0:00:00.00 421267 N 0 0 0
0:00:00.00 421511 N 0 0 0
0:00:00.00 421756 N 0 0 0
0:00:00.00 422014 N 0 0 0
0:00:00.00 422267 N 0 0 0
0:00:00.00 422521 N 0 0 0
0:00:00.00 422770 N 0 0 0
0:00:00.00 423025 N 0 0 0
0:00:00.00 423283 N 0 0 0
0:00:00.00 423531 N 0 0 0
0:00:00.00 423774 N 0 0 0
0:00:00.00 424024 N 0 0 0
0:00:00.00 424271 N 0 0 0
0:00:00.00 424458 N 0 0 0
0:00:00.00 424733 N 0 0 0
0:00:00.00 424910 N 0 0 0
0:00:00.00 425156 N 0 0 0
0:00:00.00 425515 N 0 0 0
0:00:00.00 425772 N 0 0 0
0:00:00.00 426017 N 0 0 0
0:00:00.00 426263 N 0 0 0
0:00:00.00 426510 N 0 0 0
0:00:00.00 426758 N 0 0 0
0:00:00.00 427010 N 0 0 0
0:00:00.00 427255 N 0 0 0
0:00:00.00 427502 N 0 0 0
0:00:00.00 427748 N 0 0 0
0:00:00.00 428008 N 0 0 0
0:00:00.00 428249 N 0 0 0
0:00:00.00 428494 N 0 0 0
0:00:00.00 428742 N 0 0 0
0:00:00.00 428985 N 0 0 0
0:00:00.00 429233 N 0 0 0
0:00:00.00 429485 N 0 0 0
0:00:00.00 429725 N 0 0 0
0:00:00.00 429966 N 0 0 0
0:00:00.00 430222 N 0 0 0
0:00:00.00 430483 N 0 0 0
0:00:00.00 430735 N 0 0 0
0:00:00.00 430974 N 0 0 0
0:00:00.00 431231 N 0 0 0
0:00:00.00 431482 N 0 0 0
0:00:00.00 431737 N 0 0 0
0:00:00.00 431991 N 0 0 0
0:00:00.00 432238 N 0 0 0
0:00:00.00 432484 N 0 0 0
0:00:00.00 432743 N 0 0 0
0:00:00.00 432997 N 0 0 0
0:00:00.00 433246 N 0 0 0
0:00:00.00 433492 N 0 0 0
0:00:00.00 433742 N 0 0 0
0:00:00.00 433996 N 0 0 0
0:00:00.00 434243 N 0 0 0
0:00:00.00 434489 N 0 0 0
0:00:00.00 434732 N 0 0 0
0:00:00.00 434979 N 0 0 0
0:00:00.00 435236 N 0 0 0
0:00:00.00 435485 N 0 0 0
0:00:00.00 435728 N 0 0 0
0:00:00.00 435974 N 0 0 0
0:00:00.00 436223 N 0 0 0
0:00:00.00 436475 N 0 0 0
0:00:00.00 436729 N 0 0 0
0:00:00.00 436972 N 0 0 0
0:00:00.00 437224 N 0 0 0
0:00:00.00 437468 N 0 0 0
0:00:00.00 437717 N 0 0 0
0:00:00.00 437965 N 0 0 0
0:00:00.00 438210 N 0 0 0
0:00:00.00 438460 N 0 0 0
0:00:00.00 438710 N 0 0 0
0:00:00.00 438968 N 0 0 0
0:00:00.00 439220 N 0 0 0
0:00:00.00 439466 N 0 0 0
0:00:00.00 439722 N 0 0 0
0:00:00.00 439979 N 0 0 0
0:00:00.00 440230 N 0 0 0
0:00:00.00 440476 N 0 0 0
0:00:00.00 440725 N 0 0 0
0:00:00.00 440975 N 0 0 0
0:00:00.00 441232 N 0 0 0
0:00:00.00 441488 N 0 0 0
0:00:00.00 441731 N 0 0 0
0:00:00.00 441979 N 0 0 0
0:00:00.00 442224 N 0 0 0
0:00:00.00 442481 N 0 0 0
0:00:00.00 442726 N 0 0 0
0:00:00.00 442964 N 0 0 0
0:00:00.00 443212 N 0 0 0
0:00:00.00 443461 N 0 0 0
0:00:00.00 443714 N 0 0 0
0:00:00.00 443972 N 0 0 0
0:00:00.00 444224 N 0 0 0
0:00:00.00 444470 N 0 0 0
0:00:00.00 444721 N 0 0 0
0:00:00.00 444983 N 0 0 0
0:00:00.00 445232 N 0 0 0
0:00:00.00 445473 N 0 0 0
0:00:00.00 445725 N 0 0 0
0:00:00.00 445973 N 0 0 0
0:00:00.00 446231 N 0 0 0
0:00:00.00 446490 N 0 0 0
0:00:00.00 446737 N 0 0 0
0:00:00.00 446985 N 0 0 0
0:00:00.00 447242 N 0 0 0
0:00:00.00 447502 N 0 0 0
0:00:00.00 447754 N 0 0 0
0:00:00.00 447998 N 0 0 0
0:00:00.00 448252 N 0 0 0
0:00:00.00 448501 N 0 0 0
0:00:00.00 448758 N 0 0 0
0:00:00.00 449010 N 0 0 0
0:00:00.00 449264 N 0 0 0
0:00:00.00 449509 N 0 0 0
0:00:00.00 449771 N 0 0 0
0:00:00.00 450025 N 0 0 0
0:00:00.00 450272 N 0 0 0
0:00:00.00 450513 N 0 0 0
0:00:00.00 450763 N 0 0 0
0:00:00.00 451004 N 0 0 0
0:00:00.00 451256 N 0 0 0
0:00:00.00 451501 N 0 0 0
0:00:00.00 451750 N 0 0 0
0:00:00.00 451998 N 0 0 0
0:00:00.00 452257 N 0 0 0
0:00:00.00 452506 N 0 0 0
0:00:00.00 452754 N 0 0 0
0:00:00.00 453001 N 0 0 0
0:00:00.00 453253 N 0 0 0
0:00:00.00 453508 N 0 0 0
0:00:00.00 453760 N 0 0 0
0:00:00.00 454007 N 0 0 0
0:00:00.00 454261 N 0 0 0
0:00:00.00 454516 N 0 0 0
0:00:00.00 454775 N 0 0 0
0:00:00.00 454990 N 0 0 0
0:00:00.00 455245 N 0 0 0
0:00:00.00 455522 N 0 0 0
0:00:00.00 455769 N 0 0 0
0:00:00.00 456034 N 0 0 0
0:00:00.00 456287 N 0 0 0
0:00:00.00 456541 N 0 0 0
0:00:00.00 456786 N 0 0 0
0:00:00.00 457047 N 0 0 0
0:00:00.00 457303 N 0 0 0
0:00:00.00 457549 N 0 0 0
0:00:00.00 457796 N 0 0 0
0:00:00.00 458041 N 0 0 0
0:00:00.00 458291 N 0 0 0
0:00:00.00 458537 N 0 0 0
0:00:00.00 458784 N 0 0 0
0:00:00.00 459031 N 0 0 0
0:00:00.00 459272 N 0 0 0
0:00:00.00 459531 N 0 0 0
0:00:00.00 459781 N 0 0 0
0:00:00.00 460021 N 0 0 0
0:00:00.00 460273 N 0 0 0
0:00:00.00 460521 N 0 0 0
0:00:00.00 460777 N 0 0 0
0:00:00.00 461032 N 0 0 0
0:00:00.00 461281 N 0 0 0
0:00:00.00 461522 N 0 0 0
0:00:00.00 461779 N 0 0 0
0:00:00.00 462038 N 0 0 0
0:00:00.00 462292 N 0 0 0
0:00:00.00 462541 N 0 0 0
0:00:00.00 462798 N 0 0 0
0:00:00.00 463050 N 0 0 0
0:00:00.00 463304 N 0 0 0
0:00:00.00 463549 N 0 0 0
0:00:00.00 463795 N 0 0 0
0:00:00.00 464038 N 0 0 0
0:00:00.00 464292 N 0 0 0
0:00:00.00 464537 N 0 0 0
0:00:00.00 464782 N 0 0 0
0:00:00.00 464971 N 0 0 0
0:00:00.00 465250 N 0 0 0
0:00:00.00 465449 N 0 0 0
0:00:00.00 465734 N 0 0 0
0:00:00.00 465912 N 0 0 0
0:00:00.00 466274 N 0 0 0
0:00:00.00 466450 N 0 0 0
0:00:00.00 466787 N 0 0 0
0:00:00.00 466967 N 0 0 0
0:00:00.00 467296 N 0 0 0
0:00:00.00 467469 N 0 0 0
0:00:00.00 467802 N 0 0 0
0:00:00.00 467977 N 0 0 0
0:00:00.00 468308 N 0 0 0
0:00:00.00 468484 N 0 0 0
0:00:00.00 468805 N 0 0 0
0:00:00.00 468990 N 0 0 0
0:00:00.00 469318 N 0 0 0
0:00:00.00 469498 N 0 0 0
0:00:00.00 469818 N 0 0 0
0:00:00.00 470003 N 0 0 0
0:00:00.00 470331 N 0 0 0
0:00:00.00 470513 N 0 0 0
0:00:00.00 470839 N 0 0 0
0:00:00.00 471011 N 0 0 0
0:00:00.00 471330 N 0 0 0
0:00:00.00 471519 N 0 0 0
0:00:00.00 471830 N 0 0 0
0:00:00.00 472000 N 0 0 0
0:00:00.00 472316 N 0 0 0
0:00:00.00 472496 N 0 0 0
0:00:00.00 472811 N 0 0 0
0:00:00.00 472997 N 0 0 0
0:00:00.00 473315 N 0 0 0
0:00:00.00 473485 N 0 0 0
0:00:00.00 473807 N 0 0 0
0:00:00.00 473989 N 0 0 0
0:00:00.00 474275 N 0 0 0
0:00:00.00 474444 N 0 0 0
0:00:00.00 474800 N 0 0 0
0:00:00.00 474980 N 0 0 0
0:00:00.00 475315 N 0 0 0
0:00:00.00 475501 N 0 0 0
0:00:00.00 475819 N 0 0 0
0:00:00.00 475999 N 0 0 0
0:00:00.00 476325 N 0 0 0
0:00:00.00 476503 N 0 0 0
0:00:00.00 476820 N 0 0 0
0:00:00.00 476989 N 0 0 0
0:00:00.00 477313 N 0 0 0
0:00:00.00 477491 N 0 0 0
0:00:00.00 477814 N 0 0 0
0:00:00.00 477990 N 0 0 0
0:00:00.00 478303 N 0 0 0
0:00:00.00 478501 N 0 0 0
0:00:00.00 478805 N 0 0 0
0:00:00.00 478987 N 0 0 0
0:00:00.00 479299 N 0 0 0
0:00:00.00 479477 N 0 0 0
0:00:00.00 479799 N 0 0 0
0:00:00.00 479979 N 0 0 0
0:00:00.00 480305 N 0 0 0
0:00:00.00 480479 N 0 0 0
0:00:00.00 480798 N 0 0 0
0:00:00.00 480980 N 0 0 0
0:00:00.00 481304 N 0 0 0
0:00:00.00 481484 N 0 0 0
0:00:00.00 481788 N 0 0 0
0:00:00.00 481963 N 0 0 0
0:00:00.00 482285 N 0 0 0
0:00:00.00 482467 N 0 0 0
0:00:00.00 482798 N 0 0 0
0:00:00.00 482972 N 0 0 0
0:00:00.00 483280 N 0 0 0
0:00:00.00 483471 N 0 0 0
0:00:00.00 483802 N 0 0 0
0:00:00.00 483982 N 0 0 0
0:00:00.00 484286 N 0 0 0
0:00:00.00 484463 N 0 0 0
0:00:00.00 484724 N 0 0 0
0:00:00.00 484913 N 0 0 0
0:00:00.00 485221 N 0 0 0
0:00:00.00 485401 N 0 0 0
0:00:00.00 485732 N 0 0 0
0:00:00.00 485912 N 0 0 0
0:00:00.00 486250 N 0 0 0
0:00:00.00 486432 N 0 0 0
0:00:00.00 486742 N 0 0 0
0:00:00.00 486922 N 0 0 0
0:00:00.00 487242 N 0 0 0
0:00:00.00 487433 N 0 0 0
0:00:00.00 487755 N 0 0 0
0:00:00.00 487937 N 0 0 0
0:00:00.00 488257 N 0 0 0
0:00:00.00 488443 N 0 0 0
0:00:00.00 488774 N 0 0 0
0:00:00.00 488956 N 0 0 0
0:00:00.00 489271 N 0 0 0
0:00:00.00 489449 N 0 0 0
0:00:00.00 489773 N 0 0 0
0:00:00.00 489951 N 0 0 0
0:00:00.00 490275 N 0 0 0
0:00:00.00 490451 N 0 0 0
0:00:00.00 490774 N 0 0 0
0:00:00.00 490961 N 0 0 0
0:00:00.00 491283 N 0 0 0
0:00:00.00 491468 N 0 0 0
0:00:00.00 491780 N 0 0 0
0:00:00.00 491965 N 0 0 0
0:00:00.00 492286 N 0 0 0
0:00:00.00 492482 N 0 0 0
0:00:00.00 492797 N 0 0 0
0:00:00.00 492973 N 0 0 0
0:00:00.00 493310 N 0 0 0
0:00:00.00 493501 N 0 0 0
0:00:00.00 493814 N 0 0 0
0:00:00.00 493996 N 0 0 0
0:00:00.00 494311 N 0 0 0
0:00:00.00 494485 N 0 0 0
0:00:00.00 494818 N 0 0 0
0:00:00.00 494998 N 0 0 0
0:00:00.00 495319 N 0 0 0
0:00:00.00 495495 N 0 0 0
0:00:00.00 495828 N 0 0 0
0:00:00.00 496010 N 0 0 0
0:00:00.00 496316 N 0 0 0
0:00:00.00 496498 N 0 0 0
0:00:00.00 496807 N 0 0 0
0:00:00.00 496993 N 0 0 0
0:00:00.00 497297 N 0 0 0
0:00:00.00 497479 N 0 0 0
0:00:00.00 497785 N 0 0 0
0:00:00.00 497965 N 0 0 0
0:00:00.00 498281 N 0 0 0
0:00:00.00 498461 N 0 0 0
0:00:00.00 498766 N 0 0 0
0:00:00.00 498937 N 0 0 0
0:00:00.00 499250 N 0 0 0
0:00:00.00 499433 N 0 0 0
0:00:00.00 499729 N 0 0 0
0:00:00.00 499903 N 0 0 0
0:00:00.00 500236 N 0 0 0
0:00:00.00 500418 N 0 0 0
0:00:00.00 500755 N 0 0 0
0:00:00.00 500935 N 0 0 0
0:00:00.00 501248 N 0 0 0
0:00:00.00 501424 N 0 0 0
0:00:00.00 501745 N 0 0 0
0:00:00.00 501926 N 0 0 0
0:00:00.00 502238 N 0 0 0
0:00:00.00 502411 N 0 0 0
0:00:00.00 502726 N 0 0 0
0:00:00.00 502909 N 0 0 0
0:00:00.00 503217 N 0 0 0
0:00:00.00 503395 N 0 0 0
0:00:00.00 503698 N 0 0 0
0:00:00.00 503887 N 0 0 0
0:00:00.00 504187 N 0 0 0
0:00:00.00 504362 N 0 0 0
0:00:00.00 504673 N 0 0 0
0:00:00.00 504853 N 0 0 0
0:00:00.00 505154 N 0 0 0
0:00:00.00 505341 N 0 0 0
0:00:00.00 505645 N 0 0 0
0:00:00.00 505825 N 0 0 0
0:00:00.00 506128 N 0 0 0
0:00:00.00 506320 N 0 0 0
0:00:00.00 506623 N 0 0 0
0:00:00.00 506803 N 0 0 0
0:00:00.00 507119 N 0 0 0
0:00:00.00 507294 N 0 0 0
0:00:00.00 507604 N 0 0 0
0:00:00.00 507793 N 0 0 0
0:00:00.00 508104 N 0 0 0
0:00:00.00 508277 N 0 0 0
0:00:00.00 508590 N 0 0 0
0:00:00.00 508774 N 0 0 0
0:00:00.00 509098 N 0 0 0
0:00:00.00 509279 N 0 0 0
0:00:00.00 509596 N 0 0 0
0:00:00.00 509776 N 0 0 0
0:00:00.00 510077 N 0 0 0
0:00:00.00 510277 N 0 0 0
0:00:00.00 510579 N 0 0 0
0:00:00.00 510752 N 0 0 0
0:00:00.00 511069 N 0 0 0
0:00:00.00 511247 N 0 0 0
0:00:00.00 511565 N 0 0 0
0:00:00.00 511753 N 0 0 0
0:00:00.00 512062 N 0 0 0
0:00:00.00 512242 N 0 0 0
0:00:00.00 512555 N 0 0 0
0:00:00.00 512750 N 0 0 0
0:00:00.00 513059 N 0 0 0
0:00:00.00 513238 N 0 0 0
0:00:00.00 513563 N 0 0 0
0:00:00.00 513742 N 0 0 0
0:00:00.00 514073 N 0 0 0
0:00:00.00 514262 N 0 0 0
0:00:00.00 514580 N 0 0 0
0:00:00.00 514759 N 0 0 0
0:00:00.00 515084 N 0 0 0
0:00:00.00 515272 N 0 0 0
0:00:00.00 515588 N 0 0 0
0:00:00.00 515763 N 0 0 0
0:00:00.00 516091 N 0 0 0
0:00:00.00 516267 N 0 0 0
0:00:00.00 516595 N 0 0 0
0:00:00.00 516782 N 0 0 0
0:00:00.00 517088 N 0 0 0
0:00:00.00 517268 N 0 0 0
0:00:00.00 517595 N 0 0 0
0:00:00.00 517781 N 0 0 0
0:00:00.00 518087 N 0 0 0
0:00:00.00 518265 N 0 0 0
0:00:00.00 518596 N 0 0 0
0:00:00.00 518776 N 0 0 0
0:00:00.00 519106 N 0 0 0
0:00:00.00 519282 N 0 0 0
0:00:00.00 519574 N 0 0 0
0:00:00.00 519773 N 0 0 0
0:00:00.00 520110 N 0 0 0
0:00:00.00 520292 N 0 0 0
0:00:00.00 520601 N 0 0 0
0:00:00.00 520783 N 0 0 0
0:00:00.00 521102 N 0 0 0
0:00:00.00 521284 N 0 0 0
0:00:00.00 521613 N 0 0 0
0:00:00.00 521861 N 0 0 0
0:00:00.00 522050 N 0 0 0
0:00:00.00 522353 N 0 0 0
0:00:00.00 522603 N 0 0 0
0:00:00.00 522846 N 0 0 0
0:00:00.00 523084 N 0 0 0
0:00:00.00 523328 N 0 0 0
0:00:00.00 523568 N 0 0 0
0:00:00.00 523814 N 0 0 0
0:00:00.00 524063 N 0 0 0
0:00:00.00 524306 N 0 0 0
0:00:00.00 524542 N 0 0 0
0:00:00.00 524786 N 0 0 0
0:00:00.00 525035 N 0 0 0
0:00:00.00 525280 N 0 0 0
0:00:00.00 525514 N 0 0 0
0:00:00.00 525753 N 0 0 0
0:00:00.00 525996 N 0 0 0
0:00:00.00 526241 N 0 0 0
0:00:00.00 526484 N 0 0 0
0:00:00.00 526736 N 0 0 0
0:00:00.00 526977 N 0 0 0
0:00:00.00 527233 N 0 0 0
0:00:00.00 527481 N 0 0 0
0:00:00.00 527726 N 0 0 0
0:00:00.00 527974 N 0 0 0
0:00:00.00 528217 N 0 0 0
0:00:00.00 528467 N 0 0 0
0:00:00.00 528719 N 0 0 0
0:00:00.00 528961 N 0 0 0
0:00:00.00 529200 N 0 0 0
0:00:00.00 529452 N 0 0 0
0:00:00.00 529709 N 0 0 0
0:00:00.00 529954 N 0 0 0
0:00:00.00 530197 N 0 0 0
0:00:00.00 530444 N 0 0 0
0:00:00.00 530689 N 0 0 0
0:00:00.00 530942 N 0 0 0
0:00:00.00 531198 N 0 0 0
0:00:00.00 531443 N 0 0 0
0:00:00.00 531684 N 0 0 0
0:00:00.00 531940 N 0 0 0
0:00:00.00 532195 N 0 0 0
0:00:00.00 532449 N 0 0 0
0:00:00.00 532687 N 0 0 0
0:00:00.00 532946 N 0 0 0
0:00:00.00 533191 N 0 0 0
0:00:00.00 533450 N 0 0 0
0:00:00.00 533700 N 0 0 0
0:00:00.00 533945 N 0 0 0
0:00:00.00 534200 N 0 0 0
0:00:00.00 534465 N 0 0 0
0:00:00.00 534724 N 0 0 0
0:00:00.00 534969 N 0 0 0
0:00:00.00 535232 N 0 0 0
0:00:00.00 535491 N 0 0 0
0:00:00.00 535687 N 0 0 0
0:00:00.00 535973 N 0 0 0
0:00:00.00 536420 N 0 0 0
0:00:00.00 536780 N 0 0 0
0:00:00.00 536987 N 0 0 0
0:00:00.00 537266 N 0 0 0
0:00:00.00 537536 N 0 0 0
0:00:00.00 537786 N 0 0 0
0:00:00.00 538040 N 0 0 0
0:00:00.00 538292 N 0 0 0
0:00:00.00 538465 N 0 0 0
0:00:00.00 538742 N 0 0 0
0:00:00.00 538920 N 0 0 0
0:00:00.00 539215 N 0 0 0
0:00:00.00 539521 N 0 0 0
0:00:00.00 539770 N 0 0 0
0:00:00.00 540022 N 0 0 0
0:00:00.00 540268 N 0 0 0
0:00:00.00 540517 N 0 0 0
0:00:00.00 540772 N 0 0 0
0:00:00.00 541012 N 0 0 0
0:00:00.00 541244 N 0 0 0
0:00:00.00 541487 N 0 0 0
0:00:00.00 541735 N 0 0 0
0:00:00.00 541973 N 0 0 0
0:00:00.00 542205 N 0 0 0
0:00:00.00 542452 N 0 0 0
0:00:00.00 542677 N 0 0 0
0:00:00.00 542938 N 0 0 0
0:00:00.00 543188 N 0 0 0
0:00:00.00 543424 N 0 0 0
0:00:00.00 543674 N 0 0 0
0:00:00.00 543926 N 0 0 0
0:00:00.00 544178 N 0 0 0
0:00:00.00 544421 N 0 0 0
0:00:00.00 544657 N 0 0 0
0:00:00.00 544905 N 0 0 0
0:00:00.00 545098 N 0 0 0
0:00:00.00 545375 N 0 0 0
0:00:00.00 545560 N 0 0 0
0:00:00.00 545798 N 0 0 0
0:00:00.00 546140 N 0 0 0
0:00:00.00 546394 N 0 0 0
0:00:00.00 546606 N 0 0 0
0:00:00.00 546894 N 0 0 0
0:00:00.00 547133 N 0 0 0
0:00:00.00 547364 N 0 0 0
0:00:00.00 547623 N 0 0 0
0:00:00.00 547877 N 0 0 0
0:00:00.00 548127 N 0 0 0
0:00:00.00 548381 N 0 0 0
0:00:00.00 548620 N 0 0 0
0:00:00.00 548865 N 0 0 0
0:00:00.00 549128 N 0 0 0
0:00:00.00 549347 N 0 0 0
0:00:00.00 549616 N 0 0 0
0:00:00.00 549866 N 0 0 0
0:00:00.00 550069 N 0 0 0
0:00:00.00 550363 N 0 0 0
0:00:00.00 550609 N 0 0 0
0:00:00.00 550796 N 0 0 0
0:00:00.00 551092 N 0 0 0
0:00:00.00 551302 N 0 0 0
0:00:00.00 551542 N 0 0 0
0:00:00.00 551902 N 0 0 0
0:00:00.00 552092 N 0 0 0
0:00:00.00 552713 N 0 0 0
0:00:00.00 552991 N 0 0 0
0:00:00.00 553241 N 0 0 0
0:00:00.00 553500 N 0 0 0
0:00:00.00 553754 N 0 0 0
0:00:00.00 554015 N 0 0 0
0:00:00.00 554261 N 0 0 0
0:00:00.00 554508 N 0 0 0
0:00:00.00 554760 N 0 0 0
0:00:00.00 555008 N 0 0 0
0:00:00.00 555203 N 0 0 0
0:00:00.00 555520 N 0 0 0
0:00:00.00 555773 N 0 0 0
0:00:00.00 555959 N 0 0 0
0:00:00.00 556285 N 0 0 0
0:00:00.00 556538 N 0 0 0
0:00:00.00 556709 N 0 0 0
0:00:00.00 557046 N 0 0 0
0:00:00.00 557253 N 0 0 0
0:00:00.00 557523 N 0 0 0
0:00:00.00 557840 N 0 0 0
0:00:00.00 558083 N 0 0 0
0:00:00.00 558272 N 0 0 0
0:00:00.00 558531 N 0 0 0
0:00:00.00 558720 N 0 0 0
0:00:00.00 558954 N 0 0 0
0:00:00.00 559130 N 0 0 0
0:00:00.00 559350 N 0 0 0
0:00:00.00 559744 N 0 0 0
0:00:00.00 560075 N 0 0 0
0:00:00.00 560282 N 0 0 0
0:00:00.00 560637 N 0 0 0
0:00:00.00 560907 N 0 0 0
0:00:00.00 561107 N 0 0 0
0:00:00.00 561447 N 0 0 0
0:00:00.00 561699 N 0 0 0
0:00:00.00 561892 N 0 0 0
0:00:00.00 562214 N 0 0 0
0:00:00.00 562473 N 0 0 0
0:00:00.00 562675 N 0 0 0
0:00:00.00 562972 N 0 0 0
0:00:00.00 563216 N 0 0 0
0:00:00.00 563418 N 0 0 0
0:00:00.00 563713 N 0 0 0
0:00:00.00 563963 N 0 0 0
0:00:00.00 564160 N 0 0 0
0:00:00.00 564449 N 0 0 0
0:00:00.00 564703 N 0 0 0
0:00:00.00 564896 N 0 0 0
0:00:00.00 565126 N 0 0 0
0:00:00.00 565411 N 0 0 0
0:00:00.00 565675 N 0 0 0
0:00:00.00 565938 N 0 0 0
0:00:00.00 566186 N 0 0 0
0:00:00.00 566426 N 0 0 0
0:00:00.00 566669 N 0 0 0
0:00:00.00 566908 N 0 0 0
0:00:00.00 567153 N 0 0 0
0:00:00.00 567407 N 0 0 0
0:00:00.00 567637 N 0 0 0
0:00:00.00 567869 N 0 0 0
0:00:00.00 568118 N 0 0 0
0:00:00.00 568368 N 0 0 0
0:00:00.00 568606 N 0 0 0
0:00:00.00 568840 N 0 0 0
0:00:00.00 569077 N 0 0 0
0:00:00.00 569317 N 0 0 0
0:00:00.00 569560 N 0 0 0
0:00:00.00 569810 N 0 0 0
0:00:00.00 570051 N 0 0 0
0:00:00.00 570289 N 0 0 0
0:00:00.00 570537 N 0 0 0
0:00:00.00 570793 N 0 0 0
0:00:00.00 571043 N 0 0 0
0:00:00.00 571286 N 0 0 0
0:00:00.00 571531 N 0 0 0
0:00:00.00 571781 N 0 0 0
0:00:00.00 572031 N 0 0 0
0:00:00.00 572279 N 0 0 0
0:00:00.00 572531 N 0 0 0
0:00:00.00 572774 N 0 0 0
0:00:00.00 573026 N 0 0 0
0:00:00.00 573278 N 0 0 0
0:00:00.00 573527 N 0 0 0
0:00:00.00 573772 N 0 0 0
0:00:00.00 574025 N 0 0 0
0:00:00.00 574281 N 0 0 0
0:00:00.00 574542 N 0 0 0
0:00:00.00 574796 N 0 0 0
0:00:00.00 575051 N 0 0 0
0:00:00.00 575314 N 0 0 0
0:00:00.00 575588 N 0 0 0
0:00:00.00 575806 N 0 0 0
0:00:00.00 576032 N 0 0 0
0:00:00.00 576360 N 0 0 0
0:00:00.00 576583 N 0 0 0
0:00:00.00 576905 N 0 0 0
0:00:00.00 577093 N 0 0 0
0:00:00.00 577341 N 0 0 0
0:00:00.00 577701 N 0 0 0
0:00:00.00 577971 N 0 0 0
0:00:00.00 578227 N 0 0 0
0:00:00.00 578482 N 0 0 0
0:00:00.00 578734 N 0 0 0
0:00:00.00 578990 N 0 0 0
0:00:00.00 579240 N 0 0 0
0:00:00.00 579505 N 0 0 0
0:00:00.00 579751 N 0 0 0
0:00:00.00 580000 N 0 0 0
0:00:00.00 580261 N 0 0 0
0:00:00.00 580513 N 0 0 0
0:00:00.00 580743 N 0 0 0
0:00:00.00 581004 N 0 0 0
0:00:00.00 581263 N 0 0 0
0:00:00.00 581510 N 0 0 0
0:00:00.00 581765 N 0 0 0
0:00:00.00 582014 N 0 0 0
0:00:00.00 582269 N 0 0 0
0:00:00.00 582512 N 0 0 0
0:00:00.00 582779 N 0 0 0
0:00:00.00 583031 N 0 0 0
0:00:00.00 583277 N 0 0 0
0:00:00.00 583528 N 0 0 0
0:00:00.00 583780 N 0 0 0
0:00:00.00 584030 N 0 0 0
0:00:00.00 584278 N 0 0 0
0:00:00.00 584519 N 0 0 0
0:00:00.00 584764 N 0 0 0
0:00:00.00 585005 N 0 0 0
0:00:00.00 585263 N 0 0 0
0:00:00.00 585511 N 0 0 0
0:00:00.00 585751 N 0 0 0
0:00:00.00 585999 N 0 0 0
0:00:00.00 586251 N 0 0 0
0:00:00.00 586503 N 0 0 0
0:00:00.00 586755 N 0 0 0
0:00:00.00 586939 N 0 0 0
0:00:00.00 587218 N 0 0 0
0:00:00.00 587414 N 0 0 0
0:00:00.00 587669 N 0 0 0
0:00:00.00 587997 N 0 0 0
0:00:00.00 588242 N 0 0 0
0:00:00.00 588494 N 0 0 0
0:00:00.00 588739 N 0 0 0
0:00:00.00 588996 N 0 0 0
0:00:00.00 589244 N 0 0 0
0:00:00.00 589491 N 0 0 0
0:00:00.00 589730 N 0 0 0
0:00:00.00 589982 N 0 0 0
0:00:00.00 590229 N 0 0 0
0:00:00.00 590476 N 0 0 0
0:00:00.00 590648 N 0 0 0
0:00:00.00 590918 N 0 0 0
0:00:00.00 591095 N 0 0 0
0:00:00.00 591350 N 0 0 0
0:00:00.00 591682 N 0 0 0
0:00:00.00 591932 N 0 0 0
0:00:00.00 592169 N 0 0 0
0:00:00.00 592393 N 0 0 0
0:00:00.00 592661 N 0 0 0
0:00:00.00 592916 N 0 0 0
0:00:00.00 593159 N 0 0 0
0:00:00.00 593402 N 0 0 0
0:00:00.00 593640 N 0 0 0
0:00:00.00 593888 N 0 0 0
0:00:00.00 594140 N 0 0 0
0:00:00.00 594385 N 0 0 0
0:00:00.00 594569 N 0 0 0
0:00:00.00 594859 N 0 0 0
0:00:00.00 595066 N 0 0 0
0:00:00.00 595292 N 0 0 0
0:00:00.00 595633 N 0 0 0
0:00:00.00 595829 N 0 0 0
0:00:00.00 596122 N 0 0 0
0:00:00.00 596293 N 0 0 0
0:00:00.00 596657 N 0 0 0
0:00:00.00 596830 N 0 0 0
0:00:00.00 597161 N 0 0 0
0:00:00.00 597346 N 0 0 0
0:00:00.00 597668 N 0 0 0
0:00:00.00 597838 N 0 0 0
0:00:00.00 598153 N 0 0 0
0:00:00.00 598325 N 0 0 0
0:00:00.00 598651 N 0 0 0
0:00:00.00 598833 N 0 0 0
0:00:00.00 599146 N 0 0 0
0:00:00.00 599319 N 0 0 0
0:00:00.00 599648 N 0 0 0
0:00:00.00 599828 N 0 0 0
0:00:00.00 600158 N 0 0 0
0:00:00.00 600334 N 0 0 0
0:00:00.00 600651 N 0 0 0
0:00:00.00 600829 N 0 0 0
0:00:00.00 601159 N 0 0 0
0:00:00.00 601333 N 0 0 0
0:00:00.00 601641 N 0 0 0
0:00:00.00 601823 N 0 0 0
0:00:00.00 602156 N 0 0 0
0:00:00.00 602332 N 0 0 0
0:00:00.00 602649 N 0 0 0
0:00:00.00 602827 N 0 0 0
0:00:00.00 603140 N 0 0 0
0:00:00.00 603322 N 0 0 0
0:00:00.00 603643 N 0 0 0
0:00:00.00 603823 N 0 0 0
0:00:00.00 604123 N 0 0 0
0:00:00.00 604309 N 0 0 0
0:00:00.00 604625 N 0 0 0
0:00:00.00 604809 N 0 0 0
0:00:00.00 605111 N 0 0 0
0:00:00.00 605601 N 0 0 0
0:00:00.00 605777 N 0 0 0
0:00:00.00 606094 N 0 0 0
0:00:00.00 606575 N 0 0 0
0:00:00.00 606753 N 0 0 0
0:00:00.00 607072 N 0 0 0
0:00:00.00 607253 N 0 0 0
0:00:00.00 607559 N 0 0 0
0:00:00.00 608058 N 0 0 0
0:00:00.00 608236 N 0 0 0
0:00:00.00 608558 N 0 0 0
0:00:00.00 608744 N 0 0 0
0:00:00.00 609046 N 0 0 0
0:00:00.00 609237 N 0 0 0
0:00:00.00 609550 N 0 0 0
0:00:00.00 609732 N 0 0 0
0:00:00.00 610034 N 0 0 0
0:00:00.00 610222 N 0 0 0
0:00:00.00 610537 N 0 0 0
0:00:00.00 610720 N 0 0 0
0:00:00.00 611032 N 0 0 0
0:00:00.00 611212 N 0 0 0
0:00:00.00 611527 N 0 0 0
0:00:00.00 611719 N 0 0 0
0:00:00.00 612013 N 0 0 0
0:00:00.00 612202 N 0 0 0
0:00:00.00 612506 N 0 0 0
0:00:00.00 612695 N 0 0 0
0:00:00.00 613015 N 0 0 0
0:00:00.00 613202 N 0 0 0
0:00:00.00 613505 N 0 0 0
0:00:00.00 613685 N 0 0 0
0:00:00.00 613994 N 0 0 0
0:00:00.00 614489 N 0 0 0
0:00:00.00 614668 N 0 0 0
0:00:00.00 614970 N 0 0 0
0:00:00.00 615152 N 0 0 0
0:00:00.00 615456 N 0 0 0
0:00:00.00 615955 N 0 0 0
0:00:00.00 616126 N 0 0 0
0:00:00.00 616446 N 0 0 0
0:00:00.00 616918 N 0 0 0
0:00:00.00 617182 N 0 0 0
0:00:00.00 617434 N 0 0 0
0:00:00.00 617679 N 0 0 0
0:00:00.00 617927 N 0 0 0
0:00:00.00 618187 N 0 0 0
0:00:00.00 618433 N 0 0 0
0:00:00.00 618629 N 0 0 0
0:00:00.00 618914 N 0 0 0
0:00:00.00 619189 N 0 0 0
0:00:00.00 619443 N 0 0 0
0:00:00.00 619691 N 0 0 0
0:00:00.00 619942 N 0 0 0
0:00:00.00 620120 N 0 0 0
0:00:00.00 620361 N 0 0 0
0:00:00.00 620678 N 0 0 0
0:00:00.00 620935 N 0 0 0
0:00:00.00 621185 N 0 0 0
0:00:00.00 621445 N 0 0 0
0:00:00.00 621702 N 0 0 0
0:00:00.00 621954 N 0 0 0
0:00:00.00 622199 N 0 0 0
0:00:00.00 622451 N 0 0 0
0:00:00.00 622701 N 0 0 0
0:00:00.00 622949 N 0 0 0
0:00:00.00 623201 N 0 0 0
0:00:00.00 623450 N 0 0 0
0:00:00.00 623696 N 0 0 0
0:00:00.00 623954 N 0 0 0
0:00:00.00 624209 N 0 0 0
0:00:00.00 624456 N 0 0 0
0:00:00.00 624703 N 0 0 0
0:00:00.00 624956 N 0 0 0
0:00:00.00 625207 N 0 0 0
0:00:00.00 625468 N 0 0 0
0:00:00.00 625716 N 0 0 0
0:00:00.00 625963 N 0 0 0
0:00:00.00 626224 N 0 0 0
0:00:00.00 626479 N 0 0 0
0:00:00.00 626737 N 0 0 0
0:00:00.00 626920 N 0 0 0
0:00:00.00 627203 N 0 0 0
0:00:00.00 627379 N 0 0 0
0:00:00.00 627613 N 0 0 0
0:00:00.00 627982 N 0 0 0
0:00:00.00 628164 N 0 0 0
0:00:00.00 628438 N 0 0 0
0:00:00.00 628742 N 0 0 0
0:00:00.00 628994 N 0 0 0
0:00:00.00 629237 N 0 0 0
0:00:00.00 629485 N 0 0 0
0:00:00.00 629728 N 0 0 0
0:00:00.00 629978 N 0 0 0
0:00:00.00 630234 N 0 0 0
0:00:00.00 630477 N 0 0 0
0:00:00.00 630718 N 0 0 0
0:00:00.00 630968 N 0 0 0
0:00:00.00 631222 N 0 0 0
0:00:00.00 631474 N 0 0 0
0:00:00.00 631717 N 0 0 0
0:00:00.00 631969 N 0 0 0
0:00:00.00 632216 N 0 0 0
0:00:00.00 632464 N 0 0 0
0:00:00.00 632718 N 0 0 0
0:00:00.00 632909 N 0 0 0
0:00:00.00 633188 N 0 0 0
0:00:00.00 633377 N 0 0 0
0:00:00.00 633614 N 0 0 0
0:00:00.00 633964 N 0 0 0
0:00:00.00 634212 N 0 0 0
0:00:00.00 634415 N 0 0 0
0:00:00.00 634716 N 0 0 0
0:00:00.00 634923 N 0 0 0
0:00:00.00 635152 N 0 0 0
0:00:00.00 635474 N 0 0 0
0:00:00.00 635735 N 0 0 0
0:00:00.00 635992 N 0 0 0
0:00:00.00 636246 N 0 0 0
0:00:00.00 636493 N 0 0 0
0:00:00.00 636739 N 0 0 0
0:00:00.00 636980 N 0 0 0
0:00:00.00 637236 N 0 0 0
0:00:00.00 637481 N 0 0 0
0:00:00.00 637724 N 0 0 0
0:00:00.00 637972 N 0 0 0
0:00:00.00 638219 N 0 0 0
0:00:00.00 638471 N 0 0 0
0:00:00.00 638721 N 0 0 0
0:00:00.00 638969 N 0 0 0
0:00:00.00 639225 N 0 0 0
0:00:00.00 639475 N 0 0 0
0:00:00.00 639734 N 0 0 0
0:00:00.00 639986 N 0 0 0
0:00:00.00 640231 N 0 0 0
0:00:00.00 640489 N 0 0 0
0:00:00.00 640746 N 0 0 0
0:00:00.00 640996 N 0 0 0
0:00:00.00 641241 N 0 0 0
0:00:00.00 641500 N 0 0 0
0:00:00.00 641750 N 0 0 0
0:00:00.00 642008 N 0 0 0
0:00:00.00 642267 N 0 0 0
0:00:00.00 642521 N 0 0 0
0:00:00.00 642767 N 0 0 0
0:00:00.00 643027 N 0 0 0
0:00:00.00 643282 N 0 0 0
0:00:00.00 643529 N 0 0 0
0:00:00.00 643775 N 0 0 0
0:00:00.00 644029 N 0 0 0
0:00:00.00 644285 N 0 0 0
0:00:00.00 644535 N 0 0 0
0:00:00.00 644785 N 0 0 0
0:00:00.00 645030 N 0 0 0
0:00:00.00 645280 N 0 0 0
0:00:00.00 645536 N 0 0 0
0:00:00.00 646033 N 0 0 0
0:00:00.00 646234 N 0 0 0
0:00:00.00 646463 N 0 0 0
0:00:00.00 646796 N 0 0 0
0:00:00.00 646990 N 0 0 0
0:00:00.00 647269 N 0 0 0
0:00:00.00 647564 N 0 0 0
0:00:00.00 647822 N 0 0 0
0:00:00.00 648079 N 0 0 0
0:00:00.00 648337 N 0 0 0
0:00:00.00 648587 N 0 0 0
0:00:00.00 648841 N 0 0 0
0:00:00.00 649094 N 0 0 0
0:00:00.00 649350 N 0 0 0
0:00:00.00 649600 N 0 0 0
0:00:00.00 649850 N 0 0 0
