0:00:00.00 9 N 0 0 0
0:00:00.00 81 N 0 0 0
0:00:00.00 160 N 0 0 0
0:00:00.00 434 N 0 0 0
0:00:00.00 727 N 0 0 0
0:00:00.00 1062 N 0 0 0
0:00:00.00 1366 N 0 0 0
0:00:00.00 1652 N 0 0 0
0:00:00.00 1937 N 0 0 0
0:00:00.00 2223 N 0 0 0
0:00:00.00 2502 N 0 0 0
0:00:00.00 2794 N 0 0 0
0:00:00.00 3096 N 0 0 0
0:00:00.00 3404 N 0 0 0
0:00:00.00 3695 N 0 0 0
0:00:00.00 3987 N 0 0 0
0:00:00.00 4277 N 0 0 0
0:00:00.00 4543 N 0 0 0
0:00:00.00 4820 N 0 0 0
0:00:00.00 5105 N 0 0 0
0:00:00.00 5443 N 0 0 0
0:00:00.00 5609 N 0 0 0
0:00:00.00 5787 N 0 0 0
0:00:00.00 6084 N 0 0 0
0:00:00.00 6304 N 0 0 0
0:00:00.00 6635 N 0 0 0
0:00:00.00 6829 N 0 0 0
0:00:00.00 7198 N 0 0 0
0:00:00.00 7420 N 0 0 0
0:00:00.00 7828 N 0 0 0
0:00:00.00 8033 N 0 0 0
0:00:00.00 8395 N 0 0 0
0:00:00.00 8588 N 0 0 0
0:00:00.00 8932 N 0 0 0
0:00:00.00 9135 N 0 0 0
0:00:00.00 9504 N 0 0 0
0:00:00.00 9715 N 0 0 0
0:00:00.00 10098 N 0 0 0
0:00:00.00 10310 N 0 0 0
0:00:00.00 10656 N 0 0 0
0:00:00.00 10849 N 0 0 0
0:00:00.00 11200 N 0 0 0
0:00:00.00 11398 N 0 0 0
0:00:00.00 11777 N 0 0 0
0:00:00.00 11997 N 0 0 0
0:00:00.00 12406 N 0 0 0
0:00:00.00 12715 N 0 0 0
0:00:00.00 13014 N 0 0 0
0:00:00.00 13289 N 0 0 0
0:00:00.00 13576 N 0 0 0
0:00:00.00 13898 N 0 0 0
0:00:00.00 14240 N 0 0 0
0:00:00.00 14569 N 0 0 0
0:00:00.00 14899 N 0 0 0
0:00:00.00 15192 N 0 0 0
0:00:00.00 15466 N 0 0 0
0:00:00.00 15757 N 0 0 0
0:00:00.00 16105 N 0 0 0
0:00:00.00 16396 N 0 0 0
0:00:00.00 16479 N 0 0 0
0:00:00.00 16825 N 0 0 0
0:00:00.00 17003 N 0 0 0
0:00:00.00 17077 N 0 0 0
0:00:00.00 17395 N 0 0 0
0:00:00.00 17681 N 0 0 0
0:00:00.00 17996 N 0 0 0
0:00:00.00 18364 N 0 0 0
0:00:00.00 18679 N 0 0 0
0:00:00.00 19127 N 0 0 0
0:00:00.00 19411 N 0 0 0
0:00:00.00 19694 N 0 0 0
0:00:00.00 19908 N 0 0 0
0:00:00.00 20160 N 0 0 0
0:00:00.00 20752 N 0 0 0
0:00:00.00 21123 N 0 0 0
0:00:00.00 21438 N 0 0 0
0:00:00.00 21710 N 0 0 0
0:00:00.00 22000 N 0 0 0
0:00:00.00 22307 N 0 0 0
0:00:00.00 22527 N 0 0 0
0:00:00.00 22630 N 0 0 0
0:00:00.00 22864 N 0 0 0
0:00:00.00 23287 N 0 0 0
0:00:00.00 23603 N 0 0 0
0:00:00.00 23893 N 0 0 0
0:00:00.00 24080 N 0 0 0
0:00:00.00 24475 N 0 0 0
0:00:00.00 24683 N 0 0 0
0:00:00.00 25110 N 0 0 0
0:00:00.00 25423 N 0 0 0
0:00:00.00 25736 N 0 0 0
0:00:00.00 26021 N 0 0 0
0:00:00.00 26303 N 0 0 0
0:00:00.00 26586 N 0 0 0
0:00:00.00 26888 N 0 0 0
0:00:00.00 27227 N 0 0 0
0:00:00.00 27556 N 0 0 0
0:00:00.00 27891 N 0 0 0
0:00:00.00 28172 N 0 0 0
0:00:00.00 28453 N 0 0 0
0:00:00.00 28737 N 0 0 0
0:00:00.00 29036 N 0 0 0
0:00:00.00 29354 N 0 0 0
0:00:00.00 29660 N 0 0 0
0:00:00.00 29876 N 0 0 0
0:00:00.00 30245 N 0 0 0
0:00:00.00 30535 N 0 0 0
0:00:00.00 30829 N 0 0 0
0:00:00.00 31127 N 0 0 0
0:00:00.00 31433 N 0 0 0
0:00:00.00 31736 N 0 0 0
0:00:00.00 31946 N 0 0 0
0:00:00.00 32328 N 0 0 0
0:00:00.00 32515 N 0 0 0
0:00:00.00 32891 N 0 0 0
0:00:00.00 33183 N 0 0 0
0:00:00.00 33482 N 0 0 0
0:00:00.00 33687 N 0 0 0
0:00:00.00 34117 N 0 0 0
0:00:00.00 34339 N 0 0 0
0:00:00.00 34722 N 0 0 0
0:00:00.00 34913 N 0 0 0
0:00:00.00 35293 N 0 0 0
0:00:00.00 35505 N 0 0 0
0:00:00.00 35939 N 0 0 0
0:00:00.00 36189 N 0 0 0
0:00:00.00 36608 N 0 0 0
0:00:00.00 36808 N 0 0 0
0:00:00.00 37184 N 0 0 0
0:00:00.00 37420 N 0 0 0
0:00:00.00 37883 N 0 0 0
0:00:00.00 38124 N 0 0 0
0:00:00.00 38592 N 0 0 0
0:00:00.00 38806 N 0 0 0
0:00:00.00 39172 N 0 0 0
0:00:00.00 39371 N 0 0 0
0:00:00.00 39839 N 0 0 0
0:00:00.00 40086 N 0 0 0
0:00:00.00 40568 N 0 0 0
0:00:00.00 40786 N 0 0 0
0:00:00.00 41220 N 0 0 0
0:00:00.00 41566 N 0 0 0
0:00:00.00 42001 N 0 0 0
0:00:00.00 42410 N 0 0 0
0:00:00.00 42763 N 0 0 0
0:00:00.00 43087 N 0 0 0
0:00:00.00 43391 N 0 0 0
0:00:00.00 43704 N 0 0 0
0:00:00.00 44078 N 0 0 0
0:00:00.00 44471 N 0 0 0
0:00:00.00 44807 N 0 0 0
0:00:00.00 45113 N 0 0 0
0:00:00.00 45418 N 0 0 0
0:00:00.00 45738 N 0 0 0
0:00:00.00 46057 N 0 0 0
0:00:00.00 46400 N 0 0 0
0:00:00.00 46643 N 0 0 0
0:00:00.00 47070 N 0 0 0
0:00:00.00 47281 N 0 0 0
0:00:00.00 47650 N 0 0 0
0:00:00.00 47869 N 0 0 0
0:00:00.00 48258 N 0 0 0
0:00:00.00 48569 N 0 0 0
0:00:00.00 48901 N 0 0 0
0:00:00.00 49223 N 0 0 0
0:00:00.00 49520 N 0 0 0
0:00:00.00 49790 N 0 0 0
0:00:00.00 50076 N 0 0 0
0:00:00.00 50377 N 0 0 0
0:00:00.00 50674 N 0 0 0
0:00:00.00 50996 N 0 0 0
0:00:00.00 51316 N 0 0 0
0:00:00.00 51617 N 0 0 0
0:00:00.00 51887 N 0 0 0
0:00:00.00 52090 N 0 0 0
0:00:00.00 52481 N 0 0 0
0:00:00.00 52693 N 0 0 0
0:00:00.00 53118 N 0 0 0
0:00:00.00 53325 N 0 0 0
0:00:00.00 53726 N 0 0 0
0:00:00.00 54009 N 0 0 0
0:00:00.00 54295 N 0 0 0
0:00:00.00 54524 N 0 0 0
0:00:00.00 54938 N 0 0 0
0:00:00.00 55262 N 0 0 0
0:00:00.00 55566 N 0 0 0
0:00:00.00 55877 N 0 0 0
0:00:00.00 56183 N 0 0 0
0:00:00.00 56392 N 0 0 0
0:00:00.00 56745 N 0 0 0
0:00:00.00 57028 N 0 0 0
0:00:00.00 57317 N 0 0 0
0:00:00.00 57607 N 0 0 0
0:00:00.00 57834 N 0 0 0
0:00:00.00 58190 N 0 0 0
0:00:00.00 58460 N 0 0 0
0:00:00.00 58712 N 0 0 0
0:00:00.00 58934 N 0 0 0
0:00:00.00 59330 N 0 0 0
0:00:00.00 59663 N 0 0 0
0:00:00.00 59990 N 0 0 0
0:00:00.00 60280 N 0 0 0
0:00:00.00 60556 N 0 0 0
0:00:00.00 60752 N 0 0 0
0:00:00.00 61117 N 0 0 0
0:00:00.00 61342 N 0 0 0
0:00:00.00 61789 N 0 0 0
0:00:00.00 62129 N 0 0 0
0:00:00.00 62429 N 0 0 0
0:00:00.00 62707 N 0 0 0
0:00:00.00 62995 N 0 0 0
0:00:00.00 63302 N 0 0 0
0:00:00.00 63677 N 0 0 0
0:00:00.00 64004 N 0 0 0
0:00:00.00 64328 N 0 0 0
0:00:00.00 64611 N 0 0 0
0:00:00.00 64685 N 0 0 0
0:00:00.00 64760 N 0 0 0
0:00:00.00 64838 N 0 0 0
0:00:00.00 64926 N 0 0 0
0:00:00.00 65225 N 0 0 0
0:00:00.00 65574 N 0 0 0
0:00:00.00 65869 N 0 0 0
0:00:00.00 66269 N 0 0 0
0:00:00.00 66602 N 0 0 0
0:00:00.00 66920 N 0 0 0
0:00:00.00 67216 N 0 0 0
0:00:00.00 67532 N 0 0 0
0:00:00.00 67873 N 0 0 0
0:00:00.00 68233 N 0 0 0
0:00:00.00 68546 N 0 0 0
0:00:00.00 68866 N 0 0 0
0:00:00.00 69161 N 0 0 0
0:00:00.00 69446 N 0 0 0
0:00:00.00 69658 N 0 0 0
0:00:00.00 70063 N 0 0 0
0:00:00.00 70412 N 0 0 0
0:00:00.00 70751 N 0 0 0
0:00:00.00 71062 N 0 0 0
0:00:00.00 71336 N 0 0 0
0:00:00.00 71590 N 0 0 0
0:00:00.00 71915 N 0 0 0
0:00:00.00 72212 N 0 0 0
0:00:00.00 72481 N 0 0 0
0:00:00.00 72877 N 0 0 0
0:00:00.00 73179 N 0 0 0
0:00:00.00 73458 N 0 0 0
0:00:00.00 73730 N 0 0 0
0:00:00.00 74032 N 0 0 0
0:00:00.00 74353 N 0 0 0
0:00:00.00 74707 N 0 0 0
0:00:00.00 74954 N 0 0 0
0:00:00.00 75350 N 0 0 0
0:00:00.00 75631 N 0 0 0
0:00:00.00 75913 N 0 0 0
0:00:00.00 76208 N 0 0 0
0:00:00.00 76543 N 0 0 0
0:00:00.00 76887 N 0 0 0
0:00:00.00 77211 N 0 0 0
0:00:00.00 77517 N 0 0 0
0:00:00.00 77816 N 0 0 0
0:00:00.00 78016 N 0 0 0
0:00:00.00 78390 N 0 0 0
0:00:00.00 78595 N 0 0 0
0:00:00.00 79004 N 0 0 0
0:00:00.00 79312 N 0 0 0
0:00:00.00 79614 N 0 0 0
0:00:00.00 79807 N 0 0 0
0:00:00.00 80163 N 0 0 0
0:00:00.00 80442 N 0 0 0
0:00:00.00 80725 N 0 0 0
0:00:00.00 81045 N 0 0 0
0:00:00.00 81392 N 0 0 0
0:00:00.00 81729 N 0 0 0
0:00:00.00 82012 N 0 0 0
0:00:00.00 82273 N 0 0 0
0:00:00.00 82472 N 0 0 0
0:00:00.00 82859 N 0 0 0
0:00:00.00 83084 N 0 0 0
0:00:00.00 83525 N 0 0 0
0:00:00.00 83871 N 0 0 0
0:00:00.00 84159 N 0 0 0
0:00:00.00 84427 N 0 0 0
0:00:00.00 84739 N 0 0 0
0:00:00.00 84956 N 0 0 0
0:00:00.00 85383 N 0 0 0
0:00:00.00 85714 N 0 0 0
0:00:00.00 86040 N 0 0 0
0:00:00.00 86317 N 0 0 0
0:00:00.00 86587 N 0 0 0
0:00:00.00 86744 N 0 0 0
0:00:00.00 86882 N 0 0 0
0:00:00.00 87017 N 0 0 0
0:00:00.00 87188 N 0 0 0
0:00:00.00 87532 N 0 0 0
0:00:00.00 87865 N 0 0 0
0:00:00.00 88227 N 0 0 0
0:00:00.00 88569 N 0 0 0
0:00:00.00 88873 N 0 0 0
0:00:00.00 89194 N 0 0 0
0:00:00.00 89514 N 0 0 0
0:00:00.00 89881 N 0 0 0
0:00:00.00 90223 N 0 0 0
0:00:00.00 90491 N 0 0 0
0:00:00.00 90929 N 0 0 0
0:00:00.00 91235 N 0 0 0
0:00:00.00 91544 N 0 0 0
0:00:00.00 91879 N 0 0 0
0:00:00.00 92236 N 0 0 0
0:00:00.00 92574 N 0 0 0
0:00:00.00 92875 N 0 0 0
0:00:00.00 93191 N 0 0 0
0:00:00.00 93490 N 0 0 0
0:00:00.00 93778 N 0 0 0
0:00:00.00 94088 N 0 0 0
0:00:00.00 94408 N 0 0 0
0:00:00.00 94709 N 0 0 0
0:00:00.00 94995 N 0 0 0
0:00:00.00 95281 N 0 0 0
0:00:00.00 95580 N 0 0 0
0:00:00.00 95800 N 0 0 0
0:00:00.00 96212 N 0 0 0
0:00:00.00 96520 N 0 0 0
0:00:00.00 96809 N 0 0 0
0:00:00.00 97096 N 0 0 0
0:00:00.00 97387 N 0 0 0
0:00:00.00 97681 N 0 0 0
0:00:00.00 97976 N 0 0 0
0:00:00.00 98298 N 0 0 0
0:00:00.00 98599 N 0 0 0
0:00:00.00 98899 N 0 0 0
0:00:00.00 99200 N 0 0 0
0:00:00.00 99493 N 0 0 0
0:00:00.00 99686 N 0 0 0
0:00:00.00 99758 N 0 0 0
0:00:00.00 100040 N 0 0 0
0:00:00.00 100112 N 0 0 0
0:00:00.00 100309 N 0 0 0
0:00:00.00 100705 N 0 0 0
0:00:00.00 100964 N 0 0 0
0:00:00.00 101036 N 0 0 0
0:00:00.00 101230 N 0 0 0
0:00:00.00 101331 N 0 0 0
0:00:00.00 101403 N 0 0 0
0:00:00.00 101477 N 0 0 0
0:00:00.00 101608 N 0 0 0
0:00:00.00 101887 N 0 0 0
0:00:00.00 102163 N 0 0 0
0:00:00.00 102472 N 0 0 0
0:00:00.00 102780 N 0 0 0
0:00:00.00 103099 N 0 0 0
0:00:00.00 103388 N 0 0 0
0:00:00.00 103664 N 0 0 0
0:00:00.00 103939 N 0 0 0
0:00:00.00 104225 N 0 0 0
0:00:00.00 104544 N 0 0 0
0:00:00.00 104861 N 0 0 0
0:00:00.00 105163 N 0 0 0
0:00:00.00 105451 N 0 0 0
0:00:00.00 105658 N 0 0 0
0:00:00.00 106047 N 0 0 0
0:00:00.00 106355 N 0 0 0
0:00:00.00 106654 N 0 0 0
0:00:00.00 106981 N 0 0 0
0:00:00.00 107291 N 0 0 0
0:00:00.00 107474 N 0 0 0
0:00:00.00 107890 N 0 0 0
0:00:00.00 108158 N 0 0 0
0:00:00.00 108482 N 0 0 0
0:00:00.00 108772 N 0 0 0
0:00:00.00 109093 N 0 0 0
0:00:00.00 109413 N 0 0 0
0:00:00.00 109633 N 0 0 0
0:00:00.00 110003 N 0 0 0
0:00:00.00 110194 N 0 0 0
0:00:00.00 110569 N 0 0 0
0:00:00.00 110867 N 0 0 0
0:00:00.00 111186 N 0 0 0
0:00:00.00 111526 N 0 0 0
0:00:00.00 111839 N 0 0 0
0:00:00.00 112135 N 0 0 0
0:00:00.00 112374 N 0 0 0
0:00:00.00 112678 N 0 0 0
0:00:00.00 113004 N 0 0 0
0:00:00.00 113312 N 0 0 0
0:00:00.00 113621 N 0 0 0
0:00:00.00 113922 N 0 0 0
0:00:00.00 114201 N 0 0 0
0:00:00.00 114464 N 0 0 0
0:00:00.00 114725 N 0 0 0
0:00:00.00 115065 N 0 0 0
0:00:00.00 115366 N 0 0 0
0:00:00.00 115702 N 0 0 0
0:00:00.00 115997 N 0 0 0
0:00:00.00 116303 N 0 0 0
0:00:00.00 116388 N 0 0 0
0:00:00.00 116573 N 0 0 0
0:00:00.00 116872 N 0 0 0
0:00:00.00 117153 N 0 0 0
0:00:00.00 117459 N 0 0 0
0:00:00.00 117765 N 0 0 0
0:00:00.00 118055 N 0 0 0
0:00:00.00 118237 N 0 0 0
0:00:00.00 118654 N 0 0 0
0:00:00.00 118921 N 0 0 0
0:00:00.00 119185 N 0 0 0
0:00:00.00 119462 N 0 0 0
0:00:00.00 119788 N 0 0 0
0:00:00.00 119995 N 0 0 0
0:00:00.00 120096 N 0 0 0
0:00:00.00 120400 N 0 0 0
0:00:00.00 120679 N 0 0 0
0:00:00.00 120944 N 0 0 0
0:00:00.00 121210 N 0 0 0
0:00:00.00 121486 N 0 0 0
0:00:00.00 121786 N 0 0 0
0:00:00.00 122125 N 0 0 0
0:00:00.00 122441 N 0 0 0
0:00:00.00 122737 N 0 0 0
0:00:00.00 123019 N 0 0 0
0:00:00.00 123298 N 0 0 0
0:00:00.00 123505 N 0 0 0
0:00:00.00 123880 N 0 0 0
0:00:00.00 124105 N 0 0 0
0:00:00.00 124495 N 0 0 0
0:00:00.00 124677 N 0 0 0
0:00:00.00 125078 N 0 0 0
0:00:00.00 125273 N 0 0 0
0:00:00.00 125633 N 0 0 0
0:00:00.00 125833 N 0 0 0
0:00:00.00 126214 N 0 0 0
0:00:00.00 126434 N 0 0 0
0:00:00.00 126864 N 0 0 0
0:00:00.00 127071 N 0 0 0
0:00:00.00 127429 N 0 0 0
0:00:00.00 127620 N 0 0 0
0:00:00.00 128002 N 0 0 0
0:00:00.00 128219 N 0 0 0
0:00:00.00 128745 N 0 0 0
0:00:00.00 129001 N 0 0 0
0:00:00.00 129413 N 0 0 0
0:00:00.00 129616 N 0 0 0
0:00:00.00 130003 N 0 0 0
0:00:00.00 130246 N 0 0 0
0:00:00.00 130829 N 0 0 0
0:00:00.00 131125 N 0 0 0
0:00:00.00 131549 N 0 0 0
0:00:00.00 131742 N 0 0 0
0:00:00.00 132104 N 0 0 0
0:00:00.00 132313 N 0 0 0
0:00:00.00 132759 N 0 0 0
0:00:00.00 133015 N 0 0 0
0:00:00.00 133501 N 0 0 0
0:00:00.00 133688 N 0 0 0
0:00:00.00 133776 N 0 0 0
0:00:00.00 134127 N 0 0 0
0:00:00.00 134350 N 0 0 0
0:00:00.00 134761 N 0 0 0
0:00:00.00 135000 N 0 0 0
0:00:00.00 135490 N 0 0 0
0:00:00.00 135709 N 0 0 0
0:00:00.00 135785 N 0 0 0
0:00:00.00 136139 N 0 0 0
0:00:00.00 136343 N 0 0 0
0:00:00.00 136726 N 0 0 0
0:00:00.00 136948 N 0 0 0
0:00:00.00 137356 N 0 0 0
0:00:00.00 137617 N 0 0 0
0:00:00.00 138087 N 0 0 0
0:00:00.00 138299 N 0 0 0
0:00:00.00 138663 N 0 0 0
0:00:00.00 138870 N 0 0 0
0:00:00.00 139266 N 0 0 0
0:00:00.00 139484 N 0 0 0
0:00:00.00 139930 N 0 0 0
0:00:00.00 140152 N 0 0 0
0:00:00.00 140719 N 0 0 0
0:00:00.00 141115 N 0 0 0
0:00:00.00 141334 N 0 0 0
0:00:00.00 141746 N 0 0 0
0:00:00.00 141971 N 0 0 0
0:00:00.00 142384 N 0 0 0
0:00:00.00 142585 N 0 0 0
0:00:00.00 142954 N 0 0 0
0:00:00.00 143172 N 0 0 0
0:00:00.00 143584 N 0 0 0
0:00:00.00 143800 N 0 0 0
0:00:00.00 144196 N 0 0 0
0:00:00.00 144437 N 0 0 0
0:00:00.00 144833 N 0 0 0
0:00:00.00 145035 N 0 0 0
0:00:00.00 145408 N 0 0 0
0:00:00.00 145633 N 0 0 0
0:00:00.00 146030 N 0 0 0
0:00:00.00 146246 N 0 0 0
0:00:00.00 146671 N 0 0 0
0:00:00.00 146876 N 0 0 0
0:00:00.00 147238 N 0 0 0
0:00:00.00 147440 N 0 0 0
0:00:00.00 148081 N 0 0 0
0:00:00.00 148459 N 0 0 0
0:00:00.00 148682 N 0 0 0
0:00:00.00 149063 N 0 0 0
0:00:00.00 149263 N 0 0 0
0:00:00.00 149630 N 0 0 0
0:00:00.00 149855 N 0 0 0
0:00:00.00 150248 N 0 0 0
0:00:00.00 150460 N 0 0 0
0:00:00.00 150869 N 0 0 0
0:00:00.00 151108 N 0 0 0
0:00:00.00 151502 N 0 0 0
0:00:00.00 151713 N 0 0 0
0:00:00.00 152104 N 0 0 0
0:00:00.00 152330 N 0 0 0
0:00:00.00 152744 N 0 0 0
0:00:00.00 153000 N 0 0 0
0:00:00.00 153410 N 0 0 0
0:00:00.00 153617 N 0 0 0
0:00:00.00 154201 N 0 0 0
0:00:00.00 154640 N 0 0 0
0:00:00.00 154876 N 0 0 0
0:00:00.00 155284 N 0 0 0
0:00:00.00 155592 N 0 0 0
0:00:00.00 155898 N 0 0 0
0:00:00.00 156181 N 0 0 0
0:00:00.00 156533 N 0 0 0
0:00:00.00 156888 N 0 0 0
0:00:00.00 157068 N 0 0 0
0:00:00.00 157486 N 0 0 0
0:00:00.00 157806 N 0 0 0
0:00:00.00 158135 N 0 0 0
0:00:00.00 158436 N 0 0 0
0:00:00.00 158758 N 0 0 0
0:00:00.00 158974 N 0 0 0
0:00:00.00 159388 N 0 0 0
0:00:00.00 159579 N 0 0 0
0:00:00.00 159977 N 0 0 0
0:00:00.00 160288 N 0 0 0
0:00:00.00 160591 N 0 0 0
0:00:00.00 160902 N 0 0 0
0:00:00.00 161208 N 0 0 0
0:00:00.00 161433 N 0 0 0
0:00:00.00 161843 N 0 0 0
0:00:00.00 162151 N 0 0 0
0:00:00.00 162446 N 0 0 0
0:00:00.00 162747 N 0 0 0
0:00:00.00 163048 N 0 0 0
0:00:00.00 163264 N 0 0 0
0:00:00.00 163687 N 0 0 0
0:00:00.00 163987 N 0 0 0
0:00:00.00 164272 N 0 0 0
0:00:00.00 164551 N 0 0 0
0:00:00.00 164860 N 0 0 0
0:00:00.00 165191 N 0 0 0
0:00:00.00 165386 N 0 0 0
0:00:00.00 165825 N 0 0 0
0:00:00.00 166122 N 0 0 0
0:00:00.00 166403 N 0 0 0
0:00:00.00 166698 N 0 0 0
0:00:00.00 166991 N 0 0 0
0:00:00.00 167213 N 0 0 0
0:00:00.00 167625 N 0 0 0
0:00:00.00 167936 N 0 0 0
0:00:00.00 168257 N 0 0 0
0:00:00.00 168543 N 0 0 0
0:00:00.00 168838 N 0 0 0
0:00:00.00 169132 N 0 0 0
0:00:00.00 169344 N 0 0 0
0:00:00.00 169740 N 0 0 0
0:00:00.00 170055 N 0 0 0
0:00:00.00 170377 N 0 0 0
0:00:00.00 170651 N 0 0 0
0:00:00.00 170950 N 0 0 0
0:00:00.00 171248 N 0 0 0
0:00:00.00 171565 N 0 0 0
0:00:00.00 171900 N 0 0 0
0:00:00.00 172219 N 0 0 0
0:00:00.00 172525 N 0 0 0
0:00:00.00 172825 N 0 0 0
0:00:00.00 173122 N 0 0 0
0:00:00.00 173443 N 0 0 0
0:00:00.00 173776 N 0 0 0
0:00:00.00 174110 N 0 0 0
0:00:00.00 174422 N 0 0 0
0:00:00.00 174758 N 0 0 0
0:00:00.00 174982 N 0 0 0
0:00:00.00 175432 N 0 0 0
0:00:00.00 175649 N 0 0 0
0:00:00.00 176096 N 0 0 0
0:00:00.00 176323 N 0 0 0
0:00:00.00 176747 N 0 0 0
0:00:00.00 176976 N 0 0 0
0:00:00.00 177385 N 0 0 0
0:00:00.00 177628 N 0 0 0
0:00:00.00 178103 N 0 0 0
0:00:00.00 178378 N 0 0 0
0:00:00.00 178882 N 0 0 0
0:00:00.00 179113 N 0 0 0
0:00:00.00 179496 N 0 0 0
0:00:00.00 179707 N 0 0 0
0:00:00.00 180191 N 0 0 0
0:00:00.00 180439 N 0 0 0
0:00:00.00 180898 N 0 0 0
0:00:00.00 181123 N 0 0 0
0:00:00.00 181508 N 0 0 0
0:00:00.00 181712 N 0 0 0
0:00:00.00 182174 N 0 0 0
0:00:00.00 182446 N 0 0 0
0:00:00.00 182905 N 0 0 0
0:00:00.00 183139 N 0 0 0
0:00:00.00 183528 N 0 0 0
0:00:00.00 183722 N 0 0 0
0:00:00.00 184118 N 0 0 0
0:00:00.00 184361 N 0 0 0
0:00:00.00 184840 N 0 0 0
0:00:00.00 185058 N 0 0 0
0:00:00.00 185485 N 0 0 0
0:00:00.00 185704 N 0 0 0
0:00:00.00 186093 N 0 0 0
0:00:00.00 186298 N 0 0 0
0:00:00.00 186725 N 0 0 0
0:00:00.00 186977 N 0 0 0
0:00:00.00 187396 N 0 0 0
0:00:00.00 187621 N 0 0 0
0:00:00.00 188008 N 0 0 0
0:00:00.00 188204 N 0 0 0
0:00:00.00 188584 N 0 0 0
0:00:00.00 188932 N 0 0 0
0:00:00.00 189310 N 0 0 0
0:00:00.00 189646 N 0 0 0
0:00:00.00 189945 N 0 0 0
0:00:00.00 190233 N 0 0 0
0:00:00.00 190517 N 0 0 0
0:00:00.00 190777 N 0 0 0
0:00:00.00 191169 N 0 0 0
0:00:00.00 191518 N 0 0 0
0:00:00.00 191828 N 0 0 0
0:00:00.00 192130 N 0 0 0
0:00:00.00 192328 N 0 0 0
0:00:00.00 192710 N 0 0 0
0:00:00.00 192899 N 0 0 0
0:00:00.00 193307 N 0 0 0
0:00:00.00 193642 N 0 0 0
0:00:00.00 193957 N 0 0 0
0:00:00.00 194254 N 0 0 0
0:00:00.00 194535 N 0 0 0
0:00:00.00 194825 N 0 0 0
0:00:00.00 195007 N 0 0 0
0:00:00.00 195437 N 0 0 0
0:00:00.00 195820 N 0 0 0
0:00:00.00 196162 N 0 0 0
0:00:00.00 196355 N 0 0 0
0:00:00.00 196744 N 0 0 0
0:00:00.00 196963 N 0 0 0
0:00:00.00 197348 N 0 0 0
0:00:00.00 197712 N 0 0 0
0:00:00.00 198394 N 0 0 0
0:00:00.00 198688 N 0 0 0
0:00:00.00 198981 N 0 0 0
0:00:00.00 199283 N 0 0 0
0:00:00.00 199606 N 0 0 0
0:00:00.00 199840 N 0 0 0
0:00:00.00 200273 N 0 0 0
0:00:00.00 200597 N 0 0 0
0:00:00.00 200898 N 0 0 0
0:00:00.00 201186 N 0 0 0
0:00:00.00 201413 N 0 0 0
0:00:00.00 201782 N 0 0 0
0:00:00.00 202093 N 0 0 0
0:00:00.00 202453 N 0 0 0
0:00:00.00 202804 N 0 0 0
0:00:00.00 203024 N 0 0 0
0:00:00.00 203375 N 0 0 0
0:00:00.00 203670 N 0 0 0
0:00:00.00 203978 N 0 0 0
0:00:00.00 204286 N 0 0 0
0:00:00.00 204629 N 0 0 0
0:00:00.00 204973 N 0 0 0
0:00:00.00 205263 N 0 0 0
0:00:00.00 205537 N 0 0 0
0:00:00.00 205738 N 0 0 0
0:00:00.00 206140 N 0 0 0
0:00:00.00 206350 N 0 0 0
0:00:00.00 206761 N 0 0 0
0:00:00.00 207077 N 0 0 0
0:00:00.00 207362 N 0 0 0
0:00:00.00 207637 N 0 0 0
0:00:00.00 207842 N 0 0 0
0:00:00.00 208224 N 0 0 0
0:00:00.00 208546 N 0 0 0
0:00:00.00 208854 N 0 0 0
0:00:00.00 209182 N 0 0 0
0:00:00.00 209491 N 0 0 0
0:00:00.00 209770 N 0 0 0
0:00:00.00 210056 N 0 0 0
0:00:00.00 210357 N 0 0 0
0:00:00.00 210668 N 0 0 0
0:00:00.00 210973 N 0 0 0
0:00:00.00 211180 N 0 0 0
0:00:00.00 211619 N 0 0 0
0:00:00.00 211815 N 0 0 0
0:00:00.00 212186 N 0 0 0
0:00:00.00 212476 N 0 0 0
0:00:00.00 212818 N 0 0 0
0:00:00.00 213124 N 0 0 0
0:00:00.00 213451 N 0 0 0
0:00:00.00 213745 N 0 0 0
0:00:00.00 214029 N 0 0 0
0:00:00.00 214308 N 0 0 0
0:00:00.00 214603 N 0 0 0
0:00:00.00 214924 N 0 0 0
0:00:00.00 215233 N 0 0 0
0:00:00.00 215516 N 0 0 0
0:00:00.00 215845 N 0 0 0
0:00:00.00 216144 N 0 0 0
0:00:00.00 216430 N 0 0 0
0:00:00.00 216718 N 0 0 0
0:00:00.00 217024 N 0 0 0
0:00:00.00 217339 N 0 0 0
0:00:00.00 217647 N 0 0 0
0:00:00.00 217975 N 0 0 0
0:00:00.00 218279 N 0 0 0
0:00:00.00 218554 N 0 0 0
0:00:00.00 218759 N 0 0 0
0:00:00.00 219170 N 0 0 0
0:00:00.00 219519 N 0 0 0
0:00:00.00 219856 N 0 0 0
0:00:00.00 220075 N 0 0 0
0:00:00.00 220460 N 0 0 0
0:00:00.00 220657 N 0 0 0
0:00:00.00 221042 N 0 0 0
0:00:00.00 221256 N 0 0 0
0:00:00.00 221693 N 0 0 0
0:00:00.00 221936 N 0 0 0
0:00:00.00 222370 N 0 0 0
0:00:00.00 222680 N 0 0 0
0:00:00.00 223004 N 0 0 0
0:00:00.00 223339 N 0 0 0
0:00:00.00 223664 N 0 0 0
0:00:00.00 223985 N 0 0 0
0:00:00.00 224197 N 0 0 0
0:00:00.00 224633 N 0 0 0
0:00:00.00 224923 N 0 0 0
0:00:00.00 225223 N 0 0 0
0:00:00.00 225544 N 0 0 0
0:00:00.00 225853 N 0 0 0
0:00:00.00 226174 N 0 0 0
0:00:00.00 226521 N 0 0 0
0:00:00.00 226849 N 0 0 0
0:00:00.00 227084 N 0 0 0
0:00:00.00 227156 N 0 0 0
0:00:00.00 227417 N 0 0 0
0:00:00.00 227614 N 0 0 0
0:00:00.00 228040 N 0 0 0
0:00:00.00 228359 N 0 0 0
0:00:00.00 228674 N 0 0 0
0:00:00.00 228976 N 0 0 0
0:00:00.00 229262 N 0 0 0
0:00:00.00 229563 N 0 0 0
0:00:00.00 229892 N 0 0 0
0:00:00.00 230220 N 0 0 0
0:00:00.00 230528 N 0 0 0
0:00:00.00 230832 N 0 0 0
0:00:00.00 231134 N 0 0 0
0:00:00.00 231433 N 0 0 0
0:00:00.00 231739 N 0 0 0
0:00:00.00 232060 N 0 0 0
0:00:00.00 232382 N 0 0 0
0:00:00.00 232688 N 0 0 0
0:00:00.00 233005 N 0 0 0
0:00:00.00 233323 N 0 0 0
0:00:00.00 233633 N 0 0 0
0:00:00.00 233843 N 0 0 0
0:00:00.00 234252 N 0 0 0
0:00:00.00 234461 N 0 0 0
0:00:00.00 234886 N 0 0 0
0:00:00.00 235220 N 0 0 0
0:00:00.00 235517 N 0 0 0
0:00:00.00 235816 N 0 0 0
0:00:00.00 236117 N 0 0 0
0:00:00.00 236453 N 0 0 0
0:00:00.00 236781 N 0 0 0
0:00:00.00 237098 N 0 0 0
0:00:00.00 237402 N 0 0 0
0:00:00.00 237704 N 0 0 0
0:00:00.00 238009 N 0 0 0
0:00:00.00 238307 N 0 0 0
0:00:00.00 238626 N 0 0 0
0:00:00.00 238957 N 0 0 0
0:00:00.00 239272 N 0 0 0
0:00:00.00 239596 N 0 0 0
0:00:00.00 239909 N 0 0 0
0:00:00.00 240129 N 0 0 0
0:00:00.00 240534 N 0 0 0
0:00:00.00 240871 N 0 0 0
0:00:00.00 241186 N 0 0 0
0:00:00.00 241511 N 0 0 0
0:00:00.00 241843 N 0 0 0
0:00:00.00 242140 N 0 0 0
0:00:00.00 242354 N 0 0 0
0:00:00.00 242755 N 0 0 0
0:00:00.00 243106 N 0 0 0
0:00:00.00 243437 N 0 0 0
0:00:00.00 243653 N 0 0 0
0:00:00.00 244060 N 0 0 0
0:00:00.00 244289 N 0 0 0
0:00:00.00 244692 N 0 0 0
0:00:00.00 244924 N 0 0 0
0:00:00.00 245385 N 0 0 0
0:00:00.00 245612 N 0 0 0
0:00:00.00 246020 N 0 0 0
0:00:00.00 246323 N 0 0 0
0:00:00.00 246640 N 0 0 0
0:00:00.00 246973 N 0 0 0
0:00:00.00 247288 N 0 0 0
0:00:00.00 247613 N 0 0 0
0:00:00.00 247928 N 0 0 0
0:00:00.00 248238 N 0 0 0
0:00:00.00 248544 N 0 0 0
0:00:00.00 248855 N 0 0 0
0:00:00.00 249176 N 0 0 0
0:00:00.00 249484 N 0 0 0
0:00:00.00 249829 N 0 0 0
0:00:00.00 250162 N 0 0 0
0:00:00.00 250382 N 0 0 0
0:00:00.00 250763 N 0 0 0
0:00:00.00 250963 N 0 0 0
0:00:00.00 251368 N 0 0 0
0:00:00.00 251588 N 0 0 0
0:00:00.00 252014 N 0 0 0
0:00:00.00 252227 N 0 0 0
0:00:00.00 252614 N 0 0 0
0:00:00.00 252806 N 0 0 0
0:00:00.00 253213 N 0 0 0
0:00:00.00 253431 N 0 0 0
0:00:00.00 253843 N 0 0 0
0:00:00.00 254063 N 0 0 0
0:00:00.00 254475 N 0 0 0
0:00:00.00 254669 N 0 0 0
0:00:00.00 255047 N 0 0 0
0:00:00.00 255256 N 0 0 0
0:00:00.00 255677 N 0 0 0
0:00:00.00 255924 N 0 0 0
0:00:00.00 256322 N 0 0 0
0:00:00.00 256543 N 0 0 0
0:00:00.00 256954 N 0 0 0
0:00:00.00 257155 N 0 0 0
0:00:00.00 257530 N 0 0 0
0:00:00.00 257737 N 0 0 0
0:00:00.00 258140 N 0 0 0
0:00:00.00 258458 N 0 0 0
0:00:00.00 258786 N 0 0 0
0:00:00.00 259081 N 0 0 0
0:00:00.00 259357 N 0 0 0
0:00:00.00 259643 N 0 0 0
0:00:00.00 259965 N 0 0 0
0:00:00.00 260296 N 0 0 0
0:00:00.00 260620 N 0 0 0
0:00:00.00 260926 N 0 0 0
0:00:00.00 261227 N 0 0 0
0:00:00.00 261506 N 0 0 0
0:00:00.00 261715 N 0 0 0
0:00:00.00 262129 N 0 0 0
0:00:00.00 262471 N 0 0 0
0:00:00.00 262802 N 0 0 0
0:00:00.00 263115 N 0 0 0
0:00:00.00 263441 N 0 0 0
0:00:00.00 263738 N 0 0 0
0:00:00.00 263918 N 0 0 0
0:00:00.00 264346 N 0 0 0
0:00:00.00 264686 N 0 0 0
0:00:00.00 265001 N 0 0 0
0:00:00.00 265316 N 0 0 0
0:00:00.00 265624 N 0 0 0
0:00:00.00 265907 N 0 0 0
0:00:00.00 266204 N 0 0 0
0:00:00.00 266513 N 0 0 0
0:00:00.00 266920 N 0 0 0
0:00:00.00 267138 N 0 0 0
0:00:00.00 267592 N 0 0 0
0:00:00.00 267883 N 0 0 0
0:00:00.00 268173 N 0 0 0
0:00:00.00 268470 N 0 0 0
0:00:00.00 268789 N 0 0 0
0:00:00.00 269177 N 0 0 0
0:00:00.00 269521 N 0 0 0
0:00:00.00 269825 N 0 0 0
0:00:00.00 270119 N 0 0 0
0:00:00.00 270443 N 0 0 0
0:00:00.00 270778 N 0 0 0
0:00:00.00 271114 N 0 0 0
0:00:00.00 271467 N 0 0 0
0:00:00.00 271800 N 0 0 0
0:00:00.00 271964 N 0 0 0
0:00:00.00 272398 N 0 0 0
0:00:00.00 272713 N 0 0 0
0:00:00.00 273020 N 0 0 0
0:00:00.00 273348 N 0 0 0
0:00:00.00 273708 N 0 0 0
0:00:00.00 274050 N 0 0 0
0:00:00.00 274358 N 0 0 0
0:00:00.00 274651 N 0 0 0
0:00:00.00 274820 N 0 0 0
0:00:00.00 275274 N 0 0 0
0:00:00.00 275485 N 0 0 0
0:00:00.00 275994 N 0 0 0
0:00:00.00 276210 N 0 0 0
0:00:00.00 276602 N 0 0 0
0:00:00.00 276795 N 0 0 0
0:00:00.00 277231 N 0 0 0
0:00:00.00 277450 N 0 0 0
0:00:00.00 277924 N 0 0 0
0:00:00.00 278163 N 0 0 0
0:00:00.00 278581 N 0 0 0
0:00:00.00 278775 N 0 0 0
0:00:00.00 279176 N 0 0 0
0:00:00.00 279396 N 0 0 0
0:00:00.00 279819 N 0 0 0
0:00:00.00 280039 N 0 0 0
0:00:00.00 280494 N 0 0 0
0:00:00.00 280705 N 0 0 0
0:00:00.00 281083 N 0 0 0
0:00:00.00 281282 N 0 0 0
0:00:00.00 281686 N 0 0 0
0:00:00.00 281896 N 0 0 0
0:00:00.00 282335 N 0 0 0
0:00:00.00 282587 N 0 0 0
0:00:00.00 282983 N 0 0 0
0:00:00.00 283180 N 0 0 0
0:00:00.00 283574 N 0 0 0
0:00:00.00 283811 N 0 0 0
0:00:00.00 284285 N 0 0 0
0:00:00.00 284546 N 0 0 0
0:00:00.00 284981 N 0 0 0
0:00:00.00 285181 N 0 0 0
0:00:00.00 285566 N 0 0 0
0:00:00.00 285782 N 0 0 0
0:00:00.00 286238 N 0 0 0
0:00:00.00 286466 N 0 0 0
0:00:00.00 286893 N 0 0 0
0:00:00.00 287120 N 0 0 0
0:00:00.00 287510 N 0 0 0
0:00:00.00 287809 N 0 0 0
0:00:00.00 288113 N 0 0 0
0:00:00.00 288445 N 0 0 0
0:00:00.00 288765 N 0 0 0
0:00:00.00 289125 N 0 0 0
0:00:00.00 289355 N 0 0 0
0:00:00.00 289748 N 0 0 0
0:00:00.00 290045 N 0 0 0
0:00:00.00 290356 N 0 0 0
0:00:00.00 290689 N 0 0 0
0:00:00.00 291010 N 0 0 0
0:00:00.00 291344 N 0 0 0
0:00:00.00 291535 N 0 0 0
0:00:00.00 291926 N 0 0 0
0:00:00.00 292216 N 0 0 0
0:00:00.00 292527 N 0 0 0
0:00:00.00 292864 N 0 0 0
0:00:00.00 293186 N 0 0 0
0:00:00.00 293504 N 0 0 0
0:00:00.00 293807 N 0 0 0
0:00:00.00 294104 N 0 0 0
0:00:00.00 294404 N 0 0 0
0:00:00.00 294730 N 0 0 0
0:00:00.00 295042 N 0 0 0
0:00:00.00 295351 N 0 0 0
0:00:00.00 295655 N 0 0 0
0:00:00.00 295967 N 0 0 0
0:00:00.00 296260 N 0 0 0
0:00:00.00 296548 N 0 0 0
0:00:00.00 296849 N 0 0 0
0:00:00.00 297160 N 0 0 0
0:00:00.00 297490 N 0 0 0
0:00:00.00 297808 N 0 0 0
0:00:00.00 298116 N 0 0 0
0:00:00.00 298397 N 0 0 0
0:00:00.00 298690 N 0 0 0
0:00:00.00 298989 N 0 0 0
0:00:00.00 299302 N 0 0 0
0:00:00.00 299626 N 0 0 0
0:00:00.00 299939 N 0 0 0
0:00:00.00 300110 N 0 0 0
0:00:00.00 300532 N 0 0 0
0:00:00.00 300841 N 0 0 0
0:00:00.00 301153 N 0 0 0
0:00:00.00 301464 N 0 0 0
0:00:00.00 301774 N 0 0 0
0:00:00.00 302089 N 0 0 0
0:00:00.00 302393 N 0 0 0
0:00:00.00 302684 N 0 0 0
0:00:00.00 302976 N 0 0 0
0:00:00.00 303293 N 0 0 0
0:00:00.00 303602 N 0 0 0
0:00:00.00 303926 N 0 0 0
0:00:00.00 304259 N 0 0 0
0:00:00.00 304576 N 0 0 0
0:00:00.00 304862 N 0 0 0
0:00:00.00 305163 N 0 0 0
0:00:00.00 305483 N 0 0 0
0:00:00.00 305818 N 0 0 0
0:00:00.00 306164 N 0 0 0
0:00:00.00 306497 N 0 0 0
0:00:00.00 306821 N 0 0 0
0:00:00.00 307118 N 0 0 0
0:00:00.00 307451 N 0 0 0
0:00:00.00 307818 N 0 0 0
0:00:00.00 308173 N 0 0 0
0:00:00.00 308497 N 0 0 0
0:00:00.00 308810 N 0 0 0
0:00:00.00 308970 N 0 0 0
0:00:00.00 309418 N 0 0 0
0:00:00.00 309751 N 0 0 0
0:00:00.00 310113 N 0 0 0
0:00:00.00 310450 N 0 0 0
0:00:00.00 310783 N 0 0 0
0:00:00.00 311144 N 0 0 0
0:00:00.00 311461 N 0 0 0
0:00:00.00 311764 N 0 0 0
0:00:00.00 311963 N 0 0 0
0:00:00.00 312455 N 0 0 0
0:00:00.00 312784 N 0 0 0
0:00:00.00 313099 N 0 0 0
0:00:00.00 313418 N 0 0 0
0:00:00.00 313727 N 0 0 0
0:00:00.00 314035 N 0 0 0
0:00:00.00 314377 N 0 0 0
0:00:00.00 314735 N 0 0 0
0:00:00.00 315079 N 0 0 0
0:00:00.00 315380 N 0 0 0
0:00:00.00 315693 N 0 0 0
0:00:00.00 315999 N 0 0 0
0:00:00.00 316328 N 0 0 0
0:00:00.00 316679 N 0 0 0
0:00:00.00 317014 N 0 0 0
0:00:00.00 317318 N 0 0 0
0:00:00.00 317610 N 0 0 0
0:00:00.00 317941 N 0 0 0
0:00:00.00 318260 N 0 0 0
0:00:00.00 318584 N 0 0 0
0:00:00.00 318901 N 0 0 0
0:00:00.00 319117 N 0 0 0
0:00:00.00 319522 N 0 0 0
0:00:00.00 319824 N 0 0 0
0:00:00.00 320153 N 0 0 0
0:00:00.00 320463 N 0 0 0
0:00:00.00 320771 N 0 0 0
0:00:00.00 321097 N 0 0 0
0:00:00.00 321439 N 0 0 0
0:00:00.00 321761 N 0 0 0
0:00:00.00 322047 N 0 0 0
0:00:00.00 322364 N 0 0 0
0:00:00.00 322682 N 0 0 0
0:00:00.00 323008 N 0 0 0
0:00:00.00 323347 N 0 0 0
0:00:00.00 323672 N 0 0 0
0:00:00.00 323966 N 0 0 0
0:00:00.00 324245 N 0 0 0
0:00:00.00 324567 N 0 0 0
0:00:00.00 324889 N 0 0 0
0:00:00.00 325220 N 0 0 0
0:00:00.00 325544 N 0 0 0
0:00:00.00 325859 N 0 0 0
0:00:00.00 326149 N 0 0 0
0:00:00.00 326448 N 0 0 0
0:00:00.00 326786 N 0 0 0
0:00:00.00 327114 N 0 0 0
0:00:00.00 327445 N 0 0 0
0:00:00.00 327793 N 0 0 0
0:00:00.00 328147 N 0 0 0
0:00:00.00 328459 N 0 0 0
0:00:00.00 328765 N 0 0 0
0:00:00.00 329123 N 0 0 0
0:00:00.00 329467 N 0 0 0
0:00:00.00 329828 N 0 0 0
0:00:00.00 330208 N 0 0 0
0:00:00.00 330388 N 0 0 0
0:00:00.00 330838 N 0 0 0
0:00:00.00 331166 N 0 0 0
0:00:00.00 331555 N 0 0 0
0:00:00.00 331922 N 0 0 0
0:00:00.00 332293 N 0 0 0
0:00:00.00 332635 N 0 0 0
0:00:00.00 332941 N 0 0 0
0:00:00.00 333259 N 0 0 0
0:00:00.00 333693 N 0 0 0
0:00:00.00 334048 N 0 0 0
0:00:00.00 334413 N 0 0 0
0:00:00.00 334757 N 0 0 0
0:00:00.00 335070 N 0 0 0
0:00:00.00 335394 N 0 0 0
0:00:00.00 335754 N 0 0 0
0:00:00.00 336139 N 0 0 0
0:00:00.00 336470 N 0 0 0
0:00:00.00 336794 N 0 0 0
0:00:00.00 337109 N 0 0 0
0:00:00.00 337432 N 0 0 0
0:00:00.00 337754 N 0 0 0
0:00:00.00 338110 N 0 0 0
0:00:00.00 338449 N 0 0 0
0:00:00.00 338794 N 0 0 0
0:00:00.00 339125 N 0 0 0
0:00:00.00 339421 N 0 0 0
0:00:00.00 339725 N 0 0 0
0:00:00.00 340036 N 0 0 0
0:00:00.00 340396 N 0 0 0
0:00:00.00 340745 N 0 0 0
0:00:00.00 341066 N 0 0 0
0:00:00.00 341372 N 0 0 0
0:00:00.00 341534 N 0 0 0
0:00:00.00 341978 N 0 0 0
0:00:00.00 342304 N 0 0 0
0:00:00.00 342693 N 0 0 0
0:00:00.00 343010 N 0 0 0
0:00:00.00 343319 N 0 0 0
0:00:00.00 343607 N 0 0 0
0:00:00.00 343906 N 0 0 0
0:00:00.00 344223 N 0 0 0
0:00:00.00 344549 N 0 0 0
0:00:00.00 344885 N 0 0 0
0:00:00.00 345213 N 0 0 0
0:00:00.00 345541 N 0 0 0
0:00:00.00 345845 N 0 0 0
0:00:00.00 346133 N 0 0 0
0:00:00.00 346433 N 0 0 0
0:00:00.00 346750 N 0 0 0
0:00:00.00 347008 N 0 0 0
0:00:00.00 347407 N 0 0 0
0:00:00.00 347710 N 0 0 0
0:00:00.00 347999 N 0 0 0
0:00:00.00 348289 N 0 0 0
0:00:00.00 348602 N 0 0 0
0:00:00.00 348928 N 0 0 0
0:00:00.00 349283 N 0 0 0
0:00:00.00 349585 N 0 0 0
0:00:00.00 349889 N 0 0 0
0:00:00.00 350179 N 0 0 0
0:00:00.00 350478 N 0 0 0
0:00:00.00 350804 N 0 0 0
0:00:00.00 351131 N 0 0 0
0:00:00.00 351488 N 0 0 0
0:00:00.00 351803 N 0 0 0
0:00:00.00 352138 N 0 0 0
0:00:00.00 352451 N 0 0 0
0:00:00.00 352766 N 0 0 0
0:00:00.00 353084 N 0 0 0
0:00:00.00 353421 N 0 0 0
0:00:00.00 353765 N 0 0 0
0:00:00.00 354085 N 0 0 0
0:00:00.00 354404 N 0 0 0
0:00:00.00 354719 N 0 0 0
0:00:00.00 355030 N 0 0 0
0:00:00.00 355365 N 0 0 0
0:00:00.00 355802 N 0 0 0
0:00:00.00 356170 N 0 0 0
0:00:00.00 356463 N 0 0 0
0:00:00.00 356762 N 0 0 0
0:00:00.00 357073 N 0 0 0
0:00:00.00 357394 N 0 0 0
0:00:00.00 357721 N 0 0 0
0:00:00.00 358099 N 0 0 0
0:00:00.00 358423 N 0 0 0
0:00:00.00 358715 N 0 0 0
0:00:00.00 358924 N 0 0 0
0:00:00.00 359350 N 0 0 0
0:00:00.00 359687 N 0 0 0
0:00:00.00 360011 N 0 0 0
0:00:00.00 360358 N 0 0 0
0:00:00.00 360662 N 0 0 0
0:00:00.00 360974 N 0 0 0
0:00:00.00 361303 N 0 0 0
0:00:00.00 361631 N 0 0 0
0:00:00.00 361953 N 0 0 0
0:00:00.00 362277 N 0 0 0
0:00:00.00 362650 N 0 0 0
0:00:00.00 362956 N 0 0 0
0:00:00.00 363116 N 0 0 0
0:00:00.00 363575 N 0 0 0
0:00:00.00 363917 N 0 0 0
0:00:00.00 364241 N 0 0 0
0:00:00.00 364588 N 0 0 0
0:00:00.00 364934 N 0 0 0
0:00:00.00 365227 N 0 0 0
0:00:00.00 365386 N 0 0 0
0:00:00.00 365848 N 0 0 0
0:00:00.00 366208 N 0 0 0
0:00:00.00 366554 N 0 0 0
0:00:00.00 366889 N 0 0 0
0:00:00.00 367218 N 0 0 0
0:00:00.00 367515 N 0 0 0
0:00:00.00 367839 N 0 0 0
0:00:00.00 368186 N 0 0 0
0:00:00.00 368518 N 0 0 0
0:00:00.00 368833 N 0 0 0
0:00:00.00 369171 N 0 0 0
0:00:00.00 369490 N 0 0 0
0:00:00.00 369806 N 0 0 0
0:00:00.00 370118 N 0 0 0
0:00:00.00 370327 N 0 0 0
0:00:00.00 370773 N 0 0 0
0:00:00.00 370989 N 0 0 0
0:00:00.00 371453 N 0 0 0
0:00:00.00 371639 N 0 0 0
0:00:00.00 372040 N 0 0 0
0:00:00.00 372335 N 0 0 0
0:00:00.00 372735 N 0 0 0
0:00:00.00 373070 N 0 0 0
0:00:00.00 373399 N 0 0 0
0:00:00.00 373725 N 0 0 0
0:00:00.00 374020 N 0 0 0
0:00:00.00 374360 N 0 0 0
0:00:00.00 374594 N 0 0 0
0:00:00.00 375104 N 0 0 0
0:00:00.00 375446 N 0 0 0
0:00:00.00 375764 N 0 0 0
0:00:00.00 376078 N 0 0 0
0:00:00.00 376412 N 0 0 0
0:00:00.00 376805 N 0 0 0
0:00:00.00 377201 N 0 0 0
0:00:00.00 377546 N 0 0 0
0:00:00.00 377870 N 0 0 0
0:00:00.00 378218 N 0 0 0
0:00:00.00 378551 N 0 0 0
0:00:00.00 378916 N 0 0 0
0:00:00.00 379307 N 0 0 0
0:00:00.00 379586 N 0 0 0
0:00:00.00 379996 N 0 0 0
0:00:00.00 380327 N 0 0 0
0:00:00.00 380637 N 0 0 0
0:00:00.00 380961 N 0 0 0
0:00:00.00 381317 N 0 0 0
0:00:00.00 381650 N 0 0 0
0:00:00.00 382005 N 0 0 0
0:00:00.00 382311 N 0 0 0
0:00:00.00 382631 N 0 0 0
0:00:00.00 382928 N 0 0 0
0:00:00.00 383278 N 0 0 0
0:00:00.00 383647 N 0 0 0
0:00:00.00 383992 N 0 0 0
0:00:00.00 384296 N 0 0 0
0:00:00.00 384597 N 0 0 0
0:00:00.00 384896 N 0 0 0
0:00:00.00 385115 N 0 0 0
0:00:00.00 385560 N 0 0 0
0:00:00.00 385754 N 0 0 0
0:00:00.00 386212 N 0 0 0
0:00:00.00 386521 N 0 0 0
0:00:00.00 386831 N 0 0 0
0:00:00.00 387142 N 0 0 0
0:00:00.00 387452 N 0 0 0
0:00:00.00 387778 N 0 0 0
0:00:00.00 387967 N 0 0 0
0:00:00.00 388420 N 0 0 0
0:00:00.00 388732 N 0 0 0
0:00:00.00 389030 N 0 0 0
0:00:00.00 389347 N 0 0 0
0:00:00.00 389655 N 0 0 0
0:00:00.00 390004 N 0 0 0
0:00:00.00 390362 N 0 0 0
0:00:00.00 390704 N 0 0 0
0:00:00.00 390998 N 0 0 0
0:00:00.00 391291 N 0 0 0
0:00:00.00 391590 N 0 0 0
0:00:00.00 391914 N 0 0 0
0:00:00.00 392269 N 0 0 0
0:00:00.00 392600 N 0 0 0
0:00:00.00 392904 N 0 0 0
0:00:00.00 393203 N 0 0 0
0:00:00.00 393530 N 0 0 0
0:00:00.00 393860 N 0 0 0
0:00:00.00 394191 N 0 0 0
0:00:00.00 394524 N 0 0 0
0:00:00.00 394870 N 0 0 0
0:00:00.00 395188 N 0 0 0
0:00:00.00 395492 N 0 0 0
0:00:00.00 395822 N 0 0 0
0:00:00.00 396160 N 0 0 0
0:00:00.00 396499 N 0 0 0
0:00:00.00 396851 N 0 0 0
0:00:00.00 397220 N 0 0 0
0:00:00.00 397537 N 0 0 0
0:00:00.00 397834 N 0 0 0
0:00:00.00 398169 N 0 0 0
0:00:00.00 398495 N 0 0 0
0:00:00.00 398835 N 0 0 0
0:00:00.00 399197 N 0 0 0
0:00:00.00 399523 N 0 0 0
0:00:00.00 399791 N 0 0 0
0:00:00.00 400135 N 0 0 0
0:00:00.00 400559 N 0 0 0
0:00:00.00 400948 N 0 0 0
0:00:00.00 401287 N 0 0 0
0:00:00.00 401618 N 0 0 0
0:00:00.00 401918 N 0 0 0
0:00:00.00 402223 N 0 0 0
0:00:00.00 402413 N 0 0 0
0:00:00.00 402968 N 0 0 0
0:00:00.00 403330 N 0 0 0
0:00:00.00 403661 N 0 0 0
0:00:00.00 403981 N 0 0 0
0:00:00.00 404291 N 0 0 0
0:00:00.00 404617 N 0 0 0
0:00:00.00 404973 N 0 0 0
0:00:00.00 405319 N 0 0 0
0:00:00.00 405643 N 0 0 0
0:00:00.00 405970 N 0 0 0
0:00:00.00 406276 N 0 0 0
0:00:00.00 406575 N 0 0 0
0:00:00.00 406885 N 0 0 0
0:00:00.00 407228 N 0 0 0
0:00:00.00 407592 N 0 0 0
0:00:00.00 407929 N 0 0 0
0:00:00.00 408226 N 0 0 0
0:00:00.00 408512 N 0 0 0
0:00:00.00 408820 N 0 0 0
0:00:00.00 409144 N 0 0 0
0:00:00.00 409352 N 0 0 0
0:00:00.00 409844 N 0 0 0
0:00:00.00 410162 N 0 0 0
0:00:00.00 410452 N 0 0 0
0:00:00.00 410758 N 0 0 0
0:00:00.00 411073 N 0 0 0
0:00:00.00 411430 N 0 0 0
0:00:00.00 411788 N 0 0 0
0:00:00.00 412015 N 0 0 0
0:00:00.00 412423 N 0 0 0
0:00:00.00 412621 N 0 0 0
0:00:00.00 413032 N 0 0 0
0:00:00.00 413343 N 0 0 0
0:00:00.00 413672 N 0 0 0
0:00:00.00 414007 N 0 0 0
0:00:00.00 414353 N 0 0 0
0:00:00.00 414679 N 0 0 0
0:00:00.00 414963 N 0 0 0
0:00:00.00 415121 N 0 0 0
0:00:00.00 415577 N 0 0 0
0:00:00.00 415940 N 0 0 0
0:00:00.00 416308 N 0 0 0
0:00:00.00 416641 N 0 0 0
0:00:00.00 416948 N 0 0 0
0:00:00.00 417240 N 0 0 0
0:00:00.00 417575 N 0 0 0
0:00:00.00 417944 N 0 0 0
0:00:00.00 418198 N 0 0 0
0:00:00.00 418684 N 0 0 0
0:00:00.00 419018 N 0 0 0
0:00:00.00 419317 N 0 0 0
0:00:00.00 419571 N 0 0 0
0:00:00.00 419980 N 0 0 0
0:00:00.00 420323 N 0 0 0
0:00:00.00 420716 N 0 0 0
0:00:00.00 421056 N 0 0 0
0:00:00.00 421384 N 0 0 0
0:00:00.00 421708 N 0 0 0
0:00:00.00 422033 N 0 0 0
0:00:00.00 422397 N 0 0 0
0:00:00.00 422807 N 0 0 0
0:00:00.00 423214 N 0 0 0
0:00:00.00 423554 N 0 0 0
0:00:00.00 423875 N 0 0 0
0:00:00.00 424208 N 0 0 0
0:00:00.00 424568 N 0 0 0
0:00:00.00 424989 N 0 0 0
0:00:00.00 425405 N 0 0 0
0:00:00.00 425731 N 0 0 0
0:00:00.00 426044 N 0 0 0
0:00:00.00 426364 N 0 0 0
0:00:00.00 426713 N 0 0 0
0:00:00.00 427093 N 0 0 0
0:00:00.00 427498 N 0 0 0
0:00:00.00 427829 N 0 0 0
0:00:00.00 428137 N 0 0 0
0:00:00.00 428481 N 0 0 0
0:00:00.00 428839 N 0 0 0
0:00:00.00 429187 N 0 0 0
0:00:00.00 429530 N 0 0 0
0:00:00.00 429867 N 0 0 0
0:00:00.00 430178 N 0 0 0
0:00:00.00 430499 N 0 0 0
0:00:00.00 430834 N 0 0 0
0:00:00.00 431168 N 0 0 0
0:00:00.00 431501 N 0 0 0
0:00:00.00 431861 N 0 0 0
0:00:00.00 432184 N 0 0 0
0:00:00.00 432490 N 0 0 0
0:00:00.00 432803 N 0 0 0
0:00:00.00 433130 N 0 0 0
0:00:00.00 433458 N 0 0 0
0:00:00.00 433791 N 0 0 0
0:00:00.00 434126 N 0 0 0
0:00:00.00 434432 N 0 0 0
0:00:00.00 434731 N 0 0 0
0:00:00.00 435058 N 0 0 0
0:00:00.00 435298 N 0 0 0
0:00:00.00 435746 N 0 0 0
0:00:00.00 436052 N 0 0 0
0:00:00.00 436370 N 0 0 0
0:00:00.00 436653 N 0 0 0
0:00:00.00 436959 N 0 0 0
0:00:00.00 437285 N 0 0 0
0:00:00.00 437603 N 0 0 0
0:00:00.00 437917 N 0 0 0
0:00:00.00 438131 N 0 0 0
0:00:00.00 438867 N 0 0 0
0:00:00.00 439164 N 0 0 0
0:00:00.00 439492 N 0 0 0
0:00:00.00 439810 N 0 0 0
0:00:00.00 440116 N 0 0 0
0:00:00.00 440325 N 0 0 0
0:00:00.00 440795 N 0 0 0
0:00:00.00 441106 N 0 0 0
0:00:00.00 441412 N 0 0 0
0:00:00.00 441619 N 0 0 0
0:00:00.00 442103 N 0 0 0
0:00:00.00 442481 N 0 0 0
0:00:00.00 442820 N 0 0 0
0:00:00.00 443131 N 0 0 0
0:00:00.00 443443 N 0 0 0
0:00:00.00 443750 N 0 0 0
0:00:00.00 444071 N 0 0 0
0:00:00.00 444308 N 0 0 0
0:00:00.00 444751 N 0 0 0
0:00:00.00 445064 N 0 0 0
0:00:00.00 445385 N 0 0 0
0:00:00.00 445766 N 0 0 0
0:00:00.00 446139 N 0 0 0
0:00:00.00 446470 N 0 0 0
0:00:00.00 446794 N 0 0 0
0:00:00.00 447008 N 0 0 0
0:00:00.00 447383 N 0 0 0
0:00:00.00 447710 N 0 0 0
0:00:00.00 448063 N 0 0 0
0:00:00.00 448393 N 0 0 0
0:00:00.00 448713 N 0 0 0
0:00:00.00 448920 N 0 0 0
0:00:00.00 449311 N 0 0 0
0:00:00.00 449624 N 0 0 0
0:00:00.00 449982 N 0 0 0
0:00:00.00 450331 N 0 0 0
0:00:00.00 450652 N 0 0 0
0:00:00.00 450754 N 0 0 0
0:00:00.00 450830 N 0 0 0
0:00:00.00 450909 N 0 0 0
0:00:00.00 450986 N 0 0 0
0:00:00.00 451249 N 0 0 0
0:00:00.00 451539 N 0 0 0
0:00:00.00 451849 N 0 0 0
0:00:00.00 452174 N 0 0 0
0:00:00.00 452500 N 0 0 0
0:00:00.00 452695 N 0 0 0
0:00:00.00 453098 N 0 0 0
0:00:00.00 453431 N 0 0 0
0:00:00.00 453719 N 0 0 0
0:00:00.00 453989 N 0 0 0
0:00:00.00 454289 N 0 0 0
0:00:00.00 454516 N 0 0 0
0:00:00.00 454918 N 0 0 0
0:00:00.00 455139 N 0 0 0
0:00:00.00 455513 N 0 0 0
0:00:00.00 455796 N 0 0 0
0:00:00.00 456055 N 0 0 0
0:00:00.00 456340 N 0 0 0
0:00:00.00 456692 N 0 0 0
0:00:00.00 457015 N 0 0 0
0:00:00.00 457344 N 0 0 0
0:00:00.00 457639 N 0 0 0
0:00:00.00 457924 N 0 0 0
0:00:00.00 458185 N 0 0 0
0:00:00.00 458478 N 0 0 0
0:00:00.00 458822 N 0 0 0
0:00:00.00 459097 N 0 0 0
0:00:00.00 459445 N 0 0 0
0:00:00.00 459752 N 0 0 0
0:00:00.00 460035 N 0 0 0
0:00:00.00 460319 N 0 0 0
0:00:00.00 460606 N 0 0 0
0:00:00.00 460903 N 0 0 0
0:00:00.00 461227 N 0 0 0
0:00:00.00 461547 N 0 0 0
0:00:00.00 461837 N 0 0 0
0:00:00.00 462128 N 0 0 0
0:00:00.00 462409 N 0 0 0
0:00:00.00 462598 N 0 0 0
0:00:00.00 462989 N 0 0 0
0:00:00.00 463311 N 0 0 0
0:00:00.00 463682 N 0 0 0
0:00:00.00 464042 N 0 0 0
0:00:00.00 464364 N 0 0 0
0:00:00.00 464562 N 0 0 0
0:00:00.00 464918 N 0 0 0
0:00:00.00 465160 N 0 0 0
0:00:00.00 465647 N 0 0 0
0:00:00.00 465930 N 0 0 0
0:00:00.00 466371 N 0 0 0
0:00:00.00 466666 N 0 0 0
0:00:00.00 466938 N 0 0 0
0:00:00.00 467233 N 0 0 0
0:00:00.00 467636 N 0 0 0
0:00:00.00 467973 N 0 0 0
0:00:00.00 468560 N 0 0 0
0:00:00.00 468871 N 0 0 0
0:00:00.00 469166 N 0 0 0
0:00:00.00 469521 N 0 0 0
0:00:00.00 469940 N 0 0 0
0:00:00.00 470326 N 0 0 0
0:00:00.00 470626 N 0 0 0
0:00:00.00 471028 N 0 0 0
0:00:00.00 471224 N 0 0 0
0:00:00.00 471625 N 0 0 0
0:00:00.00 471958 N 0 0 0
0:00:00.00 472500 N 0 0 0
0:00:00.00 472900 N 0 0 0
0:00:00.00 473195 N 0 0 0
0:00:00.00 473486 N 0 0 0
0:00:00.00 473785 N 0 0 0
0:00:00.00 474120 N 0 0 0
0:00:00.00 474430 N 0 0 0
0:00:00.00 474917 N 0 0 0
0:00:00.00 475247 N 0 0 0
0:00:00.00 475519 N 0 0 0
0:00:00.00 475709 N 0 0 0
0:00:00.00 476143 N 0 0 0
0:00:00.00 476487 N 0 0 0
0:00:00.00 476815 N 0 0 0
0:00:00.00 477126 N 0 0 0
0:00:00.00 477432 N 0 0 0
0:00:00.00 477707 N 0 0 0
0:00:00.00 477925 N 0 0 0
0:00:00.00 478325 N 0 0 0
0:00:00.00 478550 N 0 0 0
0:00:00.00 478967 N 0 0 0
0:00:00.00 479185 N 0 0 0
0:00:00.00 479603 N 0 0 0
0:00:00.00 479896 N 0 0 0
0:00:00.00 480204 N 0 0 0
0:00:00.00 480497 N 0 0 0
0:00:00.00 480794 N 0 0 0
0:00:00.00 481091 N 0 0 0
0:00:00.00 481401 N 0 0 0
0:00:00.00 481730 N 0 0 0
0:00:00.00 482022 N 0 0 0
0:00:00.00 482247 N 0 0 0
0:00:00.00 482616 N 0 0 0
0:00:00.00 482942 N 0 0 0
0:00:00.00 483278 N 0 0 0
0:00:00.00 483602 N 0 0 0
0:00:00.00 483890 N 0 0 0
0:00:00.00 484175 N 0 0 0
0:00:00.00 484461 N 0 0 0
0:00:00.00 484760 N 0 0 0
0:00:00.00 485068 N 0 0 0
0:00:00.00 485375 N 0 0 0
0:00:00.00 485692 N 0 0 0
0:00:00.00 485878 N 0 0 0
0:00:00.00 486268 N 0 0 0
0:00:00.00 486583 N 0 0 0
0:00:00.00 486907 N 0 0 0
0:00:00.00 487186 N 0 0 0
0:00:00.00 487521 N 0 0 0
0:00:00.00 487850 N 0 0 0
0:00:00.00 488142 N 0 0 0
0:00:00.00 488450 N 0 0 0
0:00:00.00 488783 N 0 0 0
0:00:00.00 489128 N 0 0 0
0:00:00.00 489440 N 0 0 0
0:00:00.00 489760 N 0 0 0
0:00:00.00 490138 N 0 0 0
0:00:00.00 490466 N 0 0 0
0:00:00.00 490797 N 0 0 0
0:00:00.00 491114 N 0 0 0
0:00:00.00 491450 N 0 0 0
0:00:00.00 491747 N 0 0 0
0:00:00.00 492077 N 0 0 0
0:00:00.00 492347 N 0 0 0
0:00:00.00 492439 N 0 0 0
0:00:00.00 492604 N 0 0 0
0:00:00.00 492718 N 0 0 0
0:00:00.00 492997 N 0 0 0
0:00:00.00 493432 N 0 0 0
0:00:00.00 493846 N 0 0 0
0:00:00.00 494230 N 0 0 0
0:00:00.00 494548 N 0 0 0
0:00:00.00 494620 N 0 0 0
0:00:00.00 494883 N 0 0 0
0:00:00.00 495205 N 0 0 0
0:00:00.00 495569 N 0 0 0
0:00:00.00 495927 N 0 0 0
0:00:00.00 496276 N 0 0 0
0:00:00.00 496606 N 0 0 0
0:00:00.00 496906 N 0 0 0
0:00:00.00 497196 N 0 0 0
0:00:00.00 497540 N 0 0 0
0:00:00.00 497921 N 0 0 0
0:00:00.00 498274 N 0 0 0
0:00:00.00 498604 N 0 0 0
0:00:00.00 498893 N 0 0 0
0:00:00.00 499176 N 0 0 0
0:00:00.00 499477 N 0 0 0
0:00:00.00 499811 N 0 0 0
0:00:00.00 500161 N 0 0 0
0:00:00.00 500499 N 0 0 0
0:00:00.00 500794 N 0 0 0
0:00:00.00 500980 N 0 0 0
0:00:00.00 501404 N 0 0 0
0:00:00.00 501712 N 0 0 0
0:00:00.00 502038 N 0 0 0
0:00:00.00 502378 N 0 0 0
0:00:00.00 502702 N 0 0 0
0:00:00.00 503010 N 0 0 0
0:00:00.00 503194 N 0 0 0
0:00:00.00 503608 N 0 0 0
0:00:00.00 503910 N 0 0 0
0:00:00.00 504115 N 0 0 0
0:00:00.00 504547 N 0 0 0
0:00:00.00 504898 N 0 0 0
0:00:00.00 505217 N 0 0 0
0:00:00.00 505508 N 0 0 0
0:00:00.00 505690 N 0 0 0
0:00:00.00 506048 N 0 0 0
0:00:00.00 506263 N 0 0 0
0:00:00.00 506747 N 0 0 0
0:00:00.00 506988 N 0 0 0
0:00:00.00 507388 N 0 0 0
0:00:00.00 507577 N 0 0 0
0:00:00.00 507953 N 0 0 0
0:00:00.00 508163 N 0 0 0
0:00:00.00 508603 N 0 0 0
0:00:00.00 508849 N 0 0 0
0:00:00.00 509267 N 0 0 0
0:00:00.00 509476 N 0 0 0
0:00:00.00 509855 N 0 0 0
0:00:00.00 510062 N 0 0 0
0:00:00.00 510469 N 0 0 0
0:00:00.00 510692 N 0 0 0
0:00:00.00 511173 N 0 0 0
0:00:00.00 511396 N 0 0 0
0:00:00.00 511817 N 0 0 0
0:00:00.00 512028 N 0 0 0
0:00:00.00 512431 N 0 0 0
0:00:00.00 512631 N 0 0 0
0:00:00.00 513095 N 0 0 0
0:00:00.00 513356 N 0 0 0
0:00:00.00 513805 N 0 0 0
0:00:00.00 514008 N 0 0 0
0:00:00.00 514082 N 0 0 0
0:00:00.00 514426 N 0 0 0
0:00:00.00 514643 N 0 0 0
0:00:00.00 515050 N 0 0 0
0:00:00.00 515322 N 0 0 0
0:00:00.00 515898 N 0 0 0
0:00:00.00 516155 N 0 0 0
0:00:00.00 516541 N 0 0 0
0:00:00.00 516766 N 0 0 0
0:00:00.00 517219 N 0 0 0
0:00:00.00 517477 N 0 0 0
0:00:00.00 518011 N 0 0 0
0:00:00.00 518270 N 0 0 0
0:00:00.00 518666 N 0 0 0
0:00:00.00 518879 N 0 0 0
0:00:00.00 519329 N 0 0 0
0:00:00.00 519584 N 0 0 0
0:00:00.00 520076 N 0 0 0
0:00:00.00 520324 N 0 0 0
0:00:00.00 520722 N 0 0 0
0:00:00.00 520925 N 0 0 0
0:00:00.00 521357 N 0 0 0
0:00:00.00 521599 N 0 0 0
0:00:00.00 522052 N 0 0 0
0:00:00.00 522286 N 0 0 0
0:00:00.00 522709 N 0 0 0
0:00:00.00 522922 N 0 0 0
0:00:00.00 523328 N 0 0 0
0:00:00.00 523570 N 0 0 0
0:00:00.00 523982 N 0 0 0
0:00:00.00 524194 N 0 0 0
0:00:00.00 524605 N 0 0 0
0:00:00.00 524833 N 0 0 0
0:00:00.00 525222 N 0 0 0
0:00:00.00 525420 N 0 0 0
0:00:00.00 525850 N 0 0 0
0:00:00.00 526064 N 0 0 0
0:00:00.00 526487 N 0 0 0
0:00:00.00 526819 N 0 0 0
0:00:00.00 527125 N 0 0 0
0:00:00.00 527395 N 0 0 0
0:00:00.00 527679 N 0 0 0
0:00:00.00 527908 N 0 0 0
0:00:00.00 528298 N 0 0 0
0:00:00.00 528646 N 0 0 0
0:00:00.00 528971 N 0 0 0
0:00:00.00 529247 N 0 0 0
0:00:00.00 529542 N 0 0 0
0:00:00.00 529857 N 0 0 0
0:00:00.00 530199 N 0 0 0
0:00:00.00 530456 N 0 0 0
0:00:00.00 530818 N 0 0 0
0:00:00.00 530921 N 0 0 0
0:00:00.00 530996 N 0 0 0
0:00:00.00 531070 N 0 0 0
0:00:00.00 531263 N 0 0 0
0:00:00.00 531407 N 0 0 0
0:00:00.00 531482 N 0 0 0
0:00:00.00 531709 N 0 0 0
0:00:00.00 531783 N 0 0 0
0:00:00.00 531855 N 0 0 0
0:00:00.00 531929 N 0 0 0
0:00:00.00 532022 N 0 0 0
0:00:00.00 532199 N 0 0 0
0:00:00.00 532276 N 0 0 0
0:00:00.00 532618 N 0 0 0
0:00:00.00 532976 N 0 0 0
0:00:00.00 533304 N 0 0 0
0:00:00.00 533500 N 0 0 0
0:00:00.00 533873 N 0 0 0
0:00:00.00 534062 N 0 0 0
0:00:00.00 534501 N 0 0 0
0:00:00.00 534830 N 0 0 0
0:00:00.00 535039 N 0 0 0
0:00:00.00 535486 N 0 0 0
0:00:00.00 535793 N 0 0 0
0:00:00.00 536058 N 0 0 0
0:00:00.00 536396 N 0 0 0
0:00:00.00 536783 N 0 0 0
0:00:00.00 537129 N 0 0 0
0:00:00.00 537451 N 0 0 0
0:00:00.00 537757 N 0 0 0
0:00:00.00 538056 N 0 0 0
0:00:00.00 538274 N 0 0 0
0:00:00.00 538700 N 0 0 0
0:00:00.00 539095 N 0 0 0
0:00:00.00 539433 N 0 0 0
0:00:00.00 539725 N 0 0 0
0:00:00.00 540094 N 0 0 0
0:00:00.00 540407 N 0 0 0
0:00:00.00 540738 N 0 0 0
0:00:00.00 540965 N 0 0 0
0:00:00.00 541060 N 0 0 0
0:00:00.00 541192 N 0 0 0
0:00:00.00 541424 N 0 0 0
0:00:00.00 541724 N 0 0 0
0:00:00.00 541971 N 0 0 0
0:00:00.00 542047 N 0 0 0
0:00:00.00 542120 N 0 0 0
0:00:00.00 542201 N 0 0 0
0:00:00.00 542277 N 0 0 0
0:00:00.00 542356 N 0 0 0
0:00:00.00 542567 N 0 0 0
0:00:00.00 542957 N 0 0 0
0:00:00.00 543278 N 0 0 0
0:00:00.00 543641 N 0 0 0
0:00:00.00 543980 N 0 0 0
0:00:00.00 544279 N 0 0 0
0:00:00.00 544547 N 0 0 0
0:00:00.00 544865 N 0 0 0
0:00:00.00 545168 N 0 0 0
0:00:00.00 545497 N 0 0 0
0:00:00.00 545836 N 0 0 0
0:00:00.00 546145 N 0 0 0
0:00:00.00 546435 N 0 0 0
0:00:00.00 546732 N 0 0 0
0:00:00.00 547040 N 0 0 0
0:00:00.00 547344 N 0 0 0
0:00:00.00 547655 N 0 0 0
0:00:00.00 547877 N 0 0 0
0:00:00.00 547954 N 0 0 0
0:00:00.00 548118 N 0 0 0
0:00:00.00 548192 N 0 0 0
0:00:00.00 548284 N 0 0 0
0:00:00.00 548568 N 0 0 0
0:00:00.00 548777 N 0 0 0
0:00:00.00 548858 N 0 0 0
0:00:00.00 549171 N 0 0 0
0:00:00.00 549470 N 0 0 0
0:00:00.00 549754 N 0 0 0
0:00:00.00 550089 N 0 0 0
0:00:00.00 550415 N 0 0 0
0:00:00.00 550721 N 0 0 0
0:00:00.00 550897 N 0 0 0
0:00:00.00 551293 N 0 0 0
0:00:00.00 551592 N 0 0 0
0:00:00.00 551772 N 0 0 0
0:00:00.00 552222 N 0 0 0
0:00:00.00 552555 N 0 0 0
0:00:00.00 552847 N 0 0 0
0:00:00.00 553126 N 0 0 0
0:00:00.00 553423 N 0 0 0
0:00:00.00 553689 N 0 0 0
0:00:00.00 553882 N 0 0 0
0:00:00.00 554362 N 0 0 0
0:00:00.00 554681 N 0 0 0
0:00:00.00 554981 N 0 0 0
0:00:00.00 555262 N 0 0 0
0:00:00.00 555565 N 0 0 0
0:00:00.00 555872 N 0 0 0
0:00:00.00 556202 N 0 0 0
0:00:00.00 556513 N 0 0 0
0:00:00.00 556848 N 0 0 0
0:00:00.00 557048 N 0 0 0
0:00:00.00 557467 N 0 0 0
0:00:00.00 557732 N 0 0 0
0:00:00.00 558083 N 0 0 0
0:00:00.00 558425 N 0 0 0
0:00:00.00 558763 N 0 0 0
0:00:00.00 558968 N 0 0 0
0:00:00.00 559406 N 0 0 0
0:00:00.00 559597 N 0 0 0
0:00:00.00 559989 N 0 0 0
0:00:00.00 560313 N 0 0 0
0:00:00.00 560669 N 0 0 0
0:00:00.00 561044 N 0 0 0
0:00:00.00 561362 N 0 0 0
0:00:00.00 561665 N 0 0 0
0:00:00.00 561962 N 0 0 0
0:00:00.00 562282 N 0 0 0
0:00:00.00 562622 N 0 0 0
0:00:00.00 562990 N 0 0 0
0:00:00.00 563351 N 0 0 0
0:00:00.00 563648 N 0 0 0
0:00:00.00 563859 N 0 0 0
0:00:00.00 564242 N 0 0 0
0:00:00.00 564590 N 0 0 0
0:00:00.00 564930 N 0 0 0
0:00:00.00 565254 N 0 0 0
0:00:00.00 565508 N 0 0 0
0:00:00.00 565893 N 0 0 0
0:00:00.00 566194 N 0 0 0
0:00:00.00 566494 N 0 0 0
0:00:00.00 566829 N 0 0 0
0:00:00.00 567056 N 0 0 0
0:00:00.00 567475 N 0 0 0
0:00:00.00 567814 N 0 0 0
0:00:00.00 568112 N 0 0 0
0:00:00.00 568391 N 0 0 0
0:00:00.00 568678 N 0 0 0
0:00:00.00 569009 N 0 0 0
0:00:00.00 569335 N 0 0 0
0:00:00.00 569655 N 0 0 0
0:00:00.00 569975 N 0 0 0
0:00:00.00 570260 N 0 0 0
0:00:00.00 570542 N 0 0 0
0:00:00.00 570852 N 0 0 0
0:00:00.00 571190 N 0 0 0
0:00:00.00 571516 N 0 0 0
0:00:00.00 571824 N 0 0 0
0:00:00.00 572134 N 0 0 0
0:00:00.00 572405 N 0 0 0
0:00:00.00 572715 N 0 0 0
0:00:00.00 573019 N 0 0 0
0:00:00.00 573361 N 0 0 0
0:00:00.00 573671 N 0 0 0
0:00:00.00 573989 N 0 0 0
0:00:00.00 574324 N 0 0 0
0:00:00.00 574628 N 0 0 0
0:00:00.00 574904 N 0 0 0
0:00:00.00 575192 N 0 0 0
0:00:00.00 575510 N 0 0 0
0:00:00.00 575703 N 0 0 0
0:00:00.00 576155 N 0 0 0
0:00:00.00 576481 N 0 0 0
0:00:00.00 576774 N 0 0 0
0:00:00.00 577057 N 0 0 0
0:00:00.00 577361 N 0 0 0
0:00:00.00 577640 N 0 0 0
0:00:00.00 577865 N 0 0 0
0:00:00.00 578358 N 0 0 0
0:00:00.00 578567 N 0 0 0
0:00:00.00 578975 N 0 0 0
0:00:00.00 579175 N 0 0 0
0:00:00.00 579587 N 0 0 0
0:00:00.00 579915 N 0 0 0
0:00:00.00 580270 N 0 0 0
0:00:00.00 580590 N 0 0 0
0:00:00.00 580919 N 0 0 0
0:00:00.00 581125 N 0 0 0
0:00:00.00 581506 N 0 0 0
0:00:00.00 581708 N 0 0 0
0:00:00.00 582143 N 0 0 0
0:00:00.00 582365 N 0 0 0
0:00:00.00 582804 N 0 0 0
0:00:00.00 583034 N 0 0 0
0:00:00.00 583427 N 0 0 0
0:00:00.00 583619 N 0 0 0
0:00:00.00 584051 N 0 0 0
0:00:00.00 584291 N 0 0 0
0:00:00.00 584770 N 0 0 0
0:00:00.00 585090 N 0 0 0
0:00:00.00 585392 N 0 0 0
0:00:00.00 585675 N 0 0 0
0:00:00.00 585970 N 0 0 0
0:00:00.00 586190 N 0 0 0
0:00:00.00 586622 N 0 0 0
0:00:00.00 586861 N 0 0 0
0:00:00.00 587252 N 0 0 0
0:00:00.00 587552 N 0 0 0
0:00:00.00 587860 N 0 0 0
0:00:00.00 588164 N 0 0 0
0:00:00.00 588334 N 0 0 0
0:00:00.00 588771 N 0 0 0
0:00:00.00 589093 N 0 0 0
0:00:00.00 589401 N 0 0 0
0:00:00.00 589703 N 0 0 0
0:00:00.00 589970 N 0 0 0
0:00:00.00 590278 N 0 0 0
0:00:00.00 590566 N 0 0 0
0:00:00.00 590837 N 0 0 0
0:00:00.00 591232 N 0 0 0
0:00:00.00 591547 N 0 0 0
0:00:00.00 591829 N 0 0 0
0:00:00.00 591977 N 0 0 0
0:00:00.00 592052 N 0 0 0
0:00:00.00 592394 N 0 0 0
0:00:00.00 592596 N 0 0 0
0:00:00.00 593012 N 0 0 0
0:00:00.00 593334 N 0 0 0
0:00:00.00 593629 N 0 0 0
0:00:00.00 593923 N 0 0 0
0:00:00.00 594212 N 0 0 0
0:00:00.00 594515 N 0 0 0
0:00:00.00 594691 N 0 0 0
0:00:00.00 595118 N 0 0 0
0:00:00.00 595435 N 0 0 0
0:00:00.00 595744 N 0 0 0
0:00:00.00 596027 N 0 0 0
0:00:00.00 596333 N 0 0 0
0:00:00.00 596619 N 0 0 0
0:00:00.00 596916 N 0 0 0
0:00:00.00 597217 N 0 0 0
0:00:00.00 597418 N 0 0 0
0:00:00.00 597881 N 0 0 0
0:00:00.00 598081 N 0 0 0
0:00:00.00 598455 N 0 0 0
0:00:00.00 598743 N 0 0 0
0:00:00.00 599036 N 0 0 0
0:00:00.00 599348 N 0 0 0
0:00:00.00 599578 N 0 0 0
0:00:00.00 600012 N 0 0 0
0:00:00.00 600203 N 0 0 0
0:00:00.00 600601 N 0 0 0
0:00:00.00 600908 N 0 0 0
0:00:00.00 601234 N 0 0 0
0:00:00.00 601564 N 0 0 0
0:00:00.00 601796 N 0 0 0
0:00:00.00 602186 N 0 0 0
0:00:00.00 602411 N 0 0 0
0:00:00.00 602815 N 0 0 0
0:00:00.00 603115 N 0 0 0
0:00:00.00 603423 N 0 0 0
0:00:00.00 603745 N 0 0 0
0:00:00.00 603958 N 0 0 0
0:00:00.00 604400 N 0 0 0
0:00:00.00 604627 N 0 0 0
0:00:00.00 605030 N 0 0 0
0:00:00.00 605221 N 0 0 0
0:00:00.00 605642 N 0 0 0
0:00:00.00 605974 N 0 0 0
0:00:00.00 606296 N 0 0 0
0:00:00.00 606652 N 0 0 0
0:00:00.00 606960 N 0 0 0
0:00:00.00 607237 N 0 0 0
0:00:00.00 607531 N 0 0 0
0:00:00.00 607856 N 0 0 0
0:00:00.00 608186 N 0 0 0
0:00:00.00 608465 N 0 0 0
0:00:00.00 608825 N 0 0 0
0:00:00.00 609129 N 0 0 0
0:00:00.00 609419 N 0 0 0
0:00:00.00 609721 N 0 0 0
0:00:00.00 610058 N 0 0 0
0:00:00.00 610272 N 0 0 0
0:00:00.00 610682 N 0 0 0
0:00:00.00 610893 N 0 0 0
0:00:00.00 611323 N 0 0 0
0:00:00.00 611519 N 0 0 0
0:00:00.00 611928 N 0 0 0
0:00:00.00 612135 N 0 0 0
0:00:00.00 612560 N 0 0 0
0:00:00.00 612765 N 0 0 0
0:00:00.00 613193 N 0 0 0
0:00:00.00 613420 N 0 0 0
0:00:00.00 613791 N 0 0 0
0:00:00.00 614088 N 0 0 0
0:00:00.00 614410 N 0 0 0
0:00:00.00 614756 N 0 0 0
0:00:00.00 615073 N 0 0 0
0:00:00.00 615375 N 0 0 0
0:00:00.00 615560 N 0 0 0
0:00:00.00 615953 N 0 0 0
0:00:00.00 616266 N 0 0 0
0:00:00.00 616586 N 0 0 0
0:00:00.00 616918 N 0 0 0
0:00:00.00 617231 N 0 0 0
0:00:00.00 617533 N 0 0 0
0:00:00.00 617724 N 0 0 0
0:00:00.00 618136 N 0 0 0
0:00:00.00 618442 N 0 0 0
0:00:00.00 618746 N 0 0 0
0:00:00.00 619054 N 0 0 0
0:00:00.00 619364 N 0 0 0
0:00:00.00 619675 N 0 0 0
0:00:00.00 619990 N 0 0 0
0:00:00.00 620266 N 0 0 0
0:00:00.00 620559 N 0 0 0
0:00:00.00 620748 N 0 0 0
0:00:00.00 621196 N 0 0 0
0:00:00.00 621517 N 0 0 0
0:00:00.00 621837 N 0 0 0
0:00:00.00 622139 N 0 0 0
0:00:00.00 622424 N 0 0 0
0:00:00.00 622613 N 0 0 0
0:00:00.00 623048 N 0 0 0
0:00:00.00 623403 N 0 0 0
0:00:00.00 623727 N 0 0 0
0:00:00.00 624040 N 0 0 0
0:00:00.00 624359 N 0 0 0
0:00:00.00 624661 N 0 0 0
0:00:00.00 624872 N 0 0 0
0:00:00.00 625318 N 0 0 0
0:00:00.00 625640 N 0 0 0
0:00:00.00 625961 N 0 0 0
0:00:00.00 626256 N 0 0 0
0:00:00.00 626584 N 0 0 0
0:00:00.00 626884 N 0 0 0
0:00:00.00 627214 N 0 0 0
0:00:00.00 627557 N 0 0 0
0:00:00.00 627903 N 0 0 0
0:00:00.00 628234 N 0 0 0
0:00:00.00 628544 N 0 0 0
0:00:00.00 628841 N 0 0 0
0:00:00.00 629134 N 0 0 0
0:00:00.00 629440 N 0 0 0
0:00:00.00 629768 N 0 0 0
0:00:00.00 630106 N 0 0 0
0:00:00.00 630418 N 0 0 0
0:00:00.00 630709 N 0 0 0
0:00:00.00 631010 N 0 0 0
0:00:00.00 631323 N 0 0 0
0:00:00.00 631507 N 0 0 0
0:00:00.00 631982 N 0 0 0
0:00:00.00 632218 N 0 0 0
0:00:00.00 632608 N 0 0 0
0:00:00.00 632864 N 0 0 0
0:00:00.00 633190 N 0 0 0
0:00:00.00 633496 N 0 0 0
0:00:00.00 633710 N 0 0 0
0:00:00.00 634111 N 0 0 0
0:00:00.00 634423 N 0 0 0
0:00:00.00 634754 N 0 0 0
0:00:00.00 635047 N 0 0 0
0:00:00.00 635341 N 0 0 0
0:00:00.00 635620 N 0 0 0
0:00:00.00 635931 N 0 0 0
0:00:00.00 636242 N 0 0 0
0:00:00.00 636559 N 0 0 0
0:00:00.00 636876 N 0 0 0
0:00:00.00 637155 N 0 0 0
0:00:00.00 637447 N 0 0 0
0:00:00.00 637628 N 0 0 0
0:00:00.00 638068 N 0 0 0
0:00:00.00 638401 N 0 0 0
0:00:00.00 638721 N 0 0 0
0:00:00.00 639013 N 0 0 0
0:00:00.00 639227 N 0 0 0
0:00:00.00 639587 N 0 0 0
0:00:00.00 639754 N 0 0 0
0:00:00.00 640175 N 0 0 0
0:00:00.00 640476 N 0 0 0
0:00:00.00 640796 N 0 0 0
0:00:00.00 641111 N 0 0 0
0:00:00.00 641414 N 0 0 0
0:00:00.00 641612 N 0 0 0
0:00:00.00 641981 N 0 0 0
0:00:00.00 642175 N 0 0 0
0:00:00.00 642587 N 0 0 0
0:00:00.00 642805 N 0 0 0
0:00:00.00 643212 N 0 0 0
0:00:00.00 643518 N 0 0 0
0:00:00.00 643804 N 0 0 0
0:00:00.00 644094 N 0 0 0
0:00:00.00 644398 N 0 0 0
0:00:00.00 644738 N 0 0 0
0:00:00.00 644945 N 0 0 0
0:00:00.00 645383 N 0 0 0
0:00:00.00 645683 N 0 0 0
0:00:00.00 645971 N 0 0 0
0:00:00.00 646270 N 0 0 0
0:00:00.00 646580 N 0 0 0
0:00:00.00 646913 N 0 0 0
0:00:00.00 647102 N 0 0 0
0:00:00.00 647514 N 0 0 0
0:00:00.00 647847 N 0 0 0
0:00:00.00 648058 N 0 0 0
0:00:00.00 648466 N 0 0 0
0:00:00.00 648778 N 0 0 0
0:00:00.00 649109 N 0 0 0
0:00:00.00 649339 N 0 0 0
0:00:00.00 649760 N 0 0 0
