0:00:00.00 77 N 0 0 0
0:00:00.00 352 N 0 0 0
0:00:00.00 618 N 0 0 0
0:00:00.00 882 N 0 0 0
0:00:00.00 1140 N 0 0 0
0:00:00.00 1403 N 0 0 0
0:00:00.00 1667 N 0 0 0
0:00:00.00 1928 N 0 0 0
0:00:00.00 2201 N 0 0 0
0:00:00.00 2468 N 0 0 0
0:00:00.00 2727 N 0 0 0
0:00:00.00 2986 N 0 0 0
0:00:00.00 3245 N 0 0 0
0:00:00.00 3503 N 0 0 0
0:00:00.00 3764 N 0 0 0
0:00:00.00 4027 N 0 0 0
0:00:00.00 4301 N 0 0 0
0:00:00.00 4571 N 0 0 0
0:00:00.00 4842 N 0 0 0
0:00:00.00 5116 N 0 0 0
0:00:00.00 5389 N 0 0 0
0:00:00.00 5664 N 0 0 0
0:00:00.00 5928 N 0 0 0
0:00:00.00 6195 N 0 0 0
0:00:00.00 6461 N 0 0 0
0:00:00.00 6734 N 0 0 0
0:00:00.00 7007 N 0 0 0
0:00:00.00 7265 N 0 0 0
0:00:00.00 7527 N 0 0 0
0:00:00.00 7778 N 0 0 0
0:00:00.00 8027 N 0 0 0
0:00:00.00 8276 N 0 0 0
0:00:00.00 8526 N 0 0 0
0:00:00.00 8784 N 0 0 0
0:00:00.00 9055 N 0 0 0
0:00:00.00 9331 N 0 0 0
0:00:00.00 9600 N 0 0 0
0:00:00.00 9874 N 0 0 0
0:00:00.00 10157 N 0 0 0
0:00:00.00 10440 N 0 0 0
0:00:00.00 10719 N 0 0 0
0:00:00.00 10991 N 0 0 0
0:00:00.00 11262 N 0 0 0
0:00:00.00 11534 N 0 0 0
0:00:00.00 11808 N 0 0 0
0:00:00.00 12081 N 0 0 0
0:00:00.00 12361 N 0 0 0
0:00:00.00 12644 N 0 0 0
0:00:00.00 12925 N 0 0 0
0:00:00.00 13210 N 0 0 0
0:00:00.00 13499 N 0 0 0
0:00:00.00 13782 N 0 0 0
0:00:00.00 14058 N 0 0 0
0:00:00.00 14334 N 0 0 0
0:00:00.00 14612 N 0 0 0
0:00:00.00 14877 N 0 0 0
0:00:00.00 15154 N 0 0 0
0:00:00.00 15437 N 0 0 0
0:00:00.00 15710 N 0 0 0
0:00:00.00 15986 N 0 0 0
0:00:00.00 16271 N 0 0 0
0:00:00.00 16572 N 0 0 0
0:00:00.00 16870 N 0 0 0
0:00:00.00 17165 N 0 0 0
0:00:00.00 17453 N 0 0 0
0:00:00.00 17731 N 0 0 0
0:00:00.00 18010 N 0 0 0
0:00:00.00 18281 N 0 0 0
0:00:00.00 18562 N 0 0 0
0:00:00.00 18853 N 0 0 0
0:00:00.00 19136 N 0 0 0
0:00:00.00 19415 N 0 0 0
0:00:00.00 19692 N 0 0 0
0:00:00.00 19982 N 0 0 0
0:00:00.00 20273 N 0 0 0
0:00:00.00 20563 N 0 0 0
0:00:00.00 20837 N 0 0 0
0:00:00.00 21113 N 0 0 0
0:00:00.00 21398 N 0 0 0
0:00:00.00 21691 N 0 0 0
0:00:00.00 22000 N 0 0 0
0:00:00.00 22303 N 0 0 0
0:00:00.00 22597 N 0 0 0
0:00:00.00 22897 N 0 0 0
0:00:00.00 23203 N 0 0 0
0:00:00.00 23496 N 0 0 0
0:00:00.00 23780 N 0 0 0
0:00:00.00 24060 N 0 0 0
0:00:00.00 24351 N 0 0 0
0:00:00.00 24651 N 0 0 0
0:00:00.00 24949 N 0 0 0
0:00:00.00 25246 N 0 0 0
0:00:00.00 25546 N 0 0 0
0:00:00.00 25829 N 0 0 0
0:00:00.00 26091 N 0 0 0
0:00:00.00 26355 N 0 0 0
0:00:00.00 26624 N 0 0 0
0:00:00.00 26887 N 0 0 0
0:00:00.00 27162 N 0 0 0
0:00:00.00 27449 N 0 0 0
0:00:00.00 27743 N 0 0 0
0:00:00.00 28036 N 0 0 0
0:00:00.00 28332 N 0 0 0
0:00:00.00 28635 N 0 0 0
0:00:00.00 28924 N 0 0 0
0:00:00.00 29214 N 0 0 0
0:00:00.00 29498 N 0 0 0
0:00:00.00 29786 N 0 0 0
0:00:00.00 30084 N 0 0 0
0:00:00.00 30384 N 0 0 0
0:00:00.00 30673 N 0 0 0
0:00:00.00 30954 N 0 0 0
0:00:00.00 31223 N 0 0 0
0:00:00.00 31499 N 0 0 0
0:00:00.00 31791 N 0 0 0
0:00:00.00 32082 N 0 0 0
0:00:00.00 32379 N 0 0 0
0:00:00.00 32674 N 0 0 0
0:00:00.00 32982 N 0 0 0
0:00:00.00 33292 N 0 0 0
0:00:00.00 33585 N 0 0 0
0:00:00.00 33872 N 0 0 0
0:00:00.00 34158 N 0 0 0
0:00:00.00 34442 N 0 0 0
0:00:00.00 34722 N 0 0 0
0:00:00.00 35012 N 0 0 0
0:00:00.00 35312 N 0 0 0
0:00:00.00 35622 N 0 0 0
0:00:00.00 35949 N 0 0 0
0:00:00.00 36262 N 0 0 0
0:00:00.00 36577 N 0 0 0
0:00:00.00 36893 N 0 0 0
0:00:00.00 37186 N 0 0 0
0:00:00.00 37479 N 0 0 0
0:00:00.00 37765 N 0 0 0
0:00:00.00 38059 N 0 0 0
0:00:00.00 38358 N 0 0 0
0:00:00.00 38669 N 0 0 0
0:00:00.00 38979 N 0 0 0
0:00:00.00 39269 N 0 0 0
0:00:00.00 39554 N 0 0 0
0:00:00.00 39838 N 0 0 0
0:00:00.00 40126 N 0 0 0
0:00:00.00 40404 N 0 0 0
0:00:00.00 40685 N 0 0 0
0:00:00.00 40968 N 0 0 0
0:00:00.00 41243 N 0 0 0
0:00:00.00 41533 N 0 0 0
0:00:00.00 41830 N 0 0 0
0:00:00.00 42139 N 0 0 0
0:00:00.00 42440 N 0 0 0
0:00:00.00 42747 N 0 0 0
0:00:00.00 43066 N 0 0 0
0:00:00.00 43375 N 0 0 0
0:00:00.00 43671 N 0 0 0
0:00:00.00 43947 N 0 0 0
0:00:00.00 44220 N 0 0 0
0:00:00.00 44488 N 0 0 0
0:00:00.00 44758 N 0 0 0
0:00:00.00 45033 N 0 0 0
0:00:00.00 45298 N 0 0 0
0:00:00.00 45567 N 0 0 0
0:00:00.00 45840 N 0 0 0
0:00:00.00 46114 N 0 0 0
0:00:00.00 46393 N 0 0 0
0:00:00.00 46665 N 0 0 0
0:00:00.00 46951 N 0 0 0
0:00:00.00 47275 N 0 0 0
0:00:00.00 47601 N 0 0 0
0:00:00.00 47934 N 0 0 0
0:00:00.00 48249 N 0 0 0
0:00:00.00 48548 N 0 0 0
0:00:00.00 48842 N 0 0 0
0:00:00.00 49138 N 0 0 0
0:00:00.00 49428 N 0 0 0
0:00:00.00 49712 N 0 0 0
0:00:00.00 49996 N 0 0 0
0:00:00.00 50272 N 0 0 0
0:00:00.00 50553 N 0 0 0
0:00:00.00 50840 N 0 0 0
0:00:00.00 51129 N 0 0 0
0:00:00.00 51423 N 0 0 0
0:00:00.00 51719 N 0 0 0
0:00:00.00 52006 N 0 0 0
0:00:00.00 52296 N 0 0 0
0:00:00.00 52597 N 0 0 0
0:00:00.00 52892 N 0 0 0
0:00:00.00 53178 N 0 0 0
0:00:00.00 53459 N 0 0 0
0:00:00.00 53733 N 0 0 0
0:00:00.00 54009 N 0 0 0
0:00:00.00 54277 N 0 0 0
0:00:00.00 54548 N 0 0 0
0:00:00.00 54822 N 0 0 0
0:00:00.00 55095 N 0 0 0
0:00:00.00 55378 N 0 0 0
0:00:00.00 55672 N 0 0 0
0:00:00.00 55963 N 0 0 0
0:00:00.00 56238 N 0 0 0
0:00:00.00 56509 N 0 0 0
0:00:00.00 56773 N 0 0 0
0:00:00.00 57037 N 0 0 0
0:00:00.00 57299 N 0 0 0
0:00:00.00 57568 N 0 0 0
0:00:00.00 57842 N 0 0 0
0:00:00.00 58116 N 0 0 0
0:00:00.00 58392 N 0 0 0
0:00:00.00 58662 N 0 0 0
0:00:00.00 58945 N 0 0 0
0:00:00.00 59239 N 0 0 0
0:00:00.00 59522 N 0 0 0
0:00:00.00 59794 N 0 0 0
0:00:00.00 60047 N 0 0 0
0:00:00.00 60297 N 0 0 0
0:00:00.00 60539 N 0 0 0
0:00:00.00 60777 N 0 0 0
0:00:00.00 61017 N 0 0 0
0:00:00.00 61265 N 0 0 0
0:00:00.00 61507 N 0 0 0
0:00:00.00 61754 N 0 0 0
0:00:00.00 62000 N 0 0 0
0:00:00.00 62257 N 0 0 0
0:00:00.00 62517 N 0 0 0
0:00:00.00 62767 N 0 0 0
0:00:00.00 63021 N 0 0 0
0:00:00.00 63267 N 0 0 0
0:00:00.00 63510 N 0 0 0
0:00:00.00 63761 N 0 0 0
0:00:00.00 64002 N 0 0 0
0:00:00.00 64249 N 0 0 0
0:00:00.00 64496 N 0 0 0
0:00:00.00 64733 N 0 0 0
0:00:00.00 64972 N 0 0 0
0:00:00.00 65205 N 0 0 0
0:00:00.00 65437 N 0 0 0
0:00:00.00 65672 N 0 0 0
0:00:00.00 65902 N 0 0 0
0:00:00.00 66128 N 0 0 0
0:00:00.00 66347 N 0 0 0
0:00:00.00 66566 N 0 0 0
0:00:00.00 66784 N 0 0 0
0:00:00.00 67017 N 0 0 0
0:00:00.00 67258 N 0 0 0
0:00:00.00 67517 N 0 0 0
0:00:00.00 67797 N 0 0 0
0:00:00.00 68077 N 0 0 0
0:00:00.00 68351 N 0 0 0
0:00:00.00 68609 N 0 0 0
0:00:00.00 68862 N 0 0 0
0:00:00.00 69108 N 0 0 0
0:00:00.00 69338 N 0 0 0
0:00:00.00 69570 N 0 0 0
0:00:00.00 69794 N 0 0 0
0:00:00.00 70020 N 0 0 0
0:00:00.00 70253 N 0 0 0
0:00:00.00 70491 N 0 0 0
0:00:00.00 70737 N 0 0 0
0:00:00.00 70999 N 0 0 0
0:00:00.00 71261 N 0 0 0
0:00:00.00 71522 N 0 0 0
0:00:00.00 71783 N 0 0 0
0:00:00.00 72056 N 0 0 0
0:00:00.00 72325 N 0 0 0
0:00:00.00 72581 N 0 0 0
0:00:00.00 72843 N 0 0 0
0:00:00.00 73094 N 0 0 0
0:00:00.00 73344 N 0 0 0
0:00:00.00 73596 N 0 0 0
0:00:00.00 73847 N 0 0 0
0:00:00.00 74110 N 0 0 0
0:00:00.00 74381 N 0 0 0
0:00:00.00 74645 N 0 0 0
0:00:00.00 74905 N 0 0 0
0:00:00.00 75164 N 0 0 0
0:00:00.00 75430 N 0 0 0
0:00:00.00 75694 N 0 0 0
0:00:00.00 75955 N 0 0 0
0:00:00.00 76217 N 0 0 0
0:00:00.00 76483 N 0 0 0
0:00:00.00 76741 N 0 0 0
0:00:00.00 76991 N 0 0 0
0:00:00.00 77242 N 0 0 0
0:00:00.00 77489 N 0 0 0
0:00:00.00 77730 N 0 0 0
0:00:00.00 77966 N 0 0 0
0:00:00.00 78198 N 0 0 0
0:00:00.00 78430 N 0 0 0
0:00:00.00 78665 N 0 0 0
0:00:00.00 78906 N 0 0 0
0:00:00.00 79149 N 0 0 0
0:00:00.00 79401 N 0 0 0
0:00:00.00 79648 N 0 0 0
0:00:00.00 79901 N 0 0 0
0:00:00.00 80159 N 0 0 0
0:00:00.00 80421 N 0 0 0
0:00:00.00 80676 N 0 0 0
0:00:00.00 80934 N 0 0 0
0:00:00.00 81180 N 0 0 0
0:00:00.00 81431 N 0 0 0
0:00:00.00 81676 N 0 0 0
0:00:00.00 81918 N 0 0 0
0:00:00.00 82162 N 0 0 0
0:00:00.00 82398 N 0 0 0
0:00:00.00 82629 N 0 0 0
0:00:00.00 82856 N 0 0 0
0:00:00.00 83090 N 0 0 0
0:00:00.00 83340 N 0 0 0
0:00:00.00 83590 N 0 0 0
0:00:00.00 83849 N 0 0 0
0:00:00.00 84109 N 0 0 0
0:00:00.00 84366 N 0 0 0
0:00:00.00 84613 N 0 0 0
0:00:00.00 84852 N 0 0 0
0:00:00.00 85102 N 0 0 0
0:00:00.00 85348 N 0 0 0
0:00:00.00 85588 N 0 0 0
0:00:00.00 85832 N 0 0 0
0:00:00.00 86076 N 0 0 0
0:00:00.00 86338 N 0 0 0
0:00:00.00 86605 N 0 0 0
0:00:00.00 86855 N 0 0 0
0:00:00.00 87105 N 0 0 0
0:00:00.00 87353 N 0 0 0
0:00:00.00 87601 N 0 0 0
0:00:00.00 87849 N 0 0 0
0:00:00.00 88092 N 0 0 0
0:00:00.00 88340 N 0 0 0
0:00:00.00 88590 N 0 0 0
0:00:00.00 88835 N 0 0 0
0:00:00.00 89082 N 0 0 0
0:00:00.00 89328 N 0 0 0
0:00:00.00 89590 N 0 0 0
0:00:00.00 89864 N 0 0 0
0:00:00.00 90124 N 0 0 0
0:00:00.00 90389 N 0 0 0
0:00:00.00 90666 N 0 0 0
0:00:00.00 90922 N 0 0 0
0:00:00.00 91175 N 0 0 0
0:00:00.00 91425 N 0 0 0
0:00:00.00 91685 N 0 0 0
0:00:00.00 91958 N 0 0 0
0:00:00.00 92230 N 0 0 0
0:00:00.00 92489 N 0 0 0
0:00:00.00 92742 N 0 0 0
0:00:00.00 93000 N 0 0 0
0:00:00.00 93258 N 0 0 0
0:00:00.00 93526 N 0 0 0
0:00:00.00 93795 N 0 0 0
0:00:00.00 94057 N 0 0 0
0:00:00.00 94310 N 0 0 0
0:00:00.00 94560 N 0 0 0
0:00:00.00 94826 N 0 0 0
0:00:00.00 95124 N 0 0 0
0:00:00.00 95430 N 0 0 0
0:00:00.00 95742 N 0 0 0
0:00:00.00 96050 N 0 0 0
0:00:00.00 96343 N 0 0 0
0:00:00.00 96612 N 0 0 0
0:00:00.00 96879 N 0 0 0
0:00:00.00 97136 N 0 0 0
0:00:00.00 97382 N 0 0 0
0:00:00.00 97631 N 0 0 0
0:00:00.00 97874 N 0 0 0
0:00:00.00 98115 N 0 0 0
0:00:00.00 98360 N 0 0 0
0:00:00.00 98597 N 0 0 0
0:00:00.00 98838 N 0 0 0
0:00:00.00 99076 N 0 0 0
0:00:00.00 99324 N 0 0 0
0:00:00.00 99575 N 0 0 0
0:00:00.00 99817 N 0 0 0
0:00:00.00 100067 N 0 0 0
0:00:00.00 100311 N 0 0 0
0:00:00.00 100561 N 0 0 0
0:00:00.00 100823 N 0 0 0
0:00:00.00 101086 N 0 0 0
0:00:00.00 101361 N 0 0 0
0:00:00.00 101626 N 0 0 0
0:00:00.00 101875 N 0 0 0
0:00:00.00 102135 N 0 0 0
0:00:00.00 102406 N 0 0 0
0:00:00.00 102690 N 0 0 0
0:00:00.00 102989 N 0 0 0
0:00:00.00 103328 N 0 0 0
0:00:00.00 103648 N 0 0 0
0:00:00.00 103978 N 0 0 0
0:00:00.00 104314 N 0 0 0
0:00:00.00 104665 N 0 0 0
0:00:00.00 105026 N 0 0 0
0:00:00.00 105348 N 0 0 0
0:00:00.00 105651 N 0 0 0
0:00:00.00 105963 N 0 0 0
0:00:00.00 106293 N 0 0 0
0:00:00.00 106647 N 0 0 0
0:00:00.00 107009 N 0 0 0
0:00:00.00 107360 N 0 0 0
0:00:00.00 107709 N 0 0 0
0:00:00.00 108051 N 0 0 0
0:00:00.00 108392 N 0 0 0
0:00:00.00 108725 N 0 0 0
0:00:00.00 109053 N 0 0 0
0:00:00.00 109400 N 0 0 0
0:00:00.00 109754 N 0 0 0
0:00:00.00 110087 N 0 0 0
0:00:00.00 110415 N 0 0 0
0:00:00.00 110754 N 0 0 0
0:00:00.00 111079 N 0 0 0
0:00:00.00 111417 N 0 0 0
0:00:00.00 111768 N 0 0 0
0:00:00.00 112093 N 0 0 0
0:00:00.00 112404 N 0 0 0
0:00:00.00 112747 N 0 0 0
0:00:00.00 113101 N 0 0 0
0:00:00.00 113439 N 0 0 0
0:00:00.00 113783 N 0 0 0
0:00:00.00 114085 N 0 0 0
0:00:00.00 114389 N 0 0 0
0:00:00.00 114713 N 0 0 0
0:00:00.00 115034 N 0 0 0
0:00:00.00 115357 N 0 0 0
0:00:00.00 115695 N 0 0 0
0:00:00.00 116040 N 0 0 0
0:00:00.00 116390 N 0 0 0
0:00:00.00 116732 N 0 0 0
0:00:00.00 117071 N 0 0 0
0:00:00.00 117421 N 0 0 0
0:00:00.00 117761 N 0 0 0
0:00:00.00 118085 N 0 0 0
0:00:00.00 118419 N 0 0 0
0:00:00.00 118763 N 0 0 0
0:00:00.00 119126 N 0 0 0
0:00:00.00 119493 N 0 0 0
0:00:00.00 119837 N 0 0 0
0:00:00.00 120174 N 0 0 0
0:00:00.00 120524 N 0 0 0
0:00:00.00 120865 N 0 0 0
0:00:00.00 121211 N 0 0 0
0:00:00.00 121558 N 0 0 0
0:00:00.00 121899 N 0 0 0
0:00:00.00 122254 N 0 0 0
0:00:00.00 122608 N 0 0 0
0:00:00.00 122915 N 0 0 0
0:00:00.00 123224 N 0 0 0
0:00:00.00 123542 N 0 0 0
0:00:00.00 123888 N 0 0 0
0:00:00.00 124226 N 0 0 0
0:00:00.00 124542 N 0 0 0
0:00:00.00 124849 N 0 0 0
0:00:00.00 125154 N 0 0 0
0:00:00.00 125470 N 0 0 0
0:00:00.00 125807 N 0 0 0
0:00:00.00 126150 N 0 0 0
0:00:00.00 126468 N 0 0 0
0:00:00.00 126767 N 0 0 0
0:00:00.00 127072 N 0 0 0
0:00:00.00 127391 N 0 0 0
0:00:00.00 127738 N 0 0 0
0:00:00.00 128093 N 0 0 0
0:00:00.00 128443 N 0 0 0
0:00:00.00 128789 N 0 0 0
0:00:00.00 129105 N 0 0 0
0:00:00.00 129403 N 0 0 0
0:00:00.00 129685 N 0 0 0
0:00:00.00 129972 N 0 0 0
0:00:00.00 130264 N 0 0 0
0:00:00.00 130576 N 0 0 0
0:00:00.00 130921 N 0 0 0
0:00:00.00 131269 N 0 0 0
0:00:00.00 131618 N 0 0 0
0:00:00.00 131935 N 0 0 0
0:00:00.00 132252 N 0 0 0
0:00:00.00 132543 N 0 0 0
0:00:00.00 132834 N 0 0 0
0:00:00.00 133138 N 0 0 0
0:00:00.00 133467 N 0 0 0
0:00:00.00 133799 N 0 0 0
0:00:00.00 134163 N 0 0 0
0:00:00.00 134537 N 0 0 0
0:00:00.00 134894 N 0 0 0
0:00:00.00 135244 N 0 0 0
0:00:00.00 135594 N 0 0 0
0:00:00.00 135930 N 0 0 0
0:00:00.00 136263 N 0 0 0
0:00:00.00 136580 N 0 0 0
0:00:00.00 136911 N 0 0 0
0:00:00.00 137259 N 0 0 0
0:00:00.00 137592 N 0 0 0
0:00:00.00 137928 N 0 0 0
0:00:00.00 138266 N 0 0 0
0:00:00.00 138620 N 0 0 0
0:00:00.00 138974 N 0 0 0
0:00:00.00 139322 N 0 0 0
0:00:00.00 139662 N 0 0 0
0:00:00.00 139981 N 0 0 0
0:00:00.00 140285 N 0 0 0
0:00:00.00 140590 N 0 0 0
0:00:00.00 140903 N 0 0 0
0:00:00.00 141225 N 0 0 0
0:00:00.00 141562 N 0 0 0
0:00:00.00 141898 N 0 0 0
0:00:00.00 142251 N 0 0 0
0:00:00.00 142606 N 0 0 0
0:00:00.00 142946 N 0 0 0
0:00:00.00 143281 N 0 0 0
0:00:00.00 143628 N 0 0 0
0:00:00.00 143998 N 0 0 0
0:00:00.00 144367 N 0 0 0
0:00:00.00 144703 N 0 0 0
0:00:00.00 145046 N 0 0 0
0:00:00.00 145406 N 0 0 0
0:00:00.00 145746 N 0 0 0
0:00:00.00 146095 N 0 0 0
0:00:00.00 146447 N 0 0 0
0:00:00.00 146803 N 0 0 0
0:00:00.00 147168 N 0 0 0
0:00:00.00 147501 N 0 0 0
0:00:00.00 147824 N 0 0 0
0:00:00.00 148146 N 0 0 0
0:00:00.00 148478 N 0 0 0
0:00:00.00 148830 N 0 0 0
0:00:00.00 149156 N 0 0 0
0:00:00.00 149473 N 0 0 0
0:00:00.00 149800 N 0 0 0
0:00:00.00 150127 N 0 0 0
0:00:00.00 150461 N 0 0 0
0:00:00.00 150780 N 0 0 0
0:00:00.00 151100 N 0 0 0
0:00:00.00 151434 N 0 0 0
0:00:00.00 151781 N 0 0 0
0:00:00.00 152127 N 0 0 0
0:00:00.00 152447 N 0 0 0
0:00:00.00 152768 N 0 0 0
0:00:00.00 153095 N 0 0 0
0:00:00.00 153403 N 0 0 0
0:00:00.00 153739 N 0 0 0
0:00:00.00 154097 N 0 0 0
0:00:00.00 154463 N 0 0 0
0:00:00.00 154836 N 0 0 0
0:00:00.00 155160 N 0 0 0
0:00:00.00 155487 N 0 0 0
0:00:00.00 155814 N 0 0 0
0:00:00.00 156139 N 0 0 0
0:00:00.00 156440 N 0 0 0
0:00:00.00 156731 N 0 0 0
0:00:00.00 157038 N 0 0 0
0:00:00.00 157359 N 0 0 0
0:00:00.00 157687 N 0 0 0
0:00:00.00 158022 N 0 0 0
0:00:00.00 158374 N 0 0 0
0:00:00.00 158715 N 0 0 0
0:00:00.00 159056 N 0 0 0
0:00:00.00 159361 N 0 0 0
0:00:00.00 159664 N 0 0 0
0:00:00.00 159968 N 0 0 0
0:00:00.00 160291 N 0 0 0
0:00:00.00 160614 N 0 0 0
0:00:00.00 160937 N 0 0 0
0:00:00.00 161233 N 0 0 0
0:00:00.00 161517 N 0 0 0
0:00:00.00 161796 N 0 0 0
0:00:00.00 162086 N 0 0 0
0:00:00.00 162400 N 0 0 0
0:00:00.00 162707 N 0 0 0
0:00:00.00 163033 N 0 0 0
0:00:00.00 163364 N 0 0 0
0:00:00.00 163699 N 0 0 0
0:00:00.00 163994 N 0 0 0
0:00:00.00 164283 N 0 0 0
0:00:00.00 164568 N 0 0 0
0:00:00.00 164847 N 0 0 0
0:00:00.00 165133 N 0 0 0
0:00:00.00 165435 N 0 0 0
0:00:00.00 165759 N 0 0 0
0:00:00.00 166090 N 0 0 0
0:00:00.00 166400 N 0 0 0
0:00:00.00 166719 N 0 0 0
0:00:00.00 167041 N 0 0 0
0:00:00.00 167346 N 0 0 0
0:00:00.00 167651 N 0 0 0
0:00:00.00 167959 N 0 0 0
0:00:00.00 168270 N 0 0 0
0:00:00.00 168590 N 0 0 0
0:00:00.00 168916 N 0 0 0
0:00:00.00 169216 N 0 0 0
0:00:00.00 169523 N 0 0 0
0:00:00.00 169836 N 0 0 0
0:00:00.00 170166 N 0 0 0
0:00:00.00 170489 N 0 0 0
0:00:00.00 170795 N 0 0 0
0:00:00.00 171097 N 0 0 0
0:00:00.00 171410 N 0 0 0
0:00:00.00 171738 N 0 0 0
0:00:00.00 172071 N 0 0 0
0:00:00.00 172389 N 0 0 0
0:00:00.00 172716 N 0 0 0
0:00:00.00 173047 N 0 0 0
0:00:00.00 173394 N 0 0 0
0:00:00.00 173738 N 0 0 0
0:00:00.00 174067 N 0 0 0
0:00:00.00 174390 N 0 0 0
0:00:00.00 174703 N 0 0 0
0:00:00.00 175002 N 0 0 0
0:00:00.00 175309 N 0 0 0
0:00:00.00 175632 N 0 0 0
0:00:00.00 175964 N 0 0 0
0:00:00.00 176307 N 0 0 0
0:00:00.00 176666 N 0 0 0
0:00:00.00 177027 N 0 0 0
0:00:00.00 177355 N 0 0 0
0:00:00.00 177658 N 0 0 0
0:00:00.00 177970 N 0 0 0
0:00:00.00 178295 N 0 0 0
0:00:00.00 178645 N 0 0 0
0:00:00.00 178987 N 0 0 0
0:00:00.00 179328 N 0 0 0
0:00:00.00 179641 N 0 0 0
0:00:00.00 179966 N 0 0 0
0:00:00.00 180276 N 0 0 0
0:00:00.00 180601 N 0 0 0
0:00:00.00 180922 N 0 0 0
0:00:00.00 181258 N 0 0 0
0:00:00.00 181605 N 0 0 0
0:00:00.00 181924 N 0 0 0
0:00:00.00 182243 N 0 0 0
0:00:00.00 182567 N 0 0 0
0:00:00.00 182898 N 0 0 0
0:00:00.00 183242 N 0 0 0
0:00:00.00 183581 N 0 0 0
0:00:00.00 183923 N 0 0 0
0:00:00.00 184251 N 0 0 0
0:00:00.00 184578 N 0 0 0
0:00:00.00 184909 N 0 0 0
0:00:00.00 185219 N 0 0 0
0:00:00.00 185519 N 0 0 0
0:00:00.00 185803 N 0 0 0
0:00:00.00 186079 N 0 0 0
0:00:00.00 186378 N 0 0 0
0:00:00.00 186693 N 0 0 0
0:00:00.00 187022 N 0 0 0
0:00:00.00 187353 N 0 0 0
0:00:00.00 187697 N 0 0 0
0:00:00.00 188010 N 0 0 0
0:00:00.00 188331 N 0 0 0
0:00:00.00 188661 N 0 0 0
0:00:00.00 188972 N 0 0 0
0:00:00.00 189283 N 0 0 0
0:00:00.00 189600 N 0 0 0
0:00:00.00 189929 N 0 0 0
0:00:00.00 190259 N 0 0 0
0:00:00.00 190591 N 0 0 0
0:00:00.00 190933 N 0 0 0
0:00:00.00 191250 N 0 0 0
0:00:00.00 191577 N 0 0 0
0:00:00.00 191915 N 0 0 0
0:00:00.00 192259 N 0 0 0
0:00:00.00 192606 N 0 0 0
0:00:00.00 192935 N 0 0 0
0:00:00.00 193264 N 0 0 0
0:00:00.00 193602 N 0 0 0
0:00:00.00 193932 N 0 0 0
0:00:00.00 194274 N 0 0 0
0:00:00.00 194606 N 0 0 0
0:00:00.00 194932 N 0 0 0
0:00:00.00 195267 N 0 0 0
0:00:00.00 195605 N 0 0 0
0:00:00.00 195955 N 0 0 0
0:00:00.00 196309 N 0 0 0
0:00:00.00 196635 N 0 0 0
0:00:00.00 196961 N 0 0 0
0:00:00.00 197295 N 0 0 0
0:00:00.00 197628 N 0 0 0
0:00:00.00 197950 N 0 0 0
0:00:00.00 198275 N 0 0 0
0:00:00.00 198602 N 0 0 0
0:00:00.00 198911 N 0 0 0
0:00:00.00 199217 N 0 0 0
0:00:00.00 199531 N 0 0 0
0:00:00.00 199832 N 0 0 0
0:00:00.00 200148 N 0 0 0
0:00:00.00 200470 N 0 0 0
0:00:00.00 200805 N 0 0 0
0:00:00.00 201115 N 0 0 0
0:00:00.00 201436 N 0 0 0
0:00:00.00 201758 N 0 0 0
0:00:00.00 202069 N 0 0 0
0:00:00.00 202381 N 0 0 0
0:00:00.00 202702 N 0 0 0
0:00:00.00 203032 N 0 0 0
0:00:00.00 203362 N 0 0 0
0:00:00.00 203675 N 0 0 0
0:00:00.00 203985 N 0 0 0
0:00:00.00 204289 N 0 0 0
0:00:00.00 204580 N 0 0 0
0:00:00.00 204860 N 0 0 0
0:00:00.00 205119 N 0 0 0
0:00:00.00 205370 N 0 0 0
0:00:00.00 205616 N 0 0 0
0:00:00.00 205868 N 0 0 0
0:00:00.00 206116 N 0 0 0
0:00:00.00 206357 N 0 0 0
0:00:00.00 206619 N 0 0 0
0:00:00.00 206946 N 0 0 0
0:00:00.00 207294 N 0 0 0
0:00:00.00 207633 N 0 0 0
0:00:00.00 207988 N 0 0 0
0:00:00.00 208338 N 0 0 0
0:00:00.00 208671 N 0 0 0
0:00:00.00 209002 N 0 0 0
0:00:00.00 209332 N 0 0 0
0:00:00.00 209645 N 0 0 0
0:00:00.00 209960 N 0 0 0
0:00:00.00 210281 N 0 0 0
0:00:00.00 210617 N 0 0 0
0:00:00.00 210954 N 0 0 0
0:00:00.00 211296 N 0 0 0
0:00:00.00 211624 N 0 0 0
0:00:00.00 211951 N 0 0 0
0:00:00.00 212279 N 0 0 0
0:00:00.00 212618 N 0 0 0
0:00:00.00 212941 N 0 0 0
0:00:00.00 213265 N 0 0 0
0:00:00.00 213574 N 0 0 0
0:00:00.00 213869 N 0 0 0
0:00:00.00 214149 N 0 0 0
0:00:00.00 214428 N 0 0 0
0:00:00.00 214729 N 0 0 0
0:00:00.00 215064 N 0 0 0
0:00:00.00 215405 N 0 0 0
0:00:00.00 215754 N 0 0 0
0:00:00.00 216079 N 0 0 0
0:00:00.00 216400 N 0 0 0
0:00:00.00 216718 N 0 0 0
0:00:00.00 217052 N 0 0 0
0:00:00.00 217394 N 0 0 0
0:00:00.00 217731 N 0 0 0
0:00:00.00 218064 N 0 0 0
0:00:00.00 218397 N 0 0 0
0:00:00.00 218725 N 0 0 0
0:00:00.00 219055 N 0 0 0
0:00:00.00 219385 N 0 0 0
0:00:00.00 219715 N 0 0 0
0:00:00.00 220044 N 0 0 0
0:00:00.00 220377 N 0 0 0
0:00:00.00 220694 N 0 0 0
0:00:00.00 221020 N 0 0 0
0:00:00.00 221348 N 0 0 0
0:00:00.00 221655 N 0 0 0
0:00:00.00 221955 N 0 0 0
0:00:00.00 222269 N 0 0 0
0:00:00.00 222593 N 0 0 0
0:00:00.00 222920 N 0 0 0
0:00:00.00 223231 N 0 0 0
0:00:00.00 223545 N 0 0 0
0:00:00.00 223857 N 0 0 0
0:00:00.00 224176 N 0 0 0
0:00:00.00 224491 N 0 0 0
0:00:00.00 224799 N 0 0 0
0:00:00.00 225113 N 0 0 0
0:00:00.00 225429 N 0 0 0
0:00:00.00 225745 N 0 0 0
0:00:00.00 226066 N 0 0 0
0:00:00.00 226392 N 0 0 0
0:00:00.00 226711 N 0 0 0
0:00:00.00 227043 N 0 0 0
0:00:00.00 227367 N 0 0 0
0:00:00.00 227702 N 0 0 0
0:00:00.00 228036 N 0 0 0
0:00:00.00 228365 N 0 0 0
0:00:00.00 228680 N 0 0 0
0:00:00.00 229011 N 0 0 0
0:00:00.00 229340 N 0 0 0
0:00:00.00 229660 N 0 0 0
0:00:00.00 229978 N 0 0 0
0:00:00.00 230303 N 0 0 0
0:00:00.00 230634 N 0 0 0
0:00:00.00 230958 N 0 0 0
0:00:00.00 231250 N 0 0 0
0:00:00.00 231540 N 0 0 0
0:00:00.00 231829 N 0 0 0
0:00:00.00 232150 N 0 0 0
0:00:00.00 232487 N 0 0 0
0:00:00.00 232808 N 0 0 0
0:00:00.00 233123 N 0 0 0
0:00:00.00 233442 N 0 0 0
0:00:00.00 233759 N 0 0 0
0:00:00.00 234070 N 0 0 0
0:00:00.00 234377 N 0 0 0
0:00:00.00 234689 N 0 0 0
0:00:00.00 235014 N 0 0 0
0:00:00.00 235353 N 0 0 0
0:00:00.00 235688 N 0 0 0
0:00:00.00 236024 N 0 0 0
0:00:00.00 236361 N 0 0 0
0:00:00.00 236694 N 0 0 0
0:00:00.00 237008 N 0 0 0
0:00:00.00 237325 N 0 0 0
0:00:00.00 237650 N 0 0 0
0:00:00.00 237969 N 0 0 0
0:00:00.00 238284 N 0 0 0
0:00:00.00 238626 N 0 0 0
0:00:00.00 238970 N 0 0 0
0:00:00.00 239293 N 0 0 0
0:00:00.00 239611 N 0 0 0
0:00:00.00 239943 N 0 0 0
0:00:00.00 240254 N 0 0 0
0:00:00.00 240556 N 0 0 0
0:00:00.00 240866 N 0 0 0
0:00:00.00 241181 N 0 0 0
0:00:00.00 241506 N 0 0 0
0:00:00.00 241829 N 0 0 0
0:00:00.00 242137 N 0 0 0
0:00:00.00 242445 N 0 0 0
0:00:00.00 242756 N 0 0 0
0:00:00.00 243074 N 0 0 0
0:00:00.00 243378 N 0 0 0
0:00:00.00 243676 N 0 0 0
0:00:00.00 243981 N 0 0 0
0:00:00.00 244281 N 0 0 0
0:00:00.00 244572 N 0 0 0
0:00:00.00 244866 N 0 0 0
0:00:00.00 245173 N 0 0 0
0:00:00.00 245483 N 0 0 0
0:00:00.00 245800 N 0 0 0
0:00:00.00 246115 N 0 0 0
0:00:00.00 246426 N 0 0 0
0:00:00.00 246718 N 0 0 0
0:00:00.00 247015 N 0 0 0
0:00:00.00 247312 N 0 0 0
0:00:00.00 247604 N 0 0 0
0:00:00.00 247902 N 0 0 0
0:00:00.00 248225 N 0 0 0
0:00:00.00 248569 N 0 0 0
0:00:00.00 248900 N 0 0 0
0:00:00.00 249220 N 0 0 0
0:00:00.00 249568 N 0 0 0
0:00:00.00 249907 N 0 0 0
0:00:00.00 250240 N 0 0 0
0:00:00.00 250572 N 0 0 0
0:00:00.00 250885 N 0 0 0
0:00:00.00 251194 N 0 0 0
0:00:00.00 251524 N 0 0 0
0:00:00.00 251869 N 0 0 0
0:00:00.00 252210 N 0 0 0
0:00:00.00 252559 N 0 0 0
0:00:00.00 252913 N 0 0 0
0:00:00.00 253241 N 0 0 0
0:00:00.00 253559 N 0 0 0
0:00:00.00 253876 N 0 0 0
0:00:00.00 254179 N 0 0 0
0:00:00.00 254483 N 0 0 0
0:00:00.00 254791 N 0 0 0
0:00:00.00 255105 N 0 0 0
0:00:00.00 255425 N 0 0 0
0:00:00.00 255747 N 0 0 0
0:00:00.00 256070 N 0 0 0
0:00:00.00 256379 N 0 0 0
0:00:00.00 256693 N 0 0 0
0:00:00.00 257013 N 0 0 0
0:00:00.00 257329 N 0 0 0
0:00:00.00 257627 N 0 0 0
0:00:00.00 257932 N 0 0 0
0:00:00.00 258249 N 0 0 0
0:00:00.00 258549 N 0 0 0
0:00:00.00 258855 N 0 0 0
0:00:00.00 259168 N 0 0 0
0:00:00.00 259491 N 0 0 0
0:00:00.00 259822 N 0 0 0
0:00:00.00 260133 N 0 0 0
0:00:00.00 260429 N 0 0 0
0:00:00.00 260719 N 0 0 0
0:00:00.00 261001 N 0 0 0
0:00:00.00 261311 N 0 0 0
0:00:00.00 261643 N 0 0 0
0:00:00.00 261962 N 0 0 0
0:00:00.00 262264 N 0 0 0
0:00:00.00 262577 N 0 0 0
0:00:00.00 262892 N 0 0 0
0:00:00.00 263206 N 0 0 0
0:00:00.00 263524 N 0 0 0
0:00:00.00 263834 N 0 0 0
0:00:00.00 264147 N 0 0 0
0:00:00.00 264443 N 0 0 0
0:00:00.00 264740 N 0 0 0
0:00:00.00 265043 N 0 0 0
0:00:00.00 265353 N 0 0 0
0:00:00.00 265663 N 0 0 0
0:00:00.00 265978 N 0 0 0
0:00:00.00 266261 N 0 0 0
0:00:00.00 266548 N 0 0 0
0:00:00.00 266840 N 0 0 0
0:00:00.00 267128 N 0 0 0
0:00:00.00 267413 N 0 0 0
0:00:00.00 267698 N 0 0 0
0:00:00.00 267986 N 0 0 0
0:00:00.00 268282 N 0 0 0
0:00:00.00 268589 N 0 0 0
0:00:00.00 268897 N 0 0 0
0:00:00.00 269212 N 0 0 0
0:00:00.00 269507 N 0 0 0
0:00:00.00 269810 N 0 0 0
0:00:00.00 270108 N 0 0 0
0:00:00.00 270400 N 0 0 0
0:00:00.00 270696 N 0 0 0
0:00:00.00 271003 N 0 0 0
0:00:00.00 271329 N 0 0 0
0:00:00.00 271663 N 0 0 0
0:00:00.00 272003 N 0 0 0
0:00:00.00 272344 N 0 0 0
0:00:00.00 272678 N 0 0 0
0:00:00.00 272985 N 0 0 0
0:00:00.00 273282 N 0 0 0
0:00:00.00 273584 N 0 0 0
0:00:00.00 273889 N 0 0 0
0:00:00.00 274216 N 0 0 0
0:00:00.00 274551 N 0 0 0
0:00:00.00 274884 N 0 0 0
0:00:00.00 275214 N 0 0 0
0:00:00.00 275532 N 0 0 0
0:00:00.00 275850 N 0 0 0
0:00:00.00 276161 N 0 0 0
0:00:00.00 276460 N 0 0 0
0:00:00.00 276761 N 0 0 0
0:00:00.00 277068 N 0 0 0
0:00:00.00 277386 N 0 0 0
0:00:00.00 277718 N 0 0 0
0:00:00.00 278043 N 0 0 0
0:00:00.00 278370 N 0 0 0
0:00:00.00 278690 N 0 0 0
0:00:00.00 279014 N 0 0 0
0:00:00.00 279315 N 0 0 0
0:00:00.00 279619 N 0 0 0
0:00:00.00 279935 N 0 0 0
0:00:00.00 280253 N 0 0 0
0:00:00.00 280570 N 0 0 0
0:00:00.00 280887 N 0 0 0
0:00:00.00 281210 N 0 0 0
0:00:00.00 281532 N 0 0 0
0:00:00.00 281850 N 0 0 0
0:00:00.00 282162 N 0 0 0
0:00:00.00 282480 N 0 0 0
0:00:00.00 282808 N 0 0 0
0:00:00.00 283139 N 0 0 0
0:00:00.00 283440 N 0 0 0
0:00:00.00 283744 N 0 0 0
0:00:00.00 284055 N 0 0 0
0:00:00.00 284388 N 0 0 0
0:00:00.00 284707 N 0 0 0
0:00:00.00 285016 N 0 0 0
0:00:00.00 285334 N 0 0 0
0:00:00.00 285653 N 0 0 0
0:00:00.00 285980 N 0 0 0
0:00:00.00 286307 N 0 0 0
0:00:00.00 286607 N 0 0 0
0:00:00.00 286900 N 0 0 0
0:00:00.00 287186 N 0 0 0
0:00:00.00 287496 N 0 0 0
0:00:00.00 287810 N 0 0 0
0:00:00.00 288136 N 0 0 0
0:00:00.00 288474 N 0 0 0
0:00:00.00 288789 N 0 0 0
0:00:00.00 289109 N 0 0 0
0:00:00.00 289442 N 0 0 0
0:00:00.00 289771 N 0 0 0
0:00:00.00 290085 N 0 0 0
0:00:00.00 290400 N 0 0 0
0:00:00.00 290725 N 0 0 0
0:00:00.00 291054 N 0 0 0
0:00:00.00 291376 N 0 0 0
0:00:00.00 291689 N 0 0 0
0:00:00.00 291979 N 0 0 0
0:00:00.00 292259 N 0 0 0
0:00:00.00 292547 N 0 0 0
0:00:00.00 292852 N 0 0 0
0:00:00.00 293171 N 0 0 0
0:00:00.00 293501 N 0 0 0
0:00:00.00 293820 N 0 0 0
0:00:00.00 294140 N 0 0 0
0:00:00.00 294456 N 0 0 0
0:00:00.00 294775 N 0 0 0
0:00:00.00 295101 N 0 0 0
0:00:00.00 295437 N 0 0 0
0:00:00.00 295773 N 0 0 0
0:00:00.00 296090 N 0 0 0
0:00:00.00 296390 N 0 0 0
0:00:00.00 296680 N 0 0 0
0:00:00.00 296988 N 0 0 0
0:00:00.00 297312 N 0 0 0
0:00:00.00 297633 N 0 0 0
0:00:00.00 297931 N 0 0 0
0:00:00.00 298215 N 0 0 0
0:00:00.00 298494 N 0 0 0
0:00:00.00 298779 N 0 0 0
0:00:00.00 299075 N 0 0 0
0:00:00.00 299364 N 0 0 0
0:00:00.00 299653 N 0 0 0
0:00:00.00 299959 N 0 0 0
0:00:00.00 300267 N 0 0 0
0:00:00.00 300585 N 0 0 0
0:00:00.00 300890 N 0 0 0
0:00:00.00 301201 N 0 0 0
0:00:00.00 301514 N 0 0 0
0:00:00.00 301803 N 0 0 0
0:00:00.00 302090 N 0 0 0
0:00:00.00 302385 N 0 0 0
0:00:00.00 302692 N 0 0 0
0:00:00.00 303004 N 0 0 0
0:00:00.00 303318 N 0 0 0
0:00:00.00 303621 N 0 0 0
0:00:00.00 303930 N 0 0 0
0:00:00.00 304228 N 0 0 0
0:00:00.00 304530 N 0 0 0
0:00:00.00 304840 N 0 0 0
0:00:00.00 305140 N 0 0 0
0:00:00.00 305424 N 0 0 0
0:00:00.00 305706 N 0 0 0
0:00:00.00 305995 N 0 0 0
0:00:00.00 306295 N 0 0 0
0:00:00.00 306589 N 0 0 0
0:00:00.00 306899 N 0 0 0
0:00:00.00 307233 N 0 0 0
0:00:00.00 307539 N 0 0 0
0:00:00.00 307843 N 0 0 0
0:00:00.00 308154 N 0 0 0
0:00:00.00 308468 N 0 0 0
0:00:00.00 308773 N 0 0 0
0:00:00.00 309058 N 0 0 0
0:00:00.00 309332 N 0 0 0
0:00:00.00 309605 N 0 0 0
0:00:00.00 309877 N 0 0 0
0:00:00.00 310169 N 0 0 0
0:00:00.00 310481 N 0 0 0
0:00:00.00 310807 N 0 0 0
0:00:00.00 311133 N 0 0 0
0:00:00.00 311472 N 0 0 0
0:00:00.00 311812 N 0 0 0
0:00:00.00 312150 N 0 0 0
0:00:00.00 312478 N 0 0 0
0:00:00.00 312779 N 0 0 0
0:00:00.00 313083 N 0 0 0
0:00:00.00 313387 N 0 0 0
0:00:00.00 313689 N 0 0 0
0:00:00.00 314001 N 0 0 0
0:00:00.00 314328 N 0 0 0
0:00:00.00 314662 N 0 0 0
0:00:00.00 314997 N 0 0 0
0:00:00.00 315316 N 0 0 0
0:00:00.00 315640 N 0 0 0
0:00:00.00 315967 N 0 0 0
0:00:00.00 316256 N 0 0 0
0:00:00.00 316537 N 0 0 0
0:00:00.00 316831 N 0 0 0
0:00:00.00 317127 N 0 0 0
0:00:00.00 317431 N 0 0 0
0:00:00.00 317748 N 0 0 0
0:00:00.00 318070 N 0 0 0
0:00:00.00 318379 N 0 0 0
0:00:00.00 318700 N 0 0 0
0:00:00.00 319023 N 0 0 0
0:00:00.00 319336 N 0 0 0
0:00:00.00 319629 N 0 0 0
0:00:00.00 319928 N 0 0 0
0:00:00.00 320245 N 0 0 0
0:00:00.00 320556 N 0 0 0
0:00:00.00 320871 N 0 0 0
0:00:00.00 321174 N 0 0 0
0:00:00.00 321464 N 0 0 0
0:00:00.00 321745 N 0 0 0
0:00:00.00 322032 N 0 0 0
0:00:00.00 322326 N 0 0 0
0:00:00.00 322612 N 0 0 0
0:00:00.00 322902 N 0 0 0
0:00:00.00 323203 N 0 0 0
0:00:00.00 323522 N 0 0 0
0:00:00.00 323857 N 0 0 0
0:00:00.00 324186 N 0 0 0
0:00:00.00 324525 N 0 0 0
0:00:00.00 324857 N 0 0 0
0:00:00.00 325194 N 0 0 0
0:00:00.00 325525 N 0 0 0
0:00:00.00 325840 N 0 0 0
0:00:00.00 326142 N 0 0 0
0:00:00.00 326445 N 0 0 0
0:00:00.00 326751 N 0 0 0
0:00:00.00 327058 N 0 0 0
0:00:00.00 327375 N 0 0 0
0:00:00.00 327678 N 0 0 0
0:00:00.00 327990 N 0 0 0
0:00:00.00 328302 N 0 0 0
0:00:00.00 328616 N 0 0 0
0:00:00.00 328932 N 0 0 0
0:00:00.00 329226 N 0 0 0
0:00:00.00 329511 N 0 0 0
0:00:00.00 329806 N 0 0 0
0:00:00.00 330107 N 0 0 0
0:00:00.00 330419 N 0 0 0
0:00:00.00 330741 N 0 0 0
0:00:00.00 331052 N 0 0 0
0:00:00.00 331365 N 0 0 0
0:00:00.00 331689 N 0 0 0
0:00:00.00 332008 N 0 0 0
0:00:00.00 332336 N 0 0 0
0:00:00.00 332669 N 0 0 0
0:00:00.00 333004 N 0 0 0
0:00:00.00 333347 N 0 0 0
0:00:00.00 333686 N 0 0 0
0:00:00.00 334021 N 0 0 0
0:00:00.00 334346 N 0 0 0
0:00:00.00 334657 N 0 0 0
0:00:00.00 334971 N 0 0 0
0:00:00.00 335296 N 0 0 0
0:00:00.00 335628 N 0 0 0
0:00:00.00 335962 N 0 0 0
0:00:00.00 336308 N 0 0 0
0:00:00.00 336643 N 0 0 0
0:00:00.00 336962 N 0 0 0
0:00:00.00 337263 N 0 0 0
0:00:00.00 337562 N 0 0 0
0:00:00.00 337850 N 0 0 0
0:00:00.00 338150 N 0 0 0
0:00:00.00 338474 N 0 0 0
0:00:00.00 338804 N 0 0 0
0:00:00.00 339128 N 0 0 0
0:00:00.00 339460 N 0 0 0
0:00:00.00 339800 N 0 0 0
0:00:00.00 340137 N 0 0 0
0:00:00.00 340464 N 0 0 0
0:00:00.00 340792 N 0 0 0
0:00:00.00 341109 N 0 0 0
0:00:00.00 341428 N 0 0 0
0:00:00.00 341743 N 0 0 0
0:00:00.00 342038 N 0 0 0
0:00:00.00 342316 N 0 0 0
0:00:00.00 342594 N 0 0 0
0:00:00.00 342884 N 0 0 0
0:00:00.00 343185 N 0 0 0
0:00:00.00 343512 N 0 0 0
0:00:00.00 343842 N 0 0 0
0:00:00.00 344161 N 0 0 0
0:00:00.00 344480 N 0 0 0
0:00:00.00 344816 N 0 0 0
0:00:00.00 345150 N 0 0 0
0:00:00.00 345474 N 0 0 0
0:00:00.00 345788 N 0 0 0
0:00:00.00 346089 N 0 0 0
0:00:00.00 346383 N 0 0 0
0:00:00.00 346667 N 0 0 0
0:00:00.00 346941 N 0 0 0
0:00:00.00 347228 N 0 0 0
0:00:00.00 347539 N 0 0 0
0:00:00.00 347867 N 0 0 0
0:00:00.00 348189 N 0 0 0
0:00:00.00 348513 N 0 0 0
0:00:00.00 348825 N 0 0 0
0:00:00.00 349131 N 0 0 0
0:00:00.00 349449 N 0 0 0
0:00:00.00 349754 N 0 0 0
0:00:00.00 350062 N 0 0 0
0:00:00.00 350365 N 0 0 0
0:00:00.00 350660 N 0 0 0
0:00:00.00 350946 N 0 0 0
0:00:00.00 351227 N 0 0 0
0:00:00.00 351504 N 0 0 0
0:00:00.00 351766 N 0 0 0
0:00:00.00 352025 N 0 0 0
0:00:00.00 352281 N 0 0 0
0:00:00.00 352544 N 0 0 0
0:00:00.00 352835 N 0 0 0
0:00:00.00 353148 N 0 0 0
0:00:00.00 353441 N 0 0 0
0:00:00.00 353745 N 0 0 0
0:00:00.00 354051 N 0 0 0
0:00:00.00 354351 N 0 0 0
0:00:00.00 354636 N 0 0 0
0:00:00.00 354914 N 0 0 0
0:00:00.00 355197 N 0 0 0
0:00:00.00 355473 N 0 0 0
0:00:00.00 355760 N 0 0 0
0:00:00.00 356059 N 0 0 0
0:00:00.00 356363 N 0 0 0
0:00:00.00 356676 N 0 0 0
0:00:00.00 356988 N 0 0 0
0:00:00.00 357299 N 0 0 0
0:00:00.00 357607 N 0 0 0
0:00:00.00 357919 N 0 0 0
0:00:00.00 358241 N 0 0 0
0:00:00.00 358565 N 0 0 0
0:00:00.00 358868 N 0 0 0
0:00:00.00 359165 N 0 0 0
0:00:00.00 359450 N 0 0 0
0:00:00.00 359728 N 0 0 0
0:00:00.00 359993 N 0 0 0
0:00:00.00 360265 N 0 0 0
0:00:00.00 360566 N 0 0 0
0:00:00.00 360888 N 0 0 0
0:00:00.00 361197 N 0 0 0
0:00:00.00 361503 N 0 0 0
0:00:00.00 361812 N 0 0 0
0:00:00.00 362111 N 0 0 0
0:00:00.00 362421 N 0 0 0
0:00:00.00 362709 N 0 0 0
0:00:00.00 362996 N 0 0 0
0:00:00.00 363277 N 0 0 0
0:00:00.00 363561 N 0 0 0
0:00:00.00 363850 N 0 0 0
0:00:00.00 364140 N 0 0 0
0:00:00.00 364424 N 0 0 0
0:00:00.00 364690 N 0 0 0
0:00:00.00 364953 N 0 0 0
0:00:00.00 365209 N 0 0 0
0:00:00.00 365476 N 0 0 0
0:00:00.00 365758 N 0 0 0
0:00:00.00 366044 N 0 0 0
0:00:00.00 366332 N 0 0 0
0:00:00.00 366625 N 0 0 0
0:00:00.00 366925 N 0 0 0
0:00:00.00 367208 N 0 0 0
0:00:00.00 367491 N 0 0 0
0:00:00.00 367768 N 0 0 0
0:00:00.00 368041 N 0 0 0
0:00:00.00 368323 N 0 0 0
0:00:00.00 368612 N 0 0 0
0:00:00.00 368908 N 0 0 0
0:00:00.00 369195 N 0 0 0
0:00:00.00 369472 N 0 0 0
0:00:00.00 369746 N 0 0 0
0:00:00.00 370025 N 0 0 0
0:00:00.00 370306 N 0 0 0
0:00:00.00 370592 N 0 0 0
0:00:00.00 370875 N 0 0 0
0:00:00.00 371154 N 0 0 0
0:00:00.00 371433 N 0 0 0
0:00:00.00 371708 N 0 0 0
0:00:00.00 371999 N 0 0 0
0:00:00.00 372305 N 0 0 0
0:00:00.00 372623 N 0 0 0
0:00:00.00 372947 N 0 0 0
0:00:00.00 373278 N 0 0 0
0:00:00.00 373582 N 0 0 0
0:00:00.00 373878 N 0 0 0
0:00:00.00 374173 N 0 0 0
0:00:00.00 374469 N 0 0 0
0:00:00.00 374764 N 0 0 0
0:00:00.00 375048 N 0 0 0
0:00:00.00 375339 N 0 0 0
0:00:00.00 375631 N 0 0 0
0:00:00.00 375930 N 0 0 0
0:00:00.00 376234 N 0 0 0
0:00:00.00 376542 N 0 0 0
0:00:00.00 376857 N 0 0 0
0:00:00.00 377167 N 0 0 0
0:00:00.00 377484 N 0 0 0
0:00:00.00 377800 N 0 0 0
0:00:00.00 378101 N 0 0 0
0:00:00.00 378387 N 0 0 0
0:00:00.00 378665 N 0 0 0
0:00:00.00 378942 N 0 0 0
0:00:00.00 379233 N 0 0 0
0:00:00.00 379532 N 0 0 0
0:00:00.00 379844 N 0 0 0
0:00:00.00 380161 N 0 0 0
0:00:00.00 380491 N 0 0 0
0:00:00.00 380823 N 0 0 0
0:00:00.00 381128 N 0 0 0
0:00:00.00 381428 N 0 0 0
0:00:00.00 381731 N 0 0 0
0:00:00.00 382048 N 0 0 0
0:00:00.00 382360 N 0 0 0
0:00:00.00 382671 N 0 0 0
0:00:00.00 382997 N 0 0 0
0:00:00.00 383330 N 0 0 0
0:00:00.00 383666 N 0 0 0
0:00:00.00 383985 N 0 0 0
0:00:00.00 384282 N 0 0 0
0:00:00.00 384575 N 0 0 0
0:00:00.00 384864 N 0 0 0
0:00:00.00 385169 N 0 0 0
0:00:00.00 385475 N 0 0 0
0:00:00.00 385795 N 0 0 0
0:00:00.00 386107 N 0 0 0
0:00:00.00 386414 N 0 0 0
0:00:00.00 386717 N 0 0 0
0:00:00.00 387029 N 0 0 0
0:00:00.00 387352 N 0 0 0
0:00:00.00 387680 N 0 0 0
0:00:00.00 388007 N 0 0 0
0:00:00.00 388342 N 0 0 0
0:00:00.00 388664 N 0 0 0
0:00:00.00 388987 N 0 0 0
0:00:00.00 389306 N 0 0 0
0:00:00.00 389634 N 0 0 0
0:00:00.00 389959 N 0 0 0
0:00:00.00 390285 N 0 0 0
0:00:00.00 390607 N 0 0 0
0:00:00.00 390925 N 0 0 0
0:00:00.00 391209 N 0 0 0
0:00:00.00 391489 N 0 0 0
0:00:00.00 391768 N 0 0 0
0:00:00.00 392025 N 0 0 0
0:00:00.00 392291 N 0 0 0
0:00:00.00 392566 N 0 0 0
0:00:00.00 392863 N 0 0 0
0:00:00.00 393175 N 0 0 0
0:00:00.00 393480 N 0 0 0
0:00:00.00 393773 N 0 0 0
0:00:00.00 394056 N 0 0 0
0:00:00.00 394335 N 0 0 0
0:00:00.00 394605 N 0 0 0
0:00:00.00 394874 N 0 0 0
0:00:00.00 395141 N 0 0 0
0:00:00.00 395395 N 0 0 0
0:00:00.00 395640 N 0 0 0
0:00:00.00 395885 N 0 0 0
0:00:00.00 396127 N 0 0 0
0:00:00.00 396366 N 0 0 0
0:00:00.00 396606 N 0 0 0
0:00:00.00 396847 N 0 0 0
0:00:00.00 397089 N 0 0 0
0:00:00.00 397323 N 0 0 0
0:00:00.00 397555 N 0 0 0
0:00:00.00 397782 N 0 0 0
0:00:00.00 398012 N 0 0 0
0:00:00.00 398239 N 0 0 0
0:00:00.00 398461 N 0 0 0
0:00:00.00 398682 N 0 0 0
0:00:00.00 398896 N 0 0 0
0:00:00.00 399115 N 0 0 0
0:00:00.00 399339 N 0 0 0
0:00:00.00 399573 N 0 0 0
0:00:00.00 399811 N 0 0 0
0:00:00.00 400054 N 0 0 0
0:00:00.00 400310 N 0 0 0
0:00:00.00 400555 N 0 0 0
0:00:00.00 400810 N 0 0 0
0:00:00.00 401062 N 0 0 0
0:00:00.00 401327 N 0 0 0
0:00:00.00 401602 N 0 0 0
0:00:00.00 401875 N 0 0 0
0:00:00.00 402141 N 0 0 0
0:00:00.00 402399 N 0 0 0
0:00:00.00 402652 N 0 0 0
0:00:00.00 402912 N 0 0 0
0:00:00.00 403179 N 0 0 0
0:00:00.00 403436 N 0 0 0
0:00:00.00 403686 N 0 0 0
0:00:00.00 403931 N 0 0 0
0:00:00.00 404164 N 0 0 0
0:00:00.00 404401 N 0 0 0
0:00:00.00 404647 N 0 0 0
0:00:00.00 404903 N 0 0 0
0:00:00.00 405165 N 0 0 0
0:00:00.00 405428 N 0 0 0
0:00:00.00 405699 N 0 0 0
0:00:00.00 405977 N 0 0 0
0:00:00.00 406248 N 0 0 0
0:00:00.00 406518 N 0 0 0
0:00:00.00 406785 N 0 0 0
0:00:00.00 407031 N 0 0 0
0:00:00.00 407274 N 0 0 0
0:00:00.00 407499 N 0 0 0
0:00:00.00 407729 N 0 0 0
0:00:00.00 407954 N 0 0 0
0:00:00.00 408180 N 0 0 0
0:00:00.00 408408 N 0 0 0
0:00:00.00 408648 N 0 0 0
0:00:00.00 408897 N 0 0 0
0:00:00.00 409156 N 0 0 0
0:00:00.00 409414 N 0 0 0
0:00:00.00 409700 N 0 0 0
0:00:00.00 409981 N 0 0 0
0:00:00.00 410249 N 0 0 0
0:00:00.00 410519 N 0 0 0
0:00:00.00 410777 N 0 0 0
0:00:00.00 411037 N 0 0 0
0:00:00.00 411299 N 0 0 0
0:00:00.00 411552 N 0 0 0
0:00:00.00 411806 N 0 0 0
0:00:00.00 412057 N 0 0 0
0:00:00.00 412311 N 0 0 0
0:00:00.00 412572 N 0 0 0
0:00:00.00 412838 N 0 0 0
0:00:00.00 413102 N 0 0 0
0:00:00.00 413372 N 0 0 0
0:00:00.00 413641 N 0 0 0
0:00:00.00 413905 N 0 0 0
0:00:00.00 414169 N 0 0 0
0:00:00.00 414433 N 0 0 0
0:00:00.00 414688 N 0 0 0
0:00:00.00 414938 N 0 0 0
0:00:00.00 415175 N 0 0 0
0:00:00.00 415423 N 0 0 0
0:00:00.00 415669 N 0 0 0
0:00:00.00 415915 N 0 0 0
0:00:00.00 416164 N 0 0 0
0:00:00.00 416411 N 0 0 0
0:00:00.00 416655 N 0 0 0
0:00:00.00 416901 N 0 0 0
0:00:00.00 417147 N 0 0 0
0:00:00.00 417396 N 0 0 0
0:00:00.00 417660 N 0 0 0
0:00:00.00 417922 N 0 0 0
0:00:00.00 418181 N 0 0 0
0:00:00.00 418434 N 0 0 0
0:00:00.00 418680 N 0 0 0
0:00:00.00 418923 N 0 0 0
0:00:00.00 419166 N 0 0 0
0:00:00.00 419415 N 0 0 0
0:00:00.00 419659 N 0 0 0
0:00:00.00 419904 N 0 0 0
0:00:00.00 420154 N 0 0 0
0:00:00.00 420407 N 0 0 0
0:00:00.00 420663 N 0 0 0
0:00:00.00 420923 N 0 0 0
0:00:00.00 421182 N 0 0 0
0:00:00.00 421443 N 0 0 0
0:00:00.00 421690 N 0 0 0
0:00:00.00 421950 N 0 0 0
0:00:00.00 422200 N 0 0 0
0:00:00.00 422444 N 0 0 0
0:00:00.00 422694 N 0 0 0
0:00:00.00 422936 N 0 0 0
0:00:00.00 423173 N 0 0 0
0:00:00.00 423408 N 0 0 0
0:00:00.00 423641 N 0 0 0
0:00:00.00 423876 N 0 0 0
0:00:00.00 424116 N 0 0 0
0:00:00.00 424365 N 0 0 0
0:00:00.00 424614 N 0 0 0
0:00:00.00 424858 N 0 0 0
0:00:00.00 425104 N 0 0 0
0:00:00.00 425357 N 0 0 0
0:00:00.00 425611 N 0 0 0
0:00:00.00 425872 N 0 0 0
0:00:00.00 426150 N 0 0 0
0:00:00.00 426427 N 0 0 0
0:00:00.00 426705 N 0 0 0
0:00:00.00 426978 N 0 0 0
0:00:00.00 427250 N 0 0 0
0:00:00.00 427531 N 0 0 0
0:00:00.00 427800 N 0 0 0
0:00:00.00 428073 N 0 0 0
0:00:00.00 428356 N 0 0 0
0:00:00.00 428630 N 0 0 0
0:00:00.00 428901 N 0 0 0
0:00:00.00 429183 N 0 0 0
0:00:00.00 429456 N 0 0 0
0:00:00.00 429727 N 0 0 0
0:00:00.00 430000 N 0 0 0
0:00:00.00 430259 N 0 0 0
0:00:00.00 430534 N 0 0 0
0:00:00.00 430811 N 0 0 0
0:00:00.00 431084 N 0 0 0
0:00:00.00 431361 N 0 0 0
0:00:00.00 431625 N 0 0 0
0:00:00.00 431891 N 0 0 0
0:00:00.00 432163 N 0 0 0
0:00:00.00 432434 N 0 0 0
0:00:00.00 432716 N 0 0 0
0:00:00.00 432999 N 0 0 0
0:00:00.00 433281 N 0 0 0
0:00:00.00 433566 N 0 0 0
0:00:00.00 433864 N 0 0 0
0:00:00.00 434144 N 0 0 0
0:00:00.00 434424 N 0 0 0
0:00:00.00 434713 N 0 0 0
0:00:00.00 435014 N 0 0 0
0:00:00.00 435319 N 0 0 0
0:00:00.00 435633 N 0 0 0
0:00:00.00 435938 N 0 0 0
0:00:00.00 436232 N 0 0 0
0:00:00.00 436530 N 0 0 0
0:00:00.00 436812 N 0 0 0
0:00:00.00 437098 N 0 0 0
0:00:00.00 437389 N 0 0 0
0:00:00.00 437686 N 0 0 0
0:00:00.00 437983 N 0 0 0
0:00:00.00 438284 N 0 0 0
0:00:00.00 438595 N 0 0 0
0:00:00.00 438909 N 0 0 0
0:00:00.00 439211 N 0 0 0
0:00:00.00 439514 N 0 0 0
0:00:00.00 439821 N 0 0 0
0:00:00.00 440116 N 0 0 0
0:00:00.00 440415 N 0 0 0
0:00:00.00 440719 N 0 0 0
0:00:00.00 441022 N 0 0 0
0:00:00.00 441315 N 0 0 0
0:00:00.00 441610 N 0 0 0
0:00:00.00 441908 N 0 0 0
0:00:00.00 442201 N 0 0 0
0:00:00.00 442483 N 0 0 0
0:00:00.00 442761 N 0 0 0
0:00:00.00 443029 N 0 0 0
0:00:00.00 443301 N 0 0 0
0:00:00.00 443578 N 0 0 0
0:00:00.00 443863 N 0 0 0
0:00:00.00 444145 N 0 0 0
0:00:00.00 444433 N 0 0 0
0:00:00.00 444730 N 0 0 0
0:00:00.00 445031 N 0 0 0
0:00:00.00 445336 N 0 0 0
0:00:00.00 445631 N 0 0 0
0:00:00.00 445930 N 0 0 0
0:00:00.00 446213 N 0 0 0
0:00:00.00 446491 N 0 0 0
0:00:00.00 446768 N 0 0 0
0:00:00.00 447048 N 0 0 0
0:00:00.00 447330 N 0 0 0
0:00:00.00 447621 N 0 0 0
0:00:00.00 447919 N 0 0 0
0:00:00.00 448225 N 0 0 0
0:00:00.00 448531 N 0 0 0
0:00:00.00 448833 N 0 0 0
0:00:00.00 449134 N 0 0 0
0:00:00.00 449422 N 0 0 0
0:00:00.00 449708 N 0 0 0
0:00:00.00 449999 N 0 0 0
0:00:00.00 450303 N 0 0 0
0:00:00.00 450596 N 0 0 0
0:00:00.00 450893 N 0 0 0
0:00:00.00 451199 N 0 0 0
0:00:00.00 451515 N 0 0 0
0:00:00.00 451830 N 0 0 0
0:00:00.00 452152 N 0 0 0
0:00:00.00 452477 N 0 0 0
0:00:00.00 452791 N 0 0 0
0:00:00.00 453093 N 0 0 0
0:00:00.00 453406 N 0 0 0
0:00:00.00 453714 N 0 0 0
0:00:00.00 454003 N 0 0 0
0:00:00.00 454289 N 0 0 0
0:00:00.00 454587 N 0 0 0
0:00:00.00 454862 N 0 0 0
0:00:00.00 455139 N 0 0 0
0:00:00.00 455419 N 0 0 0
0:00:00.00 455692 N 0 0 0
0:00:00.00 455945 N 0 0 0
0:00:00.00 456190 N 0 0 0
0:00:00.00 456440 N 0 0 0
0:00:00.00 456702 N 0 0 0
0:00:00.00 456978 N 0 0 0
0:00:00.00 457265 N 0 0 0
0:00:00.00 457550 N 0 0 0
0:00:00.00 457839 N 0 0 0
0:00:00.00 458134 N 0 0 0
0:00:00.00 458426 N 0 0 0
0:00:00.00 458701 N 0 0 0
0:00:00.00 458962 N 0 0 0
0:00:00.00 459224 N 0 0 0
0:00:00.00 459487 N 0 0 0
0:00:00.00 459755 N 0 0 0
0:00:00.00 460028 N 0 0 0
0:00:00.00 460288 N 0 0 0
0:00:00.00 460563 N 0 0 0
0:00:00.00 460829 N 0 0 0
0:00:00.00 461104 N 0 0 0
0:00:00.00 461393 N 0 0 0
0:00:00.00 461686 N 0 0 0
0:00:00.00 461982 N 0 0 0
0:00:00.00 462269 N 0 0 0
0:00:00.00 462548 N 0 0 0
0:00:00.00 462829 N 0 0 0
0:00:00.00 463122 N 0 0 0
0:00:00.00 463414 N 0 0 0
0:00:00.00 463702 N 0 0 0
0:00:00.00 463993 N 0 0 0
0:00:00.00 464295 N 0 0 0
0:00:00.00 464579 N 0 0 0
0:00:00.00 464865 N 0 0 0
0:00:00.00 465145 N 0 0 0
0:00:00.00 465412 N 0 0 0
0:00:00.00 465673 N 0 0 0
0:00:00.00 465931 N 0 0 0
0:00:00.00 466208 N 0 0 0
0:00:00.00 466498 N 0 0 0
0:00:00.00 466784 N 0 0 0
0:00:00.00 467083 N 0 0 0
0:00:00.00 467392 N 0 0 0
0:00:00.00 467689 N 0 0 0
0:00:00.00 467981 N 0 0 0
0:00:00.00 468275 N 0 0 0
0:00:00.00 468553 N 0 0 0
0:00:00.00 468824 N 0 0 0
0:00:00.00 469092 N 0 0 0
0:00:00.00 469353 N 0 0 0
0:00:00.00 469625 N 0 0 0
0:00:00.00 469906 N 0 0 0
0:00:00.00 470191 N 0 0 0
0:00:00.00 470462 N 0 0 0
0:00:00.00 470746 N 0 0 0
0:00:00.00 471034 N 0 0 0
0:00:00.00 471314 N 0 0 0
0:00:00.00 471605 N 0 0 0
0:00:00.00 471899 N 0 0 0
0:00:00.00 472196 N 0 0 0
0:00:00.00 472482 N 0 0 0
0:00:00.00 472773 N 0 0 0
0:00:00.00 473066 N 0 0 0
0:00:00.00 473354 N 0 0 0
0:00:00.00 473634 N 0 0 0
0:00:00.00 473918 N 0 0 0
0:00:00.00 474204 N 0 0 0
0:00:00.00 474478 N 0 0 0
0:00:00.00 474746 N 0 0 0
0:00:00.00 475011 N 0 0 0
0:00:00.00 475265 N 0 0 0
0:00:00.00 475532 N 0 0 0
0:00:00.00 475801 N 0 0 0
0:00:00.00 476084 N 0 0 0
0:00:00.00 476379 N 0 0 0
0:00:00.00 476674 N 0 0 0
0:00:00.00 476962 N 0 0 0
0:00:00.00 477242 N 0 0 0
0:00:00.00 477531 N 0 0 0
0:00:00.00 477811 N 0 0 0
0:00:00.00 478090 N 0 0 0
0:00:00.00 478374 N 0 0 0
0:00:00.00 478652 N 0 0 0
0:00:00.00 478931 N 0 0 0
0:00:00.00 479211 N 0 0 0
0:00:00.00 479491 N 0 0 0
0:00:00.00 479769 N 0 0 0
0:00:00.00 480046 N 0 0 0
0:00:00.00 480326 N 0 0 0
0:00:00.00 480613 N 0 0 0
0:00:00.00 480902 N 0 0 0
0:00:00.00 481192 N 0 0 0
0:00:00.00 481480 N 0 0 0
0:00:00.00 481765 N 0 0 0
0:00:00.00 482042 N 0 0 0
0:00:00.00 482310 N 0 0 0
0:00:00.00 482581 N 0 0 0
0:00:00.00 482855 N 0 0 0
0:00:00.00 483119 N 0 0 0
0:00:00.00 483381 N 0 0 0
0:00:00.00 483659 N 0 0 0
0:00:00.00 483952 N 0 0 0
0:00:00.00 484245 N 0 0 0
0:00:00.00 484546 N 0 0 0
0:00:00.00 484850 N 0 0 0
0:00:00.00 485145 N 0 0 0
0:00:00.00 485440 N 0 0 0
0:00:00.00 485718 N 0 0 0
0:00:00.00 485993 N 0 0 0
0:00:00.00 486255 N 0 0 0
0:00:00.00 486521 N 0 0 0
0:00:00.00 486790 N 0 0 0
0:00:00.00 487053 N 0 0 0
0:00:00.00 487321 N 0 0 0
0:00:00.00 487585 N 0 0 0
0:00:00.00 487859 N 0 0 0
0:00:00.00 488146 N 0 0 0
0:00:00.00 488432 N 0 0 0
0:00:00.00 488720 N 0 0 0
0:00:00.00 489012 N 0 0 0
0:00:00.00 489304 N 0 0 0
0:00:00.00 489586 N 0 0 0
0:00:00.00 489866 N 0 0 0
0:00:00.00 490130 N 0 0 0
0:00:00.00 490398 N 0 0 0
0:00:00.00 490668 N 0 0 0
0:00:00.00 490949 N 0 0 0
0:00:00.00 491229 N 0 0 0
0:00:00.00 491507 N 0 0 0
0:00:00.00 491797 N 0 0 0
0:00:00.00 492081 N 0 0 0
0:00:00.00 492368 N 0 0 0
0:00:00.00 492658 N 0 0 0
0:00:00.00 492940 N 0 0 0
0:00:00.00 493219 N 0 0 0
0:00:00.00 493497 N 0 0 0
0:00:00.00 493765 N 0 0 0
0:00:00.00 494035 N 0 0 0
0:00:00.00 494318 N 0 0 0
0:00:00.00 494616 N 0 0 0
0:00:00.00 494895 N 0 0 0
0:00:00.00 495179 N 0 0 0
0:00:00.00 495458 N 0 0 0
0:00:00.00 495747 N 0 0 0
0:00:00.00 496042 N 0 0 0
0:00:00.00 496349 N 0 0 0
0:00:00.00 496642 N 0 0 0
0:00:00.00 496938 N 0 0 0
0:00:00.00 497218 N 0 0 0
0:00:00.00 497499 N 0 0 0
0:00:00.00 497774 N 0 0 0
0:00:00.00 498038 N 0 0 0
0:00:00.00 498311 N 0 0 0
0:00:00.00 498589 N 0 0 0
0:00:00.00 498875 N 0 0 0
0:00:00.00 499171 N 0 0 0
0:00:00.00 499468 N 0 0 0
0:00:00.00 499753 N 0 0 0
0:00:00.00 500053 N 0 0 0
0:00:00.00 500355 N 0 0 0
0:00:00.00 500654 N 0 0 0
0:00:00.00 500948 N 0 0 0
0:00:00.00 501237 N 0 0 0
0:00:00.00 501514 N 0 0 0
0:00:00.00 501788 N 0 0 0
0:00:00.00 502063 N 0 0 0
0:00:00.00 502338 N 0 0 0
0:00:00.00 502596 N 0 0 0
0:00:00.00 502856 N 0 0 0
0:00:00.00 503109 N 0 0 0
0:00:00.00 503362 N 0 0 0
0:00:00.00 503622 N 0 0 0
0:00:00.00 503892 N 0 0 0
0:00:00.00 504168 N 0 0 0
0:00:00.00 504442 N 0 0 0
0:00:00.00 504706 N 0 0 0
0:00:00.00 504966 N 0 0 0
0:00:00.00 505236 N 0 0 0
0:00:00.00 505496 N 0 0 0
0:00:00.00 505753 N 0 0 0
0:00:00.00 506013 N 0 0 0
0:00:00.00 506266 N 0 0 0
0:00:00.00 506515 N 0 0 0
0:00:00.00 506771 N 0 0 0
0:00:00.00 507029 N 0 0 0
0:00:00.00 507284 N 0 0 0
0:00:00.00 507537 N 0 0 0
0:00:00.00 507790 N 0 0 0
0:00:00.00 508040 N 0 0 0
0:00:00.00 508286 N 0 0 0
0:00:00.00 508528 N 0 0 0
0:00:00.00 508767 N 0 0 0
0:00:00.00 509003 N 0 0 0
0:00:00.00 509237 N 0 0 0
0:00:00.00 509473 N 0 0 0
0:00:00.00 509715 N 0 0 0
0:00:00.00 509964 N 0 0 0
0:00:00.00 510215 N 0 0 0
0:00:00.00 510475 N 0 0 0
0:00:00.00 510732 N 0 0 0
0:00:00.00 510978 N 0 0 0
0:00:00.00 511224 N 0 0 0
0:00:00.00 511472 N 0 0 0
0:00:00.00 511718 N 0 0 0
0:00:00.00 511970 N 0 0 0
0:00:00.00 512223 N 0 0 0
0:00:00.00 512479 N 0 0 0
0:00:00.00 512725 N 0 0 0
0:00:00.00 512980 N 0 0 0
0:00:00.00 513246 N 0 0 0
0:00:00.00 513521 N 0 0 0
0:00:00.00 513799 N 0 0 0
0:00:00.00 514077 N 0 0 0
0:00:00.00 514364 N 0 0 0
0:00:00.00 514660 N 0 0 0
0:00:00.00 514947 N 0 0 0
0:00:00.00 515250 N 0 0 0
0:00:00.00 515559 N 0 0 0
0:00:00.00 515864 N 0 0 0
0:00:00.00 516164 N 0 0 0
0:00:00.00 516476 N 0 0 0
0:00:00.00 516778 N 0 0 0
0:00:00.00 517079 N 0 0 0
0:00:00.00 517381 N 0 0 0
0:00:00.00 517676 N 0 0 0
0:00:00.00 517952 N 0 0 0
0:00:00.00 518234 N 0 0 0
0:00:00.00 518515 N 0 0 0
0:00:00.00 518779 N 0 0 0
0:00:00.00 519039 N 0 0 0
0:00:00.00 519294 N 0 0 0
0:00:00.00 519558 N 0 0 0
0:00:00.00 519835 N 0 0 0
0:00:00.00 520123 N 0 0 0
0:00:00.00 520406 N 0 0 0
0:00:00.00 520697 N 0 0 0
0:00:00.00 520991 N 0 0 0
0:00:00.00 521279 N 0 0 0
0:00:00.00 521588 N 0 0 0
0:00:00.00 521906 N 0 0 0
0:00:00.00 522227 N 0 0 0
0:00:00.00 522542 N 0 0 0
0:00:00.00 522853 N 0 0 0
0:00:00.00 523165 N 0 0 0
0:00:00.00 523486 N 0 0 0
0:00:00.00 523785 N 0 0 0
0:00:00.00 524074 N 0 0 0
0:00:00.00 524356 N 0 0 0
0:00:00.00 524633 N 0 0 0
0:00:00.00 524921 N 0 0 0
0:00:00.00 525200 N 0 0 0
0:00:00.00 525468 N 0 0 0
0:00:00.00 525725 N 0 0 0
0:00:00.00 525981 N 0 0 0
0:00:00.00 526236 N 0 0 0
0:00:00.00 526485 N 0 0 0
0:00:00.00 526732 N 0 0 0
0:00:00.00 526986 N 0 0 0
0:00:00.00 527229 N 0 0 0
0:00:00.00 527482 N 0 0 0
0:00:00.00 527739 N 0 0 0
0:00:00.00 527997 N 0 0 0
0:00:00.00 528269 N 0 0 0
0:00:00.00 528534 N 0 0 0
0:00:00.00 528811 N 0 0 0
0:00:00.00 529091 N 0 0 0
0:00:00.00 529377 N 0 0 0
0:00:00.00 529643 N 0 0 0
0:00:00.00 529908 N 0 0 0
0:00:00.00 530174 N 0 0 0
0:00:00.00 530429 N 0 0 0
0:00:00.00 530691 N 0 0 0
0:00:00.00 530947 N 0 0 0
0:00:00.00 531209 N 0 0 0
0:00:00.00 531482 N 0 0 0
0:00:00.00 531751 N 0 0 0
0:00:00.00 532016 N 0 0 0
0:00:00.00 532278 N 0 0 0
0:00:00.00 532535 N 0 0 0
0:00:00.00 532793 N 0 0 0
0:00:00.00 533061 N 0 0 0
0:00:00.00 533343 N 0 0 0
0:00:00.00 533623 N 0 0 0
0:00:00.00 533901 N 0 0 0
0:00:00.00 534168 N 0 0 0
0:00:00.00 534434 N 0 0 0
0:00:00.00 534705 N 0 0 0
0:00:00.00 534970 N 0 0 0
0:00:00.00 535232 N 0 0 0
0:00:00.00 535489 N 0 0 0
0:00:00.00 535758 N 0 0 0
0:00:00.00 536048 N 0 0 0
0:00:00.00 536347 N 0 0 0
0:00:00.00 536630 N 0 0 0
0:00:00.00 536915 N 0 0 0
0:00:00.00 537210 N 0 0 0
0:00:00.00 537495 N 0 0 0
0:00:00.00 537775 N 0 0 0
0:00:00.00 538058 N 0 0 0
0:00:00.00 538335 N 0 0 0
0:00:00.00 538616 N 0 0 0
0:00:00.00 538895 N 0 0 0
0:00:00.00 539171 N 0 0 0
0:00:00.00 539435 N 0 0 0
0:00:00.00 539708 N 0 0 0
0:00:00.00 539976 N 0 0 0
0:00:00.00 540240 N 0 0 0
0:00:00.00 540501 N 0 0 0
0:00:00.00 540764 N 0 0 0
0:00:00.00 541034 N 0 0 0
0:00:00.00 541320 N 0 0 0
0:00:00.00 541603 N 0 0 0
0:00:00.00 541886 N 0 0 0
0:00:00.00 542166 N 0 0 0
0:00:00.00 542452 N 0 0 0
0:00:00.00 542727 N 0 0 0
0:00:00.00 543000 N 0 0 0
0:00:00.00 543272 N 0 0 0
0:00:00.00 543534 N 0 0 0
0:00:00.00 543804 N 0 0 0
0:00:00.00 544082 N 0 0 0
0:00:00.00 544378 N 0 0 0
0:00:00.00 544684 N 0 0 0
0:00:00.00 544992 N 0 0 0
0:00:00.00 545289 N 0 0 0
0:00:00.00 545582 N 0 0 0
0:00:00.00 545856 N 0 0 0
0:00:00.00 546126 N 0 0 0
0:00:00.00 546392 N 0 0 0
0:00:00.00 546665 N 0 0 0
0:00:00.00 546944 N 0 0 0
0:00:00.00 547229 N 0 0 0
0:00:00.00 547529 N 0 0 0
0:00:00.00 547841 N 0 0 0
0:00:00.00 548150 N 0 0 0
0:00:00.00 548439 N 0 0 0
0:00:00.00 548727 N 0 0 0
0:00:00.00 549012 N 0 0 0
0:00:00.00 549284 N 0 0 0
0:00:00.00 549550 N 0 0 0
0:00:00.00 549809 N 0 0 0
0:00:00.00 550058 N 0 0 0
0:00:00.00 550307 N 0 0 0
0:00:00.00 550562 N 0 0 0
0:00:00.00 550839 N 0 0 0
0:00:00.00 551119 N 0 0 0
0:00:00.00 551394 N 0 0 0
0:00:00.00 551666 N 0 0 0
0:00:00.00 551942 N 0 0 0
0:00:00.00 552216 N 0 0 0
0:00:00.00 552495 N 0 0 0
0:00:00.00 552783 N 0 0 0
0:00:00.00 553067 N 0 0 0
0:00:00.00 553339 N 0 0 0
0:00:00.00 553612 N 0 0 0
0:00:00.00 553885 N 0 0 0
0:00:00.00 554158 N 0 0 0
0:00:00.00 554429 N 0 0 0
0:00:00.00 554698 N 0 0 0
0:00:00.00 554963 N 0 0 0
0:00:00.00 555233 N 0 0 0
0:00:00.00 555498 N 0 0 0
0:00:00.00 555771 N 0 0 0
0:00:00.00 556053 N 0 0 0
0:00:00.00 556333 N 0 0 0
0:00:00.00 556611 N 0 0 0
0:00:00.00 556894 N 0 0 0
0:00:00.00 557185 N 0 0 0
0:00:00.00 557476 N 0 0 0
0:00:00.00 557765 N 0 0 0
0:00:00.00 558057 N 0 0 0
0:00:00.00 558346 N 0 0 0
0:00:00.00 558646 N 0 0 0
0:00:00.00 558947 N 0 0 0
0:00:00.00 559261 N 0 0 0
0:00:00.00 559562 N 0 0 0
0:00:00.00 559854 N 0 0 0
0:00:00.00 560140 N 0 0 0
0:00:00.00 560434 N 0 0 0
0:00:00.00 560736 N 0 0 0
0:00:00.00 561042 N 0 0 0
0:00:00.00 561356 N 0 0 0
0:00:00.00 561661 N 0 0 0
0:00:00.00 561958 N 0 0 0
0:00:00.00 562233 N 0 0 0
0:00:00.00 562498 N 0 0 0
0:00:00.00 562751 N 0 0 0
0:00:00.00 562988 N 0 0 0
0:00:00.00 563221 N 0 0 0
0:00:00.00 563452 N 0 0 0
0:00:00.00 563688 N 0 0 0
0:00:00.00 563930 N 0 0 0
0:00:00.00 564175 N 0 0 0
0:00:00.00 564430 N 0 0 0
0:00:00.00 564683 N 0 0 0
0:00:00.00 564943 N 0 0 0
0:00:00.00 565206 N 0 0 0
0:00:00.00 565466 N 0 0 0
0:00:00.00 565715 N 0 0 0
0:00:00.00 565958 N 0 0 0
0:00:00.00 566191 N 0 0 0
0:00:00.00 566427 N 0 0 0
0:00:00.00 566665 N 0 0 0
0:00:00.00 566911 N 0 0 0
0:00:00.00 567166 N 0 0 0
0:00:00.00 567420 N 0 0 0
0:00:00.00 567692 N 0 0 0
0:00:00.00 567970 N 0 0 0
0:00:00.00 568259 N 0 0 0
0:00:00.00 568546 N 0 0 0
0:00:00.00 568844 N 0 0 0
0:00:00.00 569143 N 0 0 0
0:00:00.00 569423 N 0 0 0
0:00:00.00 569707 N 0 0 0
0:00:00.00 569985 N 0 0 0
0:00:00.00 570259 N 0 0 0
0:00:00.00 570532 N 0 0 0
0:00:00.00 570795 N 0 0 0
0:00:00.00 571054 N 0 0 0
0:00:00.00 571306 N 0 0 0
0:00:00.00 571561 N 0 0 0
0:00:00.00 571816 N 0 0 0
0:00:00.00 572076 N 0 0 0
0:00:00.00 572349 N 0 0 0
0:00:00.00 572617 N 0 0 0
0:00:00.00 572896 N 0 0 0
0:00:00.00 573169 N 0 0 0
0:00:00.00 573460 N 0 0 0
0:00:00.00 573748 N 0 0 0
0:00:00.00 574029 N 0 0 0
0:00:00.00 574303 N 0 0 0
0:00:00.00 574578 N 0 0 0
0:00:00.00 574848 N 0 0 0
0:00:00.00 575112 N 0 0 0
0:00:00.00 575381 N 0 0 0
0:00:00.00 575640 N 0 0 0
0:00:00.00 575896 N 0 0 0
0:00:00.00 576156 N 0 0 0
0:00:00.00 576417 N 0 0 0
0:00:00.00 576682 N 0 0 0
0:00:00.00 576954 N 0 0 0
0:00:00.00 577214 N 0 0 0
0:00:00.00 577474 N 0 0 0
0:00:00.00 577732 N 0 0 0
0:00:00.00 577986 N 0 0 0
0:00:00.00 578242 N 0 0 0
0:00:00.00 578494 N 0 0 0
0:00:00.00 578748 N 0 0 0
0:00:00.00 579005 N 0 0 0
0:00:00.00 579260 N 0 0 0
0:00:00.00 579511 N 0 0 0
0:00:00.00 579763 N 0 0 0
0:00:00.00 580019 N 0 0 0
0:00:00.00 580279 N 0 0 0
0:00:00.00 580538 N 0 0 0
0:00:00.00 580794 N 0 0 0
0:00:00.00 581057 N 0 0 0
0:00:00.00 581317 N 0 0 0
0:00:00.00 581574 N 0 0 0
0:00:00.00 581835 N 0 0 0
0:00:00.00 582091 N 0 0 0
0:00:00.00 582342 N 0 0 0
0:00:00.00 582593 N 0 0 0
0:00:00.00 582837 N 0 0 0
0:00:00.00 583082 N 0 0 0
0:00:00.00 583332 N 0 0 0
0:00:00.00 583582 N 0 0 0
0:00:00.00 583828 N 0 0 0
0:00:00.00 584069 N 0 0 0
0:00:00.00 584311 N 0 0 0
0:00:00.00 584552 N 0 0 0
0:00:00.00 584795 N 0 0 0
0:00:00.00 585044 N 0 0 0
0:00:00.00 585294 N 0 0 0
0:00:00.00 585551 N 0 0 0
0:00:00.00 585802 N 0 0 0
0:00:00.00 586056 N 0 0 0
0:00:00.00 586310 N 0 0 0
0:00:00.00 586564 N 0 0 0
0:00:00.00 586810 N 0 0 0
0:00:00.00 587054 N 0 0 0
0:00:00.00 587292 N 0 0 0
0:00:00.00 587525 N 0 0 0
0:00:00.00 587760 N 0 0 0
0:00:00.00 588000 N 0 0 0
0:00:00.00 588242 N 0 0 0
0:00:00.00 588491 N 0 0 0
0:00:00.00 588752 N 0 0 0
0:00:00.00 589006 N 0 0 0
0:00:00.00 589254 N 0 0 0
0:00:00.00 589497 N 0 0 0
0:00:00.00 589745 N 0 0 0
0:00:00.00 589993 N 0 0 0
0:00:00.00 590235 N 0 0 0
0:00:00.00 590477 N 0 0 0
0:00:00.00 590719 N 0 0 0
0:00:00.00 590968 N 0 0 0
0:00:00.00 591227 N 0 0 0
0:00:00.00 591480 N 0 0 0
0:00:00.00 591732 N 0 0 0
0:00:00.00 591987 N 0 0 0
0:00:00.00 592238 N 0 0 0
0:00:00.00 592492 N 0 0 0
0:00:00.00 592742 N 0 0 0
0:00:00.00 593005 N 0 0 0
0:00:00.00 593265 N 0 0 0
0:00:00.00 593525 N 0 0 0
0:00:00.00 593782 N 0 0 0
0:00:00.00 594043 N 0 0 0
0:00:00.00 594311 N 0 0 0
0:00:00.00 594589 N 0 0 0
0:00:00.00 594875 N 0 0 0
0:00:00.00 595171 N 0 0 0
0:00:00.00 595450 N 0 0 0
0:00:00.00 595722 N 0 0 0
0:00:00.00 595984 N 0 0 0
0:00:00.00 596244 N 0 0 0
0:00:00.00 596503 N 0 0 0
0:00:00.00 596757 N 0 0 0
0:00:00.00 597011 N 0 0 0
0:00:00.00 597271 N 0 0 0
0:00:00.00 597534 N 0 0 0
0:00:00.00 597791 N 0 0 0
0:00:00.00 598062 N 0 0 0
0:00:00.00 598339 N 0 0 0
0:00:00.00 598610 N 0 0 0
0:00:00.00 598878 N 0 0 0
0:00:00.00 599126 N 0 0 0
0:00:00.00 599377 N 0 0 0
0:00:00.00 599623 N 0 0 0
0:00:00.00 599863 N 0 0 0
0:00:00.00 600105 N 0 0 0
0:00:00.00 600335 N 0 0 0
0:00:00.00 600570 N 0 0 0
0:00:00.00 600810 N 0 0 0
0:00:00.00 601043 N 0 0 0
0:00:00.00 601286 N 0 0 0
0:00:00.00 601527 N 0 0 0
0:00:00.00 601768 N 0 0 0
0:00:00.00 602001 N 0 0 0
0:00:00.00 602235 N 0 0 0
0:00:00.00 602469 N 0 0 0
0:00:00.00 602708 N 0 0 0
0:00:00.00 602952 N 0 0 0
0:00:00.00 603200 N 0 0 0
0:00:00.00 603455 N 0 0 0
0:00:00.00 603726 N 0 0 0
0:00:00.00 604010 N 0 0 0
0:00:00.00 604302 N 0 0 0
0:00:00.00 604607 N 0 0 0
0:00:00.00 604910 N 0 0 0
0:00:00.00 605201 N 0 0 0
0:00:00.00 605490 N 0 0 0
0:00:00.00 605775 N 0 0 0
0:00:00.00 606064 N 0 0 0
0:00:00.00 606344 N 0 0 0
0:00:00.00 606622 N 0 0 0
0:00:00.00 606895 N 0 0 0
0:00:00.00 607172 N 0 0 0
0:00:00.00 607451 N 0 0 0
0:00:00.00 607730 N 0 0 0
0:00:00.00 607993 N 0 0 0
0:00:00.00 608254 N 0 0 0
0:00:00.00 608521 N 0 0 0
0:00:00.00 608783 N 0 0 0
0:00:00.00 609053 N 0 0 0
0:00:00.00 609334 N 0 0 0
0:00:00.00 609613 N 0 0 0
0:00:00.00 609898 N 0 0 0
0:00:00.00 610168 N 0 0 0
0:00:00.00 610433 N 0 0 0
0:00:00.00 610690 N 0 0 0
0:00:00.00 610947 N 0 0 0
0:00:00.00 611188 N 0 0 0
0:00:00.00 611432 N 0 0 0
0:00:00.00 611670 N 0 0 0
0:00:00.00 611914 N 0 0 0
0:00:00.00 612152 N 0 0 0
0:00:00.00 612400 N 0 0 0
0:00:00.00 612654 N 0 0 0
0:00:00.00 612905 N 0 0 0
0:00:00.00 613160 N 0 0 0
0:00:00.00 613409 N 0 0 0
0:00:00.00 613660 N 0 0 0
0:00:00.00 613907 N 0 0 0
0:00:00.00 614155 N 0 0 0
0:00:00.00 614401 N 0 0 0
0:00:00.00 614649 N 0 0 0
0:00:00.00 614887 N 0 0 0
0:00:00.00 615127 N 0 0 0
0:00:00.00 615367 N 0 0 0
0:00:00.00 615613 N 0 0 0
0:00:00.00 615857 N 0 0 0
0:00:00.00 616091 N 0 0 0
0:00:00.00 616334 N 0 0 0
0:00:00.00 616572 N 0 0 0
0:00:00.00 616815 N 0 0 0
0:00:00.00 617076 N 0 0 0
0:00:00.00 617340 N 0 0 0
0:00:00.00 617611 N 0 0 0
0:00:00.00 617889 N 0 0 0
0:00:00.00 618166 N 0 0 0
0:00:00.00 618438 N 0 0 0
0:00:00.00 618702 N 0 0 0
0:00:00.00 618964 N 0 0 0
0:00:00.00 619220 N 0 0 0
0:00:00.00 619472 N 0 0 0
0:00:00.00 619722 N 0 0 0
0:00:00.00 619978 N 0 0 0
0:00:00.00 620230 N 0 0 0
0:00:00.00 620478 N 0 0 0
0:00:00.00 620734 N 0 0 0
0:00:00.00 620990 N 0 0 0
0:00:00.00 621244 N 0 0 0
0:00:00.00 621505 N 0 0 0
0:00:00.00 621766 N 0 0 0
0:00:00.00 622040 N 0 0 0
0:00:00.00 622323 N 0 0 0
0:00:00.00 622595 N 0 0 0
0:00:00.00 622869 N 0 0 0
0:00:00.00 623138 N 0 0 0
0:00:00.00 623408 N 0 0 0
0:00:00.00 623674 N 0 0 0
0:00:00.00 623934 N 0 0 0
0:00:00.00 624190 N 0 0 0
0:00:00.00 624447 N 0 0 0
0:00:00.00 624700 N 0 0 0
0:00:00.00 624955 N 0 0 0
0:00:00.00 625205 N 0 0 0
0:00:00.00 625463 N 0 0 0
0:00:00.00 625728 N 0 0 0
0:00:00.00 625983 N 0 0 0
0:00:00.00 626239 N 0 0 0
0:00:00.00 626503 N 0 0 0
0:00:00.00 626767 N 0 0 0
0:00:00.00 627030 N 0 0 0
0:00:00.00 627303 N 0 0 0
0:00:00.00 627573 N 0 0 0
0:00:00.00 627838 N 0 0 0
0:00:00.00 628109 N 0 0 0
0:00:00.00 628379 N 0 0 0
0:00:00.00 628642 N 0 0 0
0:00:00.00 628903 N 0 0 0
0:00:00.00 629151 N 0 0 0
0:00:00.00 629342 N 0 0 0
0:00:00.00 629607 N 0 0 0
0:00:00.00 629843 N 0 0 0
0:00:00.00 630083 N 0 0 0
0:00:00.00 630316 N 0 0 0
0:00:00.00 630561 N 0 0 0
0:00:00.00 630810 N 0 0 0
0:00:00.00 631056 N 0 0 0
0:00:00.00 631307 N 0 0 0
0:00:00.00 631561 N 0 0 0
0:00:00.00 631822 N 0 0 0
0:00:00.00 632112 N 0 0 0
0:00:00.00 632400 N 0 0 0
0:00:00.00 632702 N 0 0 0
0:00:00.00 632986 N 0 0 0
0:00:00.00 633268 N 0 0 0
0:00:00.00 633546 N 0 0 0
0:00:00.00 633830 N 0 0 0
0:00:00.00 634120 N 0 0 0
0:00:00.00 634394 N 0 0 0
0:00:00.00 634667 N 0 0 0
0:00:00.00 634938 N 0 0 0
0:00:00.00 635218 N 0 0 0
0:00:00.00 635500 N 0 0 0
0:00:00.00 635778 N 0 0 0
0:00:00.00 636041 N 0 0 0
0:00:00.00 636302 N 0 0 0
0:00:00.00 636563 N 0 0 0
0:00:00.00 636816 N 0 0 0
0:00:00.00 637075 N 0 0 0
0:00:00.00 637345 N 0 0 0
0:00:00.00 637604 N 0 0 0
0:00:00.00 637869 N 0 0 0
0:00:00.00 638125 N 0 0 0
0:00:00.00 638387 N 0 0 0
0:00:00.00 638659 N 0 0 0
0:00:00.00 638928 N 0 0 0
0:00:00.00 639099 N 0 0 0
0:00:00.00 639187 N 0 0 0
0:00:00.00 639442 N 0 0 0
0:00:00.00 639699 N 0 0 0
0:00:00.00 639953 N 0 0 0
0:00:00.00 640210 N 0 0 0
0:00:00.00 640461 N 0 0 0
0:00:00.00 640708 N 0 0 0
0:00:00.00 640951 N 0 0 0
0:00:00.00 641201 N 0 0 0
0:00:00.00 641458 N 0 0 0
0:00:00.00 641731 N 0 0 0
0:00:00.00 642003 N 0 0 0
0:00:00.00 642282 N 0 0 0
0:00:00.00 642557 N 0 0 0
0:00:00.00 642843 N 0 0 0
0:00:00.00 643144 N 0 0 0
0:00:00.00 643442 N 0 0 0
0:00:00.00 643735 N 0 0 0
0:00:00.00 644018 N 0 0 0
0:00:00.00 644295 N 0 0 0
0:00:00.00 644573 N 0 0 0
0:00:00.00 644844 N 0 0 0
0:00:00.00 645119 N 0 0 0
0:00:00.00 645383 N 0 0 0
0:00:00.00 645651 N 0 0 0
0:00:00.00 645919 N 0 0 0
0:00:00.00 646195 N 0 0 0
0:00:00.00 646478 N 0 0 0
0:00:00.00 646754 N 0 0 0
0:00:00.00 647038 N 0 0 0
0:00:00.00 647316 N 0 0 0
0:00:00.00 647592 N 0 0 0
0:00:00.00 647862 N 0 0 0
0:00:00.00 648125 N 0 0 0
0:00:00.00 648386 N 0 0 0
0:00:00.00 648630 N 0 0 0
0:00:00.00 648874 N 0 0 0
0:00:00.00 649107 N 0 0 0
0:00:00.00 649340 N 0 0 0
0:00:00.00 649574 N 0 0 0
0:00:00.00 649809 N 0 0 0
