0:00:00.00 18 N 0 0 0
0:00:00.00 130 N 0 0 0
0:00:00.00 531 N 0 0 0
0:00:00.00 850 N 0 0 0
0:00:00.00 1170 N 0 0 0
0:00:00.00 1514 N 0 0 0
0:00:00.00 1834 N 0 0 0
0:00:00.00 2462 N 0 0 0
0:00:00.00 2792 N 0 0 0
0:00:00.00 3089 N 0 0 0
0:00:00.00 3424 N 0 0 0
0:00:00.00 3757 N 0 0 0
0:00:00.00 4061 N 0 0 0
0:00:00.00 4388 N 0 0 0
0:00:00.00 4723 N 0 0 0
0:00:00.00 5038 N 0 0 0
0:00:00.00 5380 N 0 0 0
0:00:00.00 5742 N 0 0 0
0:00:00.00 6062 N 0 0 0
0:00:00.00 6419 N 0 0 0
0:00:00.00 6800 N 0 0 0
0:00:00.00 7124 N 0 0 0
0:00:00.00 7483 N 0 0 0
0:00:00.00 7830 N 0 0 0
0:00:00.00 8140 N 0 0 0
0:00:00.00 8480 N 0 0 0
0:00:00.00 8822 N 0 0 0
0:00:00.00 9139 N 0 0 0
0:00:00.00 9500 N 0 0 0
0:00:00.00 9857 N 0 0 0
0:00:00.00 10184 N 0 0 0
0:00:00.00 10541 N 0 0 0
0:00:00.00 10894 N 0 0 0
0:00:00.00 11227 N 0 0 0
0:00:00.00 11585 N 0 0 0
0:00:00.00 11918 N 0 0 0
0:00:00.00 12238 N 0 0 0
0:00:00.00 12593 N 0 0 0
0:00:00.00 12944 N 0 0 0
0:00:00.00 13264 N 0 0 0
0:00:00.00 13621 N 0 0 0
0:00:00.00 13950 N 0 0 0
0:00:00.00 14287 N 0 0 0
0:00:00.00 14629 N 0 0 0
0:00:00.00 14971 N 0 0 0
0:00:00.00 15289 N 0 0 0
0:00:00.00 15640 N 0 0 0
0:00:00.00 15979 N 0 0 0
0:00:00.00 16308 N 0 0 0
0:00:00.00 16654 N 0 0 0
0:00:00.00 17021 N 0 0 0
0:00:00.00 17356 N 0 0 0
0:00:00.00 17710 N 0 0 0
0:00:00.00 18052 N 0 0 0
0:00:00.00 18373 N 0 0 0
0:00:00.00 18718 N 0 0 0
0:00:00.00 19058 N 0 0 0
0:00:00.00 19370 N 0 0 0
0:00:00.00 19724 N 0 0 0
0:00:00.00 20057 N 0 0 0
0:00:00.00 20376 N 0 0 0
0:00:00.00 20732 N 0 0 0
0:00:00.00 21071 N 0 0 0
0:00:00.00 21386 N 0 0 0
0:00:00.00 21735 N 0 0 0
0:00:00.00 22063 N 0 0 0
0:00:00.00 22381 N 0 0 0
0:00:00.00 22729 N 0 0 0
0:00:00.00 23078 N 0 0 0
0:00:00.00 23398 N 0 0 0
0:00:00.00 23749 N 0 0 0
0:00:00.00 24086 N 0 0 0
0:00:00.00 24408 N 0 0 0
0:00:00.00 24772 N 0 0 0
0:00:00.00 25123 N 0 0 0
0:00:00.00 25448 N 0 0 0
0:00:00.00 25814 N 0 0 0
0:00:00.00 26158 N 0 0 0
0:00:00.00 26494 N 0 0 0
0:00:00.00 26843 N 0 0 0
0:00:00.00 27198 N 0 0 0
0:00:00.00 27549 N 0 0 0
0:00:00.00 27877 N 0 0 0
0:00:00.00 28208 N 0 0 0
0:00:00.00 28561 N 0 0 0
0:00:00.00 28890 N 0 0 0
0:00:00.00 29236 N 0 0 0
0:00:00.00 29596 N 0 0 0
0:00:00.00 29929 N 0 0 0
0:00:00.00 30283 N 0 0 0
0:00:00.00 30640 N 0 0 0
0:00:00.00 30978 N 0 0 0
0:00:00.00 31327 N 0 0 0
0:00:00.00 31694 N 0 0 0
0:00:00.00 32022 N 0 0 0
0:00:00.00 32362 N 0 0 0
0:00:00.00 32706 N 0 0 0
0:00:00.00 33030 N 0 0 0
0:00:00.00 33359 N 0 0 0
0:00:00.00 33714 N 0 0 0
0:00:00.00 34029 N 0 0 0
0:00:00.00 34654 N 0 0 0
0:00:00.00 34979 N 0 0 0
0:00:00.00 35590 N 0 0 0
0:00:00.00 36209 N 0 0 0
0:00:00.00 36842 N 0 0 0
0:00:00.00 37445 N 0 0 0
0:00:00.00 38057 N 0 0 0
0:00:00.00 38655 N 0 0 0
0:00:00.00 39267 N 0 0 0
0:00:00.00 39865 N 0 0 0
0:00:00.00 40459 N 0 0 0
0:00:00.00 41040 N 0 0 0
0:00:00.00 41650 N 0 0 0
0:00:00.00 42224 N 0 0 0
0:00:00.00 42791 N 0 0 0
0:00:00.00 43360 N 0 0 0
0:00:00.00 43938 N 0 0 0
0:00:00.00 44528 N 0 0 0
0:00:00.00 45115 N 0 0 0
0:00:00.00 45695 N 0 0 0
0:00:00.00 46258 N 0 0 0
0:00:00.00 46820 N 0 0 0
0:00:00.00 47401 N 0 0 0
0:00:00.00 48011 N 0 0 0
0:00:00.00 48602 N 0 0 0
0:00:00.00 49185 N 0 0 0
0:00:00.00 49784 N 0 0 0
0:00:00.00 50375 N 0 0 0
0:00:00.00 50972 N 0 0 0
0:00:00.00 51561 N 0 0 0
0:00:00.00 52144 N 0 0 0
0:00:00.00 52601 N 0 0 0
0:00:00.00 52997 N 0 0 0
0:00:00.00 53240 N 0 0 0
0:00:00.00 53402 N 0 0 0
0:00:00.00 53782 N 0 0 0
0:00:00.00 54112 N 0 0 0
0:00:00.00 54445 N 0 0 0
0:00:00.00 54774 N 0 0 0
0:00:00.00 55093 N 0 0 0
0:00:00.00 55429 N 0 0 0
0:00:00.00 55791 N 0 0 0
0:00:00.00 56120 N 0 0 0
0:00:00.00 56482 N 0 0 0
0:00:00.00 56846 N 0 0 0
0:00:00.00 57195 N 0 0 0
0:00:00.00 57571 N 0 0 0
0:00:00.00 57935 N 0 0 0
0:00:00.00 58266 N 0 0 0
0:00:00.00 58606 N 0 0 0
0:00:00.00 58939 N 0 0 0
0:00:00.00 59269 N 0 0 0
0:00:00.00 59609 N 0 0 0
0:00:00.00 59962 N 0 0 0
0:00:00.00 60296 N 0 0 0
0:00:00.00 60660 N 0 0 0
0:00:00.00 61031 N 0 0 0
0:00:00.00 61373 N 0 0 0
0:00:00.00 61751 N 0 0 0
0:00:00.00 62123 N 0 0 0
0:00:00.00 62482 N 0 0 0
0:00:00.00 62858 N 0 0 0
0:00:00.00 63232 N 0 0 0
0:00:00.00 63576 N 0 0 0
0:00:00.00 63941 N 0 0 0
0:00:00.00 64283 N 0 0 0
0:00:00.00 64622 N 0 0 0
0:00:00.00 65007 N 0 0 0
0:00:00.00 65354 N 0 0 0
0:00:00.00 65704 N 0 0 0
0:00:00.00 66058 N 0 0 0
0:00:00.00 66395 N 0 0 0
0:00:00.00 66735 N 0 0 0
0:00:00.00 67099 N 0 0 0
0:00:00.00 67457 N 0 0 0
0:00:00.00 67828 N 0 0 0
0:00:00.00 68202 N 0 0 0
0:00:00.00 68549 N 0 0 0
0:00:00.00 68897 N 0 0 0
0:00:00.00 69246 N 0 0 0
0:00:00.00 69588 N 0 0 0
0:00:00.00 69937 N 0 0 0
0:00:00.00 70286 N 0 0 0
0:00:00.00 70637 N 0 0 0
0:00:00.00 70987 N 0 0 0
0:00:00.00 71338 N 0 0 0
0:00:00.00 71696 N 0 0 0
0:00:00.00 72038 N 0 0 0
0:00:00.00 72389 N 0 0 0
0:00:00.00 72747 N 0 0 0
0:00:00.00 73085 N 0 0 0
0:00:00.00 73436 N 0 0 0
0:00:00.00 73796 N 0 0 0
0:00:00.00 74128 N 0 0 0
0:00:00.00 74491 N 0 0 0
0:00:00.00 74842 N 0 0 0
0:00:00.00 75181 N 0 0 0
0:00:00.00 75535 N 0 0 0
0:00:00.00 75879 N 0 0 0
0:00:00.00 76235 N 0 0 0
0:00:00.00 76595 N 0 0 0
0:00:00.00 76957 N 0 0 0
0:00:00.00 77296 N 0 0 0
0:00:00.00 77656 N 0 0 0
0:00:00.00 78014 N 0 0 0
0:00:00.00 78338 N 0 0 0
0:00:00.00 78683 N 0 0 0
0:00:00.00 79031 N 0 0 0
0:00:00.00 79346 N 0 0 0
0:00:00.00 79688 N 0 0 0
0:00:00.00 80035 N 0 0 0
0:00:00.00 80345 N 0 0 0
0:00:00.00 80674 N 0 0 0
0:00:00.00 81029 N 0 0 0
0:00:00.00 81346 N 0 0 0
0:00:00.00 81679 N 0 0 0
0:00:00.00 82040 N 0 0 0
0:00:00.00 82373 N 0 0 0
0:00:00.00 82694 N 0 0 0
0:00:00.00 83048 N 0 0 0
0:00:00.00 83380 N 0 0 0
0:00:00.00 83695 N 0 0 0
0:00:00.00 84044 N 0 0 0
0:00:00.00 84379 N 0 0 0
0:00:00.00 84688 N 0 0 0
0:00:00.00 85039 N 0 0 0
0:00:00.00 85370 N 0 0 0
0:00:00.00 85682 N 0 0 0
0:00:00.00 86011 N 0 0 0
0:00:00.00 86339 N 0 0 0
0:00:00.00 86645 N 0 0 0
0:00:00.00 86981 N 0 0 0
0:00:00.00 87325 N 0 0 0
0:00:00.00 87653 N 0 0 0
0:00:00.00 87995 N 0 0 0
0:00:00.00 88366 N 0 0 0
0:00:00.00 88717 N 0 0 0
0:00:00.00 89057 N 0 0 0
0:00:00.00 89413 N 0 0 0
0:00:00.00 89755 N 0 0 0
0:00:00.00 90086 N 0 0 0
0:00:00.00 90428 N 0 0 0
0:00:00.00 90761 N 0 0 0
0:00:00.00 91085 N 0 0 0
0:00:00.00 91426 N 0 0 0
0:00:00.00 91789 N 0 0 0
0:00:00.00 92117 N 0 0 0
0:00:00.00 92461 N 0 0 0
0:00:00.00 92819 N 0 0 0
0:00:00.00 93170 N 0 0 0
0:00:00.00 93512 N 0 0 0
0:00:00.00 93872 N 0 0 0
0:00:00.00 94196 N 0 0 0
0:00:00.00 94523 N 0 0 0
0:00:00.00 94871 N 0 0 0
0:00:00.00 95211 N 0 0 0
0:00:00.00 95530 N 0 0 0
0:00:00.00 95890 N 0 0 0
0:00:00.00 96210 N 0 0 0
0:00:00.00 96543 N 0 0 0
0:00:00.00 96889 N 0 0 0
0:00:00.00 97234 N 0 0 0
0:00:00.00 97560 N 0 0 0
0:00:00.00 97918 N 0 0 0
0:00:00.00 98264 N 0 0 0
0:00:00.00 98581 N 0 0 0
0:00:00.00 98926 N 0 0 0
0:00:00.00 99272 N 0 0 0
0:00:00.00 99599 N 0 0 0
0:00:00.00 99932 N 0 0 0
0:00:00.00 100289 N 0 0 0
0:00:00.00 100606 N 0 0 0
0:00:00.00 100948 N 0 0 0
0:00:00.00 101286 N 0 0 0
0:00:00.00 101599 N 0 0 0
0:00:00.00 101959 N 0 0 0
0:00:00.00 102310 N 0 0 0
0:00:00.00 102634 N 0 0 0
0:00:00.00 102989 N 0 0 0
0:00:00.00 103331 N 0 0 0
0:00:00.00 103651 N 0 0 0
0:00:00.00 104000 N 0 0 0
0:00:00.00 104333 N 0 0 0
0:00:00.00 104654 N 0 0 0
0:00:00.00 105016 N 0 0 0
0:00:00.00 105358 N 0 0 0
0:00:00.00 105685 N 0 0 0
0:00:00.00 106045 N 0 0 0
0:00:00.00 106393 N 0 0 0
0:00:00.00 106724 N 0 0 0
0:00:00.00 107087 N 0 0 0
0:00:00.00 107431 N 0 0 0
0:00:00.00 107768 N 0 0 0
0:00:00.00 108122 N 0 0 0
0:00:00.00 108464 N 0 0 0
0:00:00.00 108794 N 0 0 0
0:00:00.00 109143 N 0 0 0
0:00:00.00 109478 N 0 0 0
0:00:00.00 109811 N 0 0 0
0:00:00.00 110155 N 0 0 0
0:00:00.00 110493 N 0 0 0
0:00:00.00 110826 N 0 0 0
0:00:00.00 111173 N 0 0 0
0:00:00.00 111535 N 0 0 0
0:00:00.00 111899 N 0 0 0
0:00:00.00 112223 N 0 0 0
0:00:00.00 112570 N 0 0 0
0:00:00.00 112921 N 0 0 0
0:00:00.00 113251 N 0 0 0
0:00:00.00 113598 N 0 0 0
0:00:00.00 113949 N 0 0 0
0:00:00.00 114268 N 0 0 0
0:00:00.00 114619 N 0 0 0
0:00:00.00 114968 N 0 0 0
0:00:00.00 115288 N 0 0 0
0:00:00.00 115621 N 0 0 0
0:00:00.00 115963 N 0 0 0
0:00:00.00 116271 N 0 0 0
0:00:00.00 116608 N 0 0 0
0:00:00.00 116937 N 0 0 0
0:00:00.00 117256 N 0 0 0
0:00:00.00 117601 N 0 0 0
0:00:00.00 117970 N 0 0 0
0:00:00.00 118280 N 0 0 0
0:00:00.00 118627 N 0 0 0
0:00:00.00 118958 N 0 0 0
0:00:00.00 119588 N 0 0 0
0:00:00.00 119923 N 0 0 0
0:00:00.00 120530 N 0 0 0
0:00:00.00 121160 N 0 0 0
0:00:00.00 121792 N 0 0 0
0:00:00.00 122400 N 0 0 0
0:00:00.00 123028 N 0 0 0
0:00:00.00 123620 N 0 0 0
0:00:00.00 124213 N 0 0 0
0:00:00.00 124799 N 0 0 0
0:00:00.00 125393 N 0 0 0
0:00:00.00 125986 N 0 0 0
0:00:00.00 126574 N 0 0 0
0:00:00.00 127172 N 0 0 0
0:00:00.00 127762 N 0 0 0
0:00:00.00 128360 N 0 0 0
0:00:00.00 128941 N 0 0 0
0:00:00.00 129537 N 0 0 0
0:00:00.00 130145 N 0 0 0
0:00:00.00 130745 N 0 0 0
0:00:00.00 131337 N 0 0 0
0:00:00.00 131906 N 0 0 0
0:00:00.00 132507 N 0 0 0
0:00:00.00 133101 N 0 0 0
0:00:00.00 133713 N 0 0 0
0:00:00.00 134330 N 0 0 0
0:00:00.00 134962 N 0 0 0
0:00:00.00 135589 N 0 0 0
0:00:00.00 136197 N 0 0 0
0:00:00.00 136778 N 0 0 0
0:00:00.00 137383 N 0 0 0
0:00:00.00 137959 N 0 0 0
0:00:00.00 138550 N 0 0 0
0:00:00.00 139138 N 0 0 0
0:00:00.00 139729 N 0 0 0
0:00:00.00 140314 N 0 0 0
0:00:00.00 140913 N 0 0 0
0:00:00.00 141498 N 0 0 0
0:00:00.00 142079 N 0 0 0
0:00:00.00 142652 N 0 0 0
0:00:00.00 143215 N 0 0 0
0:00:00.00 143788 N 0 0 0
0:00:00.00 144380 N 0 0 0
0:00:00.00 144963 N 0 0 0
0:00:00.00 145555 N 0 0 0
0:00:00.00 146155 N 0 0 0
0:00:00.00 146740 N 0 0 0
0:00:00.00 147330 N 0 0 0
0:00:00.00 147949 N 0 0 0
0:00:00.00 148543 N 0 0 0
0:00:00.00 149159 N 0 0 0
0:00:00.00 149751 N 0 0 0
0:00:00.00 150331 N 0 0 0
0:00:00.00 150923 N 0 0 0
0:00:00.00 151508 N 0 0 0
0:00:00.00 152131 N 0 0 0
0:00:00.00 152723 N 0 0 0
0:00:00.00 153335 N 0 0 0
0:00:00.00 153947 N 0 0 0
0:00:00.00 154525 N 0 0 0
0:00:00.00 155140 N 0 0 0
0:00:00.00 155716 N 0 0 0
0:00:00.00 156292 N 0 0 0
0:00:00.00 156872 N 0 0 0
0:00:00.00 157444 N 0 0 0
0:00:00.00 158036 N 0 0 0
0:00:00.00 158632 N 0 0 0
0:00:00.00 159212 N 0 0 0
0:00:00.00 159781 N 0 0 0
0:00:00.00 160367 N 0 0 0
0:00:00.00 160961 N 0 0 0
0:00:00.00 161534 N 0 0 0
0:00:00.00 162113 N 0 0 0
0:00:00.00 162704 N 0 0 0
0:00:00.00 163303 N 0 0 0
0:00:00.00 163894 N 0 0 0
0:00:00.00 164491 N 0 0 0
0:00:00.00 165112 N 0 0 0
0:00:00.00 165724 N 0 0 0
0:00:00.00 166324 N 0 0 0
0:00:00.00 166943 N 0 0 0
0:00:00.00 167535 N 0 0 0
0:00:00.00 168158 N 0 0 0
0:00:00.00 168784 N 0 0 0
0:00:00.00 169427 N 0 0 0
0:00:00.00 170057 N 0 0 0
0:00:00.00 170678 N 0 0 0
0:00:00.00 171304 N 0 0 0
0:00:00.00 171936 N 0 0 0
0:00:00.00 172519 N 0 0 0
0:00:00.00 173131 N 0 0 0
0:00:00.00 173723 N 0 0 0
0:00:00.00 174332 N 0 0 0
0:00:00.00 174938 N 0 0 0
0:00:00.00 175545 N 0 0 0
0:00:00.00 176152 N 0 0 0
0:00:00.00 176737 N 0 0 0
0:00:00.00 177322 N 0 0 0
0:00:00.00 177917 N 0 0 0
0:00:00.00 178488 N 0 0 0
0:00:00.00 179116 N 0 0 0
0:00:00.00 179708 N 0 0 0
0:00:00.00 180293 N 0 0 0
0:00:00.00 180889 N 0 0 0
0:00:00.00 181483 N 0 0 0
0:00:00.00 182113 N 0 0 0
0:00:00.00 182722 N 0 0 0
0:00:00.00 183334 N 0 0 0
0:00:00.00 183935 N 0 0 0
0:00:00.00 184559 N 0 0 0
0:00:00.00 185166 N 0 0 0
0:00:00.00 185792 N 0 0 0
0:00:00.00 186386 N 0 0 0
0:00:00.00 187011 N 0 0 0
0:00:00.00 187632 N 0 0 0
0:00:00.00 188248 N 0 0 0
0:00:00.00 188858 N 0 0 0
0:00:00.00 189439 N 0 0 0
0:00:00.00 190040 N 0 0 0
0:00:00.00 190640 N 0 0 0
0:00:00.00 191232 N 0 0 0
0:00:00.00 191840 N 0 0 0
0:00:00.00 192442 N 0 0 0
0:00:00.00 193032 N 0 0 0
0:00:00.00 193621 N 0 0 0
0:00:00.00 194229 N 0 0 0
0:00:00.00 194801 N 0 0 0
0:00:00.00 195385 N 0 0 0
0:00:00.00 195961 N 0 0 0
0:00:00.00 196544 N 0 0 0
0:00:00.00 197131 N 0 0 0
0:00:00.00 197750 N 0 0 0
0:00:00.00 198349 N 0 0 0
0:00:00.00 198938 N 0 0 0
0:00:00.00 199530 N 0 0 0
0:00:00.00 200117 N 0 0 0
0:00:00.00 200691 N 0 0 0
0:00:00.00 201265 N 0 0 0
0:00:00.00 201879 N 0 0 0
0:00:00.00 202468 N 0 0 0
0:00:00.00 202781 N 0 0 0
0:00:00.00 203085 N 0 0 0
0:00:00.00 203404 N 0 0 0
0:00:00.00 203762 N 0 0 0
0:00:00.00 204100 N 0 0 0
0:00:00.00 204453 N 0 0 0
0:00:00.00 204827 N 0 0 0
0:00:00.00 205182 N 0 0 0
0:00:00.00 205519 N 0 0 0
0:00:00.00 205889 N 0 0 0
0:00:00.00 206226 N 0 0 0
0:00:00.00 206548 N 0 0 0
0:00:00.00 206878 N 0 0 0
0:00:00.00 207205 N 0 0 0
0:00:00.00 207513 N 0 0 0
0:00:00.00 207851 N 0 0 0
0:00:00.00 208174 N 0 0 0
0:00:00.00 208476 N 0 0 0
0:00:00.00 208805 N 0 0 0
0:00:00.00 209153 N 0 0 0
0:00:00.00 209464 N 0 0 0
0:00:00.00 209806 N 0 0 0
0:00:00.00 210146 N 0 0 0
0:00:00.00 210461 N 0 0 0
0:00:00.00 210802 N 0 0 0
0:00:00.00 211147 N 0 0 0
0:00:00.00 211466 N 0 0 0
0:00:00.00 211799 N 0 0 0
0:00:00.00 212148 N 0 0 0
0:00:00.00 212492 N 0 0 0
0:00:00.00 212823 N 0 0 0
0:00:00.00 213208 N 0 0 0
0:00:00.00 213572 N 0 0 0
0:00:00.00 213925 N 0 0 0
0:00:00.00 214294 N 0 0 0
0:00:00.00 214655 N 0 0 0
0:00:00.00 215023 N 0 0 0
0:00:00.00 215401 N 0 0 0
0:00:00.00 215766 N 0 0 0
0:00:00.00 216110 N 0 0 0
0:00:00.00 216448 N 0 0 0
0:00:00.00 216794 N 0 0 0
0:00:00.00 217132 N 0 0 0
0:00:00.00 217492 N 0 0 0
0:00:00.00 217859 N 0 0 0
0:00:00.00 218205 N 0 0 0
0:00:00.00 218576 N 0 0 0
0:00:00.00 218948 N 0 0 0
0:00:00.00 219310 N 0 0 0
0:00:00.00 219674 N 0 0 0
0:00:00.00 220034 N 0 0 0
0:00:00.00 220369 N 0 0 0
0:00:00.00 220723 N 0 0 0
0:00:00.00 221074 N 0 0 0
0:00:00.00 221404 N 0 0 0
0:00:00.00 221756 N 0 0 0
0:00:00.00 222107 N 0 0 0
0:00:00.00 222430 N 0 0 0
0:00:00.00 222784 N 0 0 0
0:00:00.00 223141 N 0 0 0
0:00:00.00 223465 N 0 0 0
0:00:00.00 223823 N 0 0 0
0:00:00.00 224161 N 0 0 0
0:00:00.00 224480 N 0 0 0
0:00:00.00 224825 N 0 0 0
0:00:00.00 225160 N 0 0 0
0:00:00.00 225473 N 0 0 0
0:00:00.00 225828 N 0 0 0
0:00:00.00 226177 N 0 0 0
0:00:00.00 226505 N 0 0 0
0:00:00.00 226838 N 0 0 0
0:00:00.00 227185 N 0 0 0
0:00:00.00 227522 N 0 0 0
0:00:00.00 227849 N 0 0 0
0:00:00.00 228182 N 0 0 0
0:00:00.00 228501 N 0 0 0
0:00:00.00 228805 N 0 0 0
0:00:00.00 229133 N 0 0 0
0:00:00.00 229464 N 0 0 0
0:00:00.00 229795 N 0 0 0
0:00:00.00 230117 N 0 0 0
0:00:00.00 230485 N 0 0 0
0:00:00.00 230836 N 0 0 0
0:00:00.00 231167 N 0 0 0
0:00:00.00 231547 N 0 0 0
0:00:00.00 231930 N 0 0 0
0:00:00.00 232265 N 0 0 0
0:00:00.00 232616 N 0 0 0
0:00:00.00 232976 N 0 0 0
0:00:00.00 233302 N 0 0 0
0:00:00.00 233653 N 0 0 0
0:00:00.00 234014 N 0 0 0
0:00:00.00 234333 N 0 0 0
0:00:00.00 234679 N 0 0 0
0:00:00.00 235031 N 0 0 0
0:00:00.00 235346 N 0 0 0
0:00:00.00 235692 N 0 0 0
0:00:00.00 236039 N 0 0 0
0:00:00.00 236345 N 0 0 0
0:00:00.00 236682 N 0 0 0
0:00:00.00 237029 N 0 0 0
0:00:00.00 237352 N 0 0 0
0:00:00.00 237672 N 0 0 0
0:00:00.00 238000 N 0 0 0
0:00:00.00 238318 N 0 0 0
0:00:00.00 238631 N 0 0 0
0:00:00.00 238968 N 0 0 0
0:00:00.00 239301 N 0 0 0
0:00:00.00 239634 N 0 0 0
0:00:00.00 239958 N 0 0 0
0:00:00.00 240325 N 0 0 0
0:00:00.00 240678 N 0 0 0
0:00:00.00 241007 N 0 0 0
0:00:00.00 241360 N 0 0 0
0:00:00.00 241720 N 0 0 0
0:00:00.00 242050 N 0 0 0
0:00:00.00 242401 N 0 0 0
0:00:00.00 242757 N 0 0 0
0:00:00.00 243090 N 0 0 0
0:00:00.00 243450 N 0 0 0
0:00:00.00 243806 N 0 0 0
0:00:00.00 244130 N 0 0 0
0:00:00.00 244476 N 0 0 0
0:00:00.00 244818 N 0 0 0
0:00:00.00 245140 N 0 0 0
0:00:00.00 245464 N 0 0 0
0:00:00.00 245812 N 0 0 0
0:00:00.00 246143 N 0 0 0
0:00:00.00 246463 N 0 0 0
0:00:00.00 246809 N 0 0 0
0:00:00.00 247156 N 0 0 0
0:00:00.00 247469 N 0 0 0
0:00:00.00 247820 N 0 0 0
0:00:00.00 248159 N 0 0 0
0:00:00.00 248481 N 0 0 0
0:00:00.00 248818 N 0 0 0
0:00:00.00 249158 N 0 0 0
0:00:00.00 249471 N 0 0 0
0:00:00.00 249813 N 0 0 0
0:00:00.00 250151 N 0 0 0
0:00:00.00 250474 N 0 0 0
0:00:00.00 250810 N 0 0 0
0:00:00.00 251161 N 0 0 0
0:00:00.00 251478 N 0 0 0
0:00:00.00 251806 N 0 0 0
0:00:00.00 252142 N 0 0 0
0:00:00.00 252486 N 0 0 0
0:00:00.00 252808 N 0 0 0
0:00:00.00 253172 N 0 0 0
0:00:00.00 253521 N 0 0 0
0:00:00.00 253856 N 0 0 0
0:00:00.00 254196 N 0 0 0
0:00:00.00 254545 N 0 0 0
0:00:00.00 254876 N 0 0 0
0:00:00.00 255218 N 0 0 0
0:00:00.00 255560 N 0 0 0
0:00:00.00 255890 N 0 0 0
0:00:00.00 256232 N 0 0 0
0:00:00.00 256561 N 0 0 0
0:00:00.00 257204 N 0 0 0
0:00:00.00 257522 N 0 0 0
0:00:00.00 257841 N 0 0 0
0:00:00.00 258170 N 0 0 0
0:00:00.00 258509 N 0 0 0
0:00:00.00 258835 N 0 0 0
0:00:00.00 259195 N 0 0 0
0:00:00.00 259553 N 0 0 0
0:00:00.00 259893 N 0 0 0
0:00:00.00 260240 N 0 0 0
0:00:00.00 260593 N 0 0 0
0:00:00.00 260937 N 0 0 0
0:00:00.00 261277 N 0 0 0
0:00:00.00 261626 N 0 0 0
0:00:00.00 261965 N 0 0 0
0:00:00.00 262287 N 0 0 0
0:00:00.00 262631 N 0 0 0
0:00:00.00 262962 N 0 0 0
0:00:00.00 263273 N 0 0 0
0:00:00.00 263626 N 0 0 0
0:00:00.00 263968 N 0 0 0
0:00:00.00 264276 N 0 0 0
0:00:00.00 264622 N 0 0 0
0:00:00.00 264974 N 0 0 0
0:00:00.00 265309 N 0 0 0
0:00:00.00 265653 N 0 0 0
0:00:00.00 266002 N 0 0 0
0:00:00.00 266344 N 0 0 0
0:00:00.00 266684 N 0 0 0
0:00:00.00 267050 N 0 0 0
0:00:00.00 267404 N 0 0 0
0:00:00.00 267752 N 0 0 0
0:00:00.00 268110 N 0 0 0
0:00:00.00 268452 N 0 0 0
0:00:00.00 268790 N 0 0 0
0:00:00.00 269132 N 0 0 0
0:00:00.00 269469 N 0 0 0
0:00:00.00 269786 N 0 0 0
0:00:00.00 270115 N 0 0 0
0:00:00.00 270443 N 0 0 0
0:00:00.00 270758 N 0 0 0
0:00:00.00 271085 N 0 0 0
0:00:00.00 271408 N 0 0 0
0:00:00.00 271724 N 0 0 0
0:00:00.00 272052 N 0 0 0
0:00:00.00 272392 N 0 0 0
0:00:00.00 272714 N 0 0 0
0:00:00.00 273085 N 0 0 0
0:00:00.00 273438 N 0 0 0
0:00:00.00 273785 N 0 0 0
0:00:00.00 274135 N 0 0 0
0:00:00.00 274486 N 0 0 0
0:00:00.00 274817 N 0 0 0
0:00:00.00 275164 N 0 0 0
0:00:00.00 275488 N 0 0 0
0:00:00.00 275805 N 0 0 0
0:00:00.00 276133 N 0 0 0
0:00:00.00 276467 N 0 0 0
0:00:00.00 276788 N 0 0 0
0:00:00.00 277151 N 0 0 0
0:00:00.00 277515 N 0 0 0
0:00:00.00 277866 N 0 0 0
0:00:00.00 278224 N 0 0 0
0:00:00.00 278595 N 0 0 0
0:00:00.00 278955 N 0 0 0
0:00:00.00 279284 N 0 0 0
0:00:00.00 279632 N 0 0 0
0:00:00.00 279990 N 0 0 0
0:00:00.00 280323 N 0 0 0
0:00:00.00 280665 N 0 0 0
0:00:00.00 281014 N 0 0 0
0:00:00.00 281345 N 0 0 0
0:00:00.00 281682 N 0 0 0
0:00:00.00 282017 N 0 0 0
0:00:00.00 282350 N 0 0 0
0:00:00.00 282676 N 0 0 0
0:00:00.00 283037 N 0 0 0
0:00:00.00 283390 N 0 0 0
0:00:00.00 283732 N 0 0 0
0:00:00.00 284081 N 0 0 0
0:00:00.00 284429 N 0 0 0
0:00:00.00 284764 N 0 0 0
0:00:00.00 285115 N 0 0 0
0:00:00.00 285457 N 0 0 0
0:00:00.00 285786 N 0 0 0
0:00:00.00 286112 N 0 0 0
0:00:00.00 286450 N 0 0 0
0:00:00.00 286772 N 0 0 0
0:00:00.00 287107 N 0 0 0
0:00:00.00 287446 N 0 0 0
0:00:00.00 287768 N 0 0 0
0:00:00.00 288383 N 0 0 0
0:00:00.00 288999 N 0 0 0
0:00:00.00 289636 N 0 0 0
0:00:00.00 290250 N 0 0 0
0:00:00.00 290882 N 0 0 0
0:00:00.00 291488 N 0 0 0
0:00:00.00 292081 N 0 0 0
0:00:00.00 292657 N 0 0 0
0:00:00.00 293229 N 0 0 0
0:00:00.00 293818 N 0 0 0
0:00:00.00 294386 N 0 0 0
0:00:00.00 294989 N 0 0 0
0:00:00.00 295578 N 0 0 0
0:00:00.00 296159 N 0 0 0
0:00:00.00 296743 N 0 0 0
0:00:00.00 297322 N 0 0 0
0:00:00.00 297918 N 0 0 0
0:00:00.00 298519 N 0 0 0
0:00:00.00 299108 N 0 0 0
0:00:00.00 299698 N 0 0 0
0:00:00.00 300271 N 0 0 0
0:00:00.00 300829 N 0 0 0
0:00:00.00 301419 N 0 0 0
0:00:00.00 301991 N 0 0 0
0:00:00.00 302593 N 0 0 0
0:00:00.00 303183 N 0 0 0
0:00:00.00 303818 N 0 0 0
0:00:00.00 304429 N 0 0 0
0:00:00.00 305037 N 0 0 0
0:00:00.00 305636 N 0 0 0
0:00:00.00 306216 N 0 0 0
0:00:00.00 306817 N 0 0 0
0:00:00.00 307397 N 0 0 0
0:00:00.00 307973 N 0 0 0
0:00:00.00 308570 N 0 0 0
0:00:00.00 309175 N 0 0 0
0:00:00.00 309798 N 0 0 0
0:00:00.00 310385 N 0 0 0
0:00:00.00 311004 N 0 0 0
0:00:00.00 311602 N 0 0 0
0:00:00.00 312230 N 0 0 0
0:00:00.00 312844 N 0 0 0
0:00:00.00 313461 N 0 0 0
0:00:00.00 314069 N 0 0 0
0:00:00.00 314647 N 0 0 0
0:00:00.00 315239 N 0 0 0
0:00:00.00 315824 N 0 0 0
0:00:00.00 316431 N 0 0 0
0:00:00.00 317034 N 0 0 0
0:00:00.00 317641 N 0 0 0
0:00:00.00 318254 N 0 0 0
0:00:00.00 318866 N 0 0 0
0:00:00.00 319460 N 0 0 0
0:00:00.00 320056 N 0 0 0
0:00:00.00 320666 N 0 0 0
0:00:00.00 321286 N 0 0 0
0:00:00.00 321885 N 0 0 0
0:00:00.00 322490 N 0 0 0
0:00:00.00 323089 N 0 0 0
0:00:00.00 323714 N 0 0 0
0:00:00.00 324308 N 0 0 0
0:00:00.00 324938 N 0 0 0
0:00:00.00 325559 N 0 0 0
0:00:00.00 326144 N 0 0 0
0:00:00.00 326749 N 0 0 0
0:00:00.00 327343 N 0 0 0
0:00:00.00 327940 N 0 0 0
0:00:00.00 328543 N 0 0 0
0:00:00.00 329132 N 0 0 0
0:00:00.00 329733 N 0 0 0
0:00:00.00 330343 N 0 0 0
0:00:00.00 330944 N 0 0 0
0:00:00.00 331555 N 0 0 0
0:00:00.00 332156 N 0 0 0
0:00:00.00 332752 N 0 0 0
0:00:00.00 333353 N 0 0 0
0:00:00.00 333932 N 0 0 0
0:00:00.00 334534 N 0 0 0
0:00:00.00 335117 N 0 0 0
0:00:00.00 335740 N 0 0 0
0:00:00.00 336337 N 0 0 0
0:00:00.00 336944 N 0 0 0
0:00:00.00 337552 N 0 0 0
0:00:00.00 338175 N 0 0 0
0:00:00.00 338778 N 0 0 0
0:00:00.00 339406 N 0 0 0
0:00:00.00 340016 N 0 0 0
0:00:00.00 340616 N 0 0 0
0:00:00.00 341195 N 0 0 0
0:00:00.00 341788 N 0 0 0
0:00:00.00 342391 N 0 0 0
0:00:00.00 342994 N 0 0 0
0:00:00.00 343622 N 0 0 0
0:00:00.00 344218 N 0 0 0
0:00:00.00 344819 N 0 0 0
0:00:00.00 345420 N 0 0 0
0:00:00.00 346021 N 0 0 0
0:00:00.00 346606 N 0 0 0
0:00:00.00 347211 N 0 0 0
0:00:00.00 347819 N 0 0 0
0:00:00.00 348422 N 0 0 0
0:00:00.00 349027 N 0 0 0
0:00:00.00 349632 N 0 0 0
0:00:00.00 350244 N 0 0 0
0:00:00.00 350834 N 0 0 0
0:00:00.00 351432 N 0 0 0
0:00:00.00 351994 N 0 0 0
0:00:00.00 352586 N 0 0 0
0:00:00.00 353155 N 0 0 0
0:00:00.00 353747 N 0 0 0
0:00:00.00 354362 N 0 0 0
0:00:00.00 354942 N 0 0 0
0:00:00.00 355549 N 0 0 0
0:00:00.00 356128 N 0 0 0
0:00:00.00 356710 N 0 0 0
0:00:00.00 357300 N 0 0 0
0:00:00.00 357880 N 0 0 0
0:00:00.00 358490 N 0 0 0
0:00:00.00 359091 N 0 0 0
0:00:00.00 359721 N 0 0 0
0:00:00.00 360342 N 0 0 0
0:00:00.00 360967 N 0 0 0
0:00:00.00 361586 N 0 0 0
0:00:00.00 362174 N 0 0 0
0:00:00.00 362765 N 0 0 0
0:00:00.00 363359 N 0 0 0
0:00:00.00 363962 N 0 0 0
0:00:00.00 364554 N 0 0 0
0:00:00.00 365161 N 0 0 0
0:00:00.00 365753 N 0 0 0
0:00:00.00 366354 N 0 0 0
0:00:00.00 366950 N 0 0 0
0:00:00.00 367544 N 0 0 0
0:00:00.00 368147 N 0 0 0
0:00:00.00 368753 N 0 0 0
0:00:00.00 369362 N 0 0 0
0:00:00.00 369970 N 0 0 0
0:00:00.00 370589 N 0 0 0
0:00:00.00 371230 N 0 0 0
0:00:00.00 371819 N 0 0 0
0:00:00.00 372445 N 0 0 0
0:00:00.00 373023 N 0 0 0
0:00:00.00 373610 N 0 0 0
0:00:00.00 374211 N 0 0 0
0:00:00.00 374825 N 0 0 0
0:00:00.00 375458 N 0 0 0
0:00:00.00 376065 N 0 0 0
0:00:00.00 376382 N 0 0 0
0:00:00.00 376681 N 0 0 0
0:00:00.00 377032 N 0 0 0
0:00:00.00 377374 N 0 0 0
0:00:00.00 377692 N 0 0 0
0:00:00.00 378072 N 0 0 0
0:00:00.00 378457 N 0 0 0
0:00:00.00 378819 N 0 0 0
0:00:00.00 379219 N 0 0 0
0:00:00.00 379580 N 0 0 0
0:00:00.00 379935 N 0 0 0
0:00:00.00 380302 N 0 0 0
0:00:00.00 380648 N 0 0 0
0:00:00.00 380993 N 0 0 0
0:00:00.00 381353 N 0 0 0
0:00:00.00 381697 N 0 0 0
0:00:00.00 382030 N 0 0 0
0:00:00.00 382369 N 0 0 0
0:00:00.00 382707 N 0 0 0
0:00:00.00 383042 N 0 0 0
0:00:00.00 383382 N 0 0 0
0:00:00.00 383726 N 0 0 0
0:00:00.00 384044 N 0 0 0
0:00:00.00 384403 N 0 0 0
0:00:00.00 384757 N 0 0 0
0:00:00.00 385103 N 0 0 0
0:00:00.00 385450 N 0 0 0
0:00:00.00 385801 N 0 0 0
0:00:00.00 386132 N 0 0 0
0:00:00.00 386494 N 0 0 0
0:00:00.00 386852 N 0 0 0
0:00:00.00 387198 N 0 0 0
0:00:00.00 387553 N 0 0 0
0:00:00.00 387900 N 0 0 0
0:00:00.00 388228 N 0 0 0
0:00:00.00 388566 N 0 0 0
0:00:00.00 388892 N 0 0 0
0:00:00.00 389210 N 0 0 0
0:00:00.00 389531 N 0 0 0
0:00:00.00 389860 N 0 0 0
0:00:00.00 390182 N 0 0 0
0:00:00.00 390533 N 0 0 0
0:00:00.00 390904 N 0 0 0
0:00:00.00 391250 N 0 0 0
0:00:00.00 391604 N 0 0 0
0:00:00.00 391970 N 0 0 0
0:00:00.00 392315 N 0 0 0
0:00:00.00 392663 N 0 0 0
0:00:00.00 393032 N 0 0 0
0:00:00.00 393363 N 0 0 0
0:00:00.00 393710 N 0 0 0
0:00:00.00 394072 N 0 0 0
0:00:00.00 394416 N 0 0 0
0:00:00.00 394774 N 0 0 0
0:00:00.00 395152 N 0 0 0
0:00:00.00 395491 N 0 0 0
0:00:00.00 395834 N 0 0 0
0:00:00.00 396173 N 0 0 0
0:00:00.00 396488 N 0 0 0
0:00:00.00 396824 N 0 0 0
0:00:00.00 397166 N 0 0 0
0:00:00.00 397478 N 0 0 0
0:00:00.00 397825 N 0 0 0
0:00:00.00 398187 N 0 0 0
0:00:00.00 398515 N 0 0 0
0:00:00.00 398866 N 0 0 0
0:00:00.00 399247 N 0 0 0
0:00:00.00 399595 N 0 0 0
0:00:00.00 399931 N 0 0 0
0:00:00.00 400282 N 0 0 0
0:00:00.00 400626 N 0 0 0
0:00:00.00 400964 N 0 0 0
0:00:00.00 401312 N 0 0 0
0:00:00.00 401672 N 0 0 0
0:00:00.00 402008 N 0 0 0
0:00:00.00 402379 N 0 0 0
0:00:00.00 402736 N 0 0 0
0:00:00.00 403079 N 0 0 0
0:00:00.00 403416 N 0 0 0
0:00:00.00 403747 N 0 0 0
0:00:00.00 404069 N 0 0 0
0:00:00.00 404410 N 0 0 0
0:00:00.00 404750 N 0 0 0
0:00:00.00 405065 N 0 0 0
0:00:00.00 405391 N 0 0 0
0:00:00.00 405727 N 0 0 0
0:00:00.00 406053 N 0 0 0
0:00:00.00 406388 N 0 0 0
0:00:00.00 406757 N 0 0 0
0:00:00.00 407108 N 0 0 0
0:00:00.00 407434 N 0 0 0
0:00:00.00 407779 N 0 0 0
0:00:00.00 408127 N 0 0 0
0:00:00.00 408438 N 0 0 0
0:00:00.00 408787 N 0 0 0
0:00:00.00 409129 N 0 0 0
0:00:00.00 409444 N 0 0 0
0:00:00.00 409754 N 0 0 0
0:00:00.00 410085 N 0 0 0
0:00:00.00 410404 N 0 0 0
0:00:00.00 410729 N 0 0 0
0:00:00.00 411077 N 0 0 0
0:00:00.00 411431 N 0 0 0
0:00:00.00 411770 N 0 0 0
0:00:00.00 412146 N 0 0 0
0:00:00.00 412495 N 0 0 0
0:00:00.00 412846 N 0 0 0
0:00:00.00 413197 N 0 0 0
0:00:00.00 413546 N 0 0 0
0:00:00.00 413876 N 0 0 0
0:00:00.00 414225 N 0 0 0
0:00:00.00 414576 N 0 0 0
0:00:00.00 414918 N 0 0 0
0:00:00.00 415269 N 0 0 0
0:00:00.00 415615 N 0 0 0
0:00:00.00 415946 N 0 0 0
0:00:00.00 416295 N 0 0 0
0:00:00.00 416637 N 0 0 0
0:00:00.00 416970 N 0 0 0
0:00:00.00 417310 N 0 0 0
0:00:00.00 417661 N 0 0 0
0:00:00.00 418010 N 0 0 0
0:00:00.00 418336 N 0 0 0
0:00:00.00 418675 N 0 0 0
0:00:00.00 419033 N 0 0 0
0:00:00.00 419350 N 0 0 0
0:00:00.00 419706 N 0 0 0
0:00:00.00 420091 N 0 0 0
0:00:00.00 420428 N 0 0 0
0:00:00.00 420820 N 0 0 0
0:00:00.00 421191 N 0 0 0
0:00:00.00 421533 N 0 0 0
0:00:00.00 421873 N 0 0 0
0:00:00.00 422212 N 0 0 0
0:00:00.00 422528 N 0 0 0
0:00:00.00 422892 N 0 0 0
0:00:00.00 423256 N 0 0 0
0:00:00.00 423598 N 0 0 0
0:00:00.00 423970 N 0 0 0
0:00:00.00 424334 N 0 0 0
0:00:00.00 424679 N 0 0 0
0:00:00.00 425048 N 0 0 0
0:00:00.00 425394 N 0 0 0
0:00:00.00 425723 N 0 0 0
0:00:00.00 426062 N 0 0 0
0:00:00.00 426393 N 0 0 0
0:00:00.00 426731 N 0 0 0
0:00:00.00 427068 N 0 0 0
0:00:00.00 427405 N 0 0 0
0:00:00.00 427765 N 0 0 0
0:00:00.00 428119 N 0 0 0
0:00:00.00 428461 N 0 0 0
0:00:00.00 428830 N 0 0 0
0:00:00.00 429181 N 0 0 0
0:00:00.00 429509 N 0 0 0
0:00:00.00 429872 N 0 0 0
0:00:00.00 430236 N 0 0 0
0:00:00.00 430583 N 0 0 0
0:00:00.00 430974 N 0 0 0
0:00:00.00 431350 N 0 0 0
0:00:00.00 431708 N 0 0 0
0:00:00.00 432070 N 0 0 0
0:00:00.00 432414 N 0 0 0
0:00:00.00 432752 N 0 0 0
0:00:00.00 433067 N 0 0 0
0:00:00.00 433390 N 0 0 0
0:00:00.00 433696 N 0 0 0
0:00:00.00 434290 N 0 0 0
0:00:00.00 434896 N 0 0 0
0:00:00.00 435478 N 0 0 0
0:00:00.00 436072 N 0 0 0
0:00:00.00 436669 N 0 0 0
0:00:00.00 437265 N 0 0 0
0:00:00.00 437879 N 0 0 0
0:00:00.00 438487 N 0 0 0
0:00:00.00 439085 N 0 0 0
0:00:00.00 439691 N 0 0 0
0:00:00.00 440278 N 0 0 0
0:00:00.00 440903 N 0 0 0
0:00:00.00 441484 N 0 0 0
0:00:00.00 442096 N 0 0 0
0:00:00.00 442692 N 0 0 0
0:00:00.00 443284 N 0 0 0
0:00:00.00 443873 N 0 0 0
0:00:00.00 444440 N 0 0 0
0:00:00.00 445021 N 0 0 0
0:00:00.00 445604 N 0 0 0
0:00:00.00 446189 N 0 0 0
0:00:00.00 446773 N 0 0 0
0:00:00.00 447350 N 0 0 0
0:00:00.00 447961 N 0 0 0
0:00:00.00 448587 N 0 0 0
0:00:00.00 448895 N 0 0 0
0:00:00.00 449203 N 0 0 0
0:00:00.00 449570 N 0 0 0
0:00:00.00 449946 N 0 0 0
0:00:00.00 450302 N 0 0 0
0:00:00.00 450731 N 0 0 0
0:00:00.00 451125 N 0 0 0
0:00:00.00 451494 N 0 0 0
0:00:00.00 451861 N 0 0 0
0:00:00.00 452201 N 0 0 0
0:00:00.00 452556 N 0 0 0
0:00:00.00 452905 N 0 0 0
0:00:00.00 453253 N 0 0 0
0:00:00.00 453582 N 0 0 0
0:00:00.00 453908 N 0 0 0
0:00:00.00 454226 N 0 0 0
0:00:00.00 454579 N 0 0 0
0:00:00.00 454919 N 0 0 0
0:00:00.00 455254 N 0 0 0
0:00:00.00 455620 N 0 0 0
0:00:00.00 455976 N 0 0 0
0:00:00.00 456316 N 0 0 0
0:00:00.00 456674 N 0 0 0
0:00:00.00 457011 N 0 0 0
0:00:00.00 457333 N 0 0 0
0:00:00.00 457684 N 0 0 0
0:00:00.00 458003 N 0 0 0
0:00:00.00 458329 N 0 0 0
0:00:00.00 458649 N 0 0 0
0:00:00.00 459216 N 0 0 0
0:00:00.00 459288 N 0 0 0
0:00:00.00 459833 N 0 0 0
0:00:00.00 460420 N 0 0 0
0:00:00.00 461003 N 0 0 0
0:00:00.00 461597 N 0 0 0
0:00:00.00 462177 N 0 0 0
0:00:00.00 462766 N 0 0 0
0:00:00.00 463358 N 0 0 0
0:00:00.00 463959 N 0 0 0
0:00:00.00 464566 N 0 0 0
0:00:00.00 465165 N 0 0 0
0:00:00.00 465777 N 0 0 0
0:00:00.00 466375 N 0 0 0
0:00:00.00 466943 N 0 0 0
0:00:00.00 467523 N 0 0 0
0:00:00.00 468110 N 0 0 0
0:00:00.00 468711 N 0 0 0
0:00:00.00 469325 N 0 0 0
0:00:00.00 469946 N 0 0 0
0:00:00.00 470594 N 0 0 0
0:00:00.00 471208 N 0 0 0
0:00:00.00 471839 N 0 0 0
0:00:00.00 472448 N 0 0 0
0:00:00.00 473022 N 0 0 0
0:00:00.00 473636 N 0 0 0
0:00:00.00 474224 N 0 0 0
0:00:00.00 474809 N 0 0 0
0:00:00.00 475414 N 0 0 0
0:00:00.00 476006 N 0 0 0
0:00:00.00 476613 N 0 0 0
0:00:00.00 477211 N 0 0 0
0:00:00.00 477803 N 0 0 0
0:00:00.00 478400 N 0 0 0
0:00:00.00 479014 N 0 0 0
0:00:00.00 479630 N 0 0 0
0:00:00.00 480226 N 0 0 0
0:00:00.00 480850 N 0 0 0
0:00:00.00 481468 N 0 0 0
0:00:00.00 482067 N 0 0 0
0:00:00.00 482692 N 0 0 0
0:00:00.00 483289 N 0 0 0
0:00:00.00 483930 N 0 0 0
0:00:00.00 484535 N 0 0 0
0:00:00.00 485141 N 0 0 0
0:00:00.00 485741 N 0 0 0
0:00:00.00 486342 N 0 0 0
0:00:00.00 486920 N 0 0 0
0:00:00.00 487510 N 0 0 0
0:00:00.00 488070 N 0 0 0
0:00:00.00 488673 N 0 0 0
0:00:00.00 489267 N 0 0 0
0:00:00.00 489886 N 0 0 0
0:00:00.00 490504 N 0 0 0
0:00:00.00 491121 N 0 0 0
0:00:00.00 491747 N 0 0 0
0:00:00.00 492358 N 0 0 0
0:00:00.00 492989 N 0 0 0
0:00:00.00 493596 N 0 0 0
0:00:00.00 494215 N 0 0 0
0:00:00.00 494820 N 0 0 0
0:00:00.00 495416 N 0 0 0
0:00:00.00 496013 N 0 0 0
0:00:00.00 496595 N 0 0 0
0:00:00.00 497205 N 0 0 0
0:00:00.00 497804 N 0 0 0
0:00:00.00 498440 N 0 0 0
0:00:00.00 499066 N 0 0 0
0:00:00.00 499687 N 0 0 0
0:00:00.00 500292 N 0 0 0
0:00:00.00 500897 N 0 0 0
0:00:00.00 501507 N 0 0 0
0:00:00.00 502101 N 0 0 0
0:00:00.00 502691 N 0 0 0
0:00:00.00 503269 N 0 0 0
0:00:00.00 503854 N 0 0 0
0:00:00.00 504450 N 0 0 0
0:00:00.00 505087 N 0 0 0
0:00:00.00 505683 N 0 0 0
0:00:00.00 506324 N 0 0 0
0:00:00.00 506956 N 0 0 0
0:00:00.00 507566 N 0 0 0
0:00:00.00 507904 N 0 0 0
0:00:00.00 508214 N 0 0 0
0:00:00.00 508532 N 0 0 0
0:00:00.00 508882 N 0 0 0
0:00:00.00 509211 N 0 0 0
0:00:00.00 509539 N 0 0 0
0:00:00.00 509888 N 0 0 0
0:00:00.00 510217 N 0 0 0
0:00:00.00 510565 N 0 0 0
0:00:00.00 510937 N 0 0 0
0:00:00.00 511277 N 0 0 0
0:00:00.00 511636 N 0 0 0
0:00:00.00 512005 N 0 0 0
0:00:00.00 512347 N 0 0 0
0:00:00.00 512708 N 0 0 0
0:00:00.00 513076 N 0 0 0
0:00:00.00 513412 N 0 0 0
0:00:00.00 513760 N 0 0 0
0:00:00.00 514112 N 0 0 0
0:00:00.00 514435 N 0 0 0
0:00:00.00 514787 N 0 0 0
0:00:00.00 515146 N 0 0 0
0:00:00.00 515480 N 0 0 0
0:00:00.00 515839 N 0 0 0
0:00:00.00 516200 N 0 0 0
0:00:00.00 516548 N 0 0 0
0:00:00.00 516906 N 0 0 0
0:00:00.00 517277 N 0 0 0
0:00:00.00 517624 N 0 0 0
0:00:00.00 517997 N 0 0 0
0:00:00.00 518353 N 0 0 0
0:00:00.00 518715 N 0 0 0
0:00:00.00 519064 N 0 0 0
0:00:00.00 519412 N 0 0 0
0:00:00.00 519781 N 0 0 0
0:00:00.00 520119 N 0 0 0
0:00:00.00 520481 N 0 0 0
0:00:00.00 520835 N 0 0 0
0:00:00.00 521194 N 0 0 0
0:00:00.00 521557 N 0 0 0
0:00:00.00 521912 N 0 0 0
0:00:00.00 522274 N 0 0 0
0:00:00.00 522637 N 0 0 0
0:00:00.00 522997 N 0 0 0
0:00:00.00 523359 N 0 0 0
0:00:00.00 523730 N 0 0 0
0:00:00.00 524081 N 0 0 0
0:00:00.00 524435 N 0 0 0
0:00:00.00 524795 N 0 0 0
0:00:00.00 525137 N 0 0 0
0:00:00.00 525512 N 0 0 0
0:00:00.00 525892 N 0 0 0
0:00:00.00 526235 N 0 0 0
0:00:00.00 526601 N 0 0 0
0:00:00.00 526977 N 0 0 0
0:00:00.00 527328 N 0 0 0
0:00:00.00 527693 N 0 0 0
0:00:00.00 528044 N 0 0 0
0:00:00.00 528379 N 0 0 0
0:00:00.00 528743 N 0 0 0
0:00:00.00 529105 N 0 0 0
0:00:00.00 529438 N 0 0 0
0:00:00.00 529803 N 0 0 0
0:00:00.00 530152 N 0 0 0
0:00:00.00 530480 N 0 0 0
0:00:00.00 530829 N 0 0 0
0:00:00.00 531173 N 0 0 0
0:00:00.00 531488 N 0 0 0
0:00:00.00 531837 N 0 0 0
0:00:00.00 532177 N 0 0 0
0:00:00.00 532494 N 0 0 0
0:00:00.00 532852 N 0 0 0
0:00:00.00 533198 N 0 0 0
0:00:00.00 533520 N 0 0 0
0:00:00.00 533871 N 0 0 0
0:00:00.00 534215 N 0 0 0
0:00:00.00 534542 N 0 0 0
0:00:00.00 534899 N 0 0 0
0:00:00.00 535239 N 0 0 0
0:00:00.00 535568 N 0 0 0
0:00:00.00 535937 N 0 0 0
0:00:00.00 536288 N 0 0 0
0:00:00.00 536616 N 0 0 0
0:00:00.00 536980 N 0 0 0
0:00:00.00 537318 N 0 0 0
0:00:00.00 537658 N 0 0 0
0:00:00.00 538000 N 0 0 0
0:00:00.00 538378 N 0 0 0
0:00:00.00 538727 N 0 0 0
0:00:00.00 539082 N 0 0 0
0:00:00.00 539447 N 0 0 0
0:00:00.00 539804 N 0 0 0
0:00:00.00 540149 N 0 0 0
0:00:00.00 540526 N 0 0 0
0:00:00.00 540878 N 0 0 0
0:00:00.00 541256 N 0 0 0
0:00:00.00 541649 N 0 0 0
0:00:00.00 542005 N 0 0 0
0:00:00.00 542369 N 0 0 0
0:00:00.00 542743 N 0 0 0
0:00:00.00 543091 N 0 0 0
0:00:00.00 543458 N 0 0 0
0:00:00.00 543809 N 0 0 0
0:00:00.00 544138 N 0 0 0
0:00:00.00 544498 N 0 0 0
0:00:00.00 544864 N 0 0 0
0:00:00.00 545206 N 0 0 0
0:00:00.00 545593 N 0 0 0
0:00:00.00 545962 N 0 0 0
0:00:00.00 546304 N 0 0 0
0:00:00.00 546680 N 0 0 0
0:00:00.00 547016 N 0 0 0
0:00:00.00 547355 N 0 0 0
0:00:00.00 547718 N 0 0 0
0:00:00.00 548057 N 0 0 0
0:00:00.00 548392 N 0 0 0
0:00:00.00 548744 N 0 0 0
0:00:00.00 549086 N 0 0 0
0:00:00.00 549439 N 0 0 0
0:00:00.00 549812 N 0 0 0
0:00:00.00 550188 N 0 0 0
0:00:00.00 550537 N 0 0 0
0:00:00.00 550917 N 0 0 0
0:00:00.00 551304 N 0 0 0
0:00:00.00 551655 N 0 0 0
0:00:00.00 552029 N 0 0 0
0:00:00.00 552398 N 0 0 0
0:00:00.00 552740 N 0 0 0
0:00:00.00 553097 N 0 0 0
0:00:00.00 553453 N 0 0 0
0:00:00.00 553779 N 0 0 0
0:00:00.00 554126 N 0 0 0
0:00:00.00 554477 N 0 0 0
0:00:00.00 554819 N 0 0 0
0:00:00.00 555163 N 0 0 0
0:00:00.00 555536 N 0 0 0
0:00:00.00 555867 N 0 0 0
0:00:00.00 556195 N 0 0 0
0:00:00.00 556533 N 0 0 0
0:00:00.00 556848 N 0 0 0
0:00:00.00 557188 N 0 0 0
0:00:00.00 557559 N 0 0 0
0:00:00.00 557879 N 0 0 0
0:00:00.00 558247 N 0 0 0
0:00:00.00 558626 N 0 0 0
0:00:00.00 558961 N 0 0 0
0:00:00.00 559336 N 0 0 0
0:00:00.00 559672 N 0 0 0
0:00:00.00 560000 N 0 0 0
0:00:00.00 560320 N 0 0 0
0:00:00.00 560673 N 0 0 0
0:00:00.00 560990 N 0 0 0
0:00:00.00 561348 N 0 0 0
0:00:00.00 561697 N 0 0 0
0:00:00.00 562021 N 0 0 0
0:00:00.00 562390 N 0 0 0
0:00:00.00 562772 N 0 0 0
0:00:00.00 563103 N 0 0 0
0:00:00.00 563494 N 0 0 0
0:00:00.00 563850 N 0 0 0
0:00:00.00 564188 N 0 0 0
0:00:00.00 564565 N 0 0 0
0:00:00.00 564910 N 0 0 0
0:00:00.00 565250 N 0 0 0
0:00:00.00 565591 N 0 0 0
0:00:00.00 565913 N 0 0 0
0:00:00.00 566235 N 0 0 0
0:00:00.00 566584 N 0 0 0
0:00:00.00 566921 N 0 0 0
0:00:00.00 567261 N 0 0 0
0:00:00.00 567623 N 0 0 0
0:00:00.00 567976 N 0 0 0
0:00:00.00 568309 N 0 0 0
0:00:00.00 568688 N 0 0 0
0:00:00.00 569041 N 0 0 0
0:00:00.00 569389 N 0 0 0
0:00:00.00 569749 N 0 0 0
0:00:00.00 570094 N 0 0 0
0:00:00.00 570434 N 0 0 0
0:00:00.00 570784 N 0 0 0
0:00:00.00 571140 N 0 0 0
0:00:00.00 571469 N 0 0 0
0:00:00.00 571808 N 0 0 0
0:00:00.00 572146 N 0 0 0
0:00:00.00 572468 N 0 0 0
0:00:00.00 572814 N 0 0 0
0:00:00.00 573170 N 0 0 0
0:00:00.00 573491 N 0 0 0
0:00:00.00 573845 N 0 0 0
0:00:00.00 574195 N 0 0 0
0:00:00.00 574533 N 0 0 0
0:00:00.00 574880 N 0 0 0
0:00:00.00 575240 N 0 0 0
0:00:00.00 575575 N 0 0 0
0:00:00.00 575933 N 0 0 0
0:00:00.00 576310 N 0 0 0
0:00:00.00 576652 N 0 0 0
0:00:00.00 577012 N 0 0 0
0:00:00.00 577370 N 0 0 0
0:00:00.00 577694 N 0 0 0
0:00:00.00 578030 N 0 0 0
0:00:00.00 578356 N 0 0 0
0:00:00.00 578986 N 0 0 0
0:00:00.00 579314 N 0 0 0
0:00:00.00 579614 N 0 0 0
0:00:00.00 579955 N 0 0 0
0:00:00.00 580302 N 0 0 0
0:00:00.00 580621 N 0 0 0
0:00:00.00 580981 N 0 0 0
0:00:00.00 581357 N 0 0 0
0:00:00.00 581697 N 0 0 0
0:00:00.00 582055 N 0 0 0
0:00:00.00 582419 N 0 0 0
0:00:00.00 582752 N 0 0 0
0:00:00.00 583115 N 0 0 0
0:00:00.00 583459 N 0 0 0
0:00:00.00 583794 N 0 0 0
0:00:00.00 584161 N 0 0 0
0:00:00.00 584516 N 0 0 0
0:00:00.00 584842 N 0 0 0
0:00:00.00 585187 N 0 0 0
0:00:00.00 585515 N 0 0 0
0:00:00.00 585832 N 0 0 0
0:00:00.00 586174 N 0 0 0
0:00:00.00 586516 N 0 0 0
0:00:00.00 586838 N 0 0 0
0:00:00.00 587198 N 0 0 0
0:00:00.00 587543 N 0 0 0
0:00:00.00 587878 N 0 0 0
0:00:00.00 588251 N 0 0 0
0:00:00.00 588600 N 0 0 0
0:00:00.00 588947 N 0 0 0
0:00:00.00 589302 N 0 0 0
0:00:00.00 589651 N 0 0 0
0:00:00.00 589984 N 0 0 0
0:00:00.00 590348 N 0 0 0
0:00:00.00 590692 N 0 0 0
0:00:00.00 591032 N 0 0 0
0:00:00.00 591376 N 0 0 0
0:00:00.00 591712 N 0 0 0
0:00:00.00 592042 N 0 0 0
0:00:00.00 592376 N 0 0 0
0:00:00.00 592715 N 0 0 0
0:00:00.00 593048 N 0 0 0
0:00:00.00 593395 N 0 0 0
0:00:00.00 593752 N 0 0 0
0:00:00.00 594085 N 0 0 0
0:00:00.00 594430 N 0 0 0
0:00:00.00 594792 N 0 0 0
0:00:00.00 595132 N 0 0 0
0:00:00.00 595462 N 0 0 0
0:00:00.00 595831 N 0 0 0
0:00:00.00 596200 N 0 0 0
0:00:00.00 596536 N 0 0 0
0:00:00.00 596914 N 0 0 0
0:00:00.00 597274 N 0 0 0
0:00:00.00 597611 N 0 0 0
0:00:00.00 597992 N 0 0 0
0:00:00.00 598343 N 0 0 0
0:00:00.00 598676 N 0 0 0
0:00:00.00 599026 N 0 0 0
0:00:00.00 599350 N 0 0 0
0:00:00.00 599675 N 0 0 0
0:00:00.00 600023 N 0 0 0
0:00:00.00 600365 N 0 0 0
0:00:00.00 600716 N 0 0 0
0:00:00.00 601061 N 0 0 0
0:00:00.00 601418 N 0 0 0
0:00:00.00 601756 N 0 0 0
0:00:00.00 602104 N 0 0 0
0:00:00.00 602460 N 0 0 0
0:00:00.00 602809 N 0 0 0
0:00:00.00 603160 N 0 0 0
0:00:00.00 603504 N 0 0 0
0:00:00.00 603851 N 0 0 0
0:00:00.00 604199 N 0 0 0
0:00:00.00 604535 N 0 0 0
0:00:00.00 604877 N 0 0 0
0:00:00.00 605210 N 0 0 0
0:00:00.00 605545 N 0 0 0
0:00:00.00 605876 N 0 0 0
0:00:00.00 606211 N 0 0 0
0:00:00.00 606566 N 0 0 0
0:00:00.00 606906 N 0 0 0
0:00:00.00 607252 N 0 0 0
0:00:00.00 607610 N 0 0 0
0:00:00.00 607948 N 0 0 0
0:00:00.00 608303 N 0 0 0
0:00:00.00 608670 N 0 0 0
0:00:00.00 609007 N 0 0 0
0:00:00.00 609347 N 0 0 0
0:00:00.00 609691 N 0 0 0
0:00:00.00 610034 N 0 0 0
0:00:00.00 610369 N 0 0 0
0:00:00.00 610727 N 0 0 0
0:00:00.00 611075 N 0 0 0
0:00:00.00 611408 N 0 0 0
0:00:00.00 611764 N 0 0 0
0:00:00.00 612122 N 0 0 0
0:00:00.00 612455 N 0 0 0
0:00:00.00 612815 N 0 0 0
0:00:00.00 613157 N 0 0 0
0:00:00.00 613490 N 0 0 0
0:00:00.00 613852 N 0 0 0
0:00:00.00 614207 N 0 0 0
0:00:00.00 614565 N 0 0 0
0:00:00.00 614927 N 0 0 0
0:00:00.00 615305 N 0 0 0
0:00:00.00 615665 N 0 0 0
0:00:00.00 616032 N 0 0 0
0:00:00.00 616394 N 0 0 0
0:00:00.00 616745 N 0 0 0
0:00:00.00 617092 N 0 0 0
0:00:00.00 617440 N 0 0 0
0:00:00.00 617783 N 0 0 0
0:00:00.00 618125 N 0 0 0
0:00:00.00 618484 N 0 0 0
0:00:00.00 618820 N 0 0 0
0:00:00.00 619153 N 0 0 0
0:00:00.00 619502 N 0 0 0
0:00:00.00 619841 N 0 0 0
0:00:00.00 620183 N 0 0 0
0:00:00.00 620557 N 0 0 0
0:00:00.00 620890 N 0 0 0
0:00:00.00 621241 N 0 0 0
0:00:00.00 621607 N 0 0 0
0:00:00.00 621950 N 0 0 0
0:00:00.00 622303 N 0 0 0
0:00:00.00 622672 N 0 0 0
0:00:00.00 623009 N 0 0 0
0:00:00.00 623351 N 0 0 0
0:00:00.00 623707 N 0 0 0
0:00:00.00 624053 N 0 0 0
0:00:00.00 624393 N 0 0 0
0:00:00.00 624749 N 0 0 0
0:00:00.00 625100 N 0 0 0
0:00:00.00 625435 N 0 0 0
0:00:00.00 625790 N 0 0 0
0:00:00.00 626132 N 0 0 0
0:00:00.00 626470 N 0 0 0
0:00:00.00 626805 N 0 0 0
0:00:00.00 627140 N 0 0 0
0:00:00.00 627467 N 0 0 0
0:00:00.00 627808 N 0 0 0
0:00:00.00 628159 N 0 0 0
0:00:00.00 628493 N 0 0 0
0:00:00.00 628825 N 0 0 0
0:00:00.00 629179 N 0 0 0
0:00:00.00 629552 N 0 0 0
0:00:00.00 629888 N 0 0 0
0:00:00.00 630254 N 0 0 0
0:00:00.00 630607 N 0 0 0
0:00:00.00 630931 N 0 0 0
0:00:00.00 631283 N 0 0 0
0:00:00.00 631634 N 0 0 0
0:00:00.00 631951 N 0 0 0
0:00:00.00 632300 N 0 0 0
0:00:00.00 632624 N 0 0 0
0:00:00.00 633253 N 0 0 0
0:00:00.00 633582 N 0 0 0
0:00:00.00 633893 N 0 0 0
0:00:00.00 634244 N 0 0 0
0:00:00.00 634588 N 0 0 0
0:00:00.00 634910 N 0 0 0
0:00:00.00 635265 N 0 0 0
0:00:00.00 635625 N 0 0 0
0:00:00.00 635965 N 0 0 0
0:00:00.00 636349 N 0 0 0
0:00:00.00 636710 N 0 0 0
0:00:00.00 637061 N 0 0 0
0:00:00.00 637436 N 0 0 0
0:00:00.00 637790 N 0 0 0
0:00:00.00 638136 N 0 0 0
0:00:00.00 638496 N 0 0 0
0:00:00.00 638827 N 0 0 0
0:00:00.00 639164 N 0 0 0
0:00:00.00 639515 N 0 0 0
0:00:00.00 639855 N 0 0 0
0:00:00.00 640208 N 0 0 0
0:00:00.00 640562 N 0 0 0
0:00:00.00 640924 N 0 0 0
0:00:00.00 641268 N 0 0 0
0:00:00.00 641632 N 0 0 0
0:00:00.00 641992 N 0 0 0
0:00:00.00 642348 N 0 0 0
0:00:00.00 642710 N 0 0 0
0:00:00.00 643077 N 0 0 0
0:00:00.00 643426 N 0 0 0
0:00:00.00 643777 N 0 0 0
0:00:00.00 644144 N 0 0 0
0:00:00.00 644483 N 0 0 0
0:00:00.00 644836 N 0 0 0
0:00:00.00 645176 N 0 0 0
0:00:00.00 645516 N 0 0 0
0:00:00.00 645840 N 0 0 0
0:00:00.00 646169 N 0 0 0
0:00:00.00 646803 N 0 0 0
0:00:00.00 647131 N 0 0 0
0:00:00.00 647442 N 0 0 0
0:00:00.00 647780 N 0 0 0
0:00:00.00 648126 N 0 0 0
0:00:00.00 648457 N 0 0 0
0:00:00.00 648814 N 0 0 0
0:00:00.00 649143 N 0 0 0
0:00:00.00 649503 N 0 0 0
0:00:00.00 649863 N 0 0 0
