0:00:00.00 16 N 0 0 0
0:00:00.00 101 N 0 0 0
0:00:00.00 182 N 0 0 0
0:00:00.00 261 N 0 0 0
0:00:00.00 347 N 0 0 0
0:00:00.00 425 N 0 0 0
0:00:00.00 511 N 0 0 0
0:00:00.00 738 N 0 0 0
0:00:00.00 1003 N 0 0 0
0:00:00.00 1253 N 0 0 0
0:00:00.00 1640 N 0 0 0
0:00:00.00 1712 N 0 0 0
0:00:00.00 1904 N 0 0 0
0:00:00.00 2156 N 0 0 0
0:00:00.00 2306 N 0 0 0
0:00:00.00 2831 N 0 0 0
0:00:00.00 3067 N 0 0 0
0:00:00.00 3668 N 0 0 0
0:00:00.00 3911 N 0 0 0
0:00:00.00 3987 N 0 0 0
0:00:00.00 4138 N 0 0 0
0:00:00.00 4212 N 0 0 0
0:00:00.00 4349 N 0 0 0
0:00:00.00 4514 N 0 0 0
0:00:00.00 4730 N 0 0 0
0:00:00.00 4802 N 0 0 0
0:00:00.00 5344 N 0 0 0
0:00:00.00 5585 N 0 0 0
0:00:00.00 5836 N 0 0 0
0:00:00.00 5908 N 0 0 0
0:00:00.00 6485 N 0 0 0
0:00:00.00 6721 N 0 0 0
0:00:00.00 6971 N 0 0 0
0:00:00.00 7234 N 0 0 0
0:00:00.00 7495 N 0 0 0
0:00:00.00 7744 N 0 0 0
0:00:00.00 8006 N 0 0 0
0:00:00.00 8255 N 0 0 0
0:00:00.00 8944 N 0 0 0
0:00:00.00 9893 N 0 0 0
0:00:00.00 10298 N 0 0 0
0:00:00.00 10530 N 0 0 0
0:00:00.00 10786 N 0 0 0
0:00:00.00 11452 N 0 0 0
0:00:00.00 11704 N 0 0 0
0:00:00.00 11977 N 0 0 0
0:00:00.00 12238 N 0 0 0
0:00:00.00 12492 N 0 0 0
0:00:00.00 12737 N 0 0 0
0:00:00.00 12901 N 0 0 0
0:00:00.00 13003 N 0 0 0
0:00:00.00 13253 N 0 0 0
0:00:00.00 13529 N 0 0 0
0:00:00.00 13793 N 0 0 0
0:00:00.00 14058 N 0 0 0
0:00:00.00 14321 N 0 0 0
0:00:00.00 15307 N 0 0 0
0:00:00.00 15730 N 0 0 0
0:00:00.00 15970 N 0 0 0
0:00:00.00 16225 N 0 0 0
0:00:00.00 16907 N 0 0 0
0:00:00.00 17161 N 0 0 0
0:00:00.00 17411 N 0 0 0
0:00:00.00 17687 N 0 0 0
0:00:00.00 18247 N 0 0 0
0:00:00.00 18405 N 0 0 0
0:00:00.00 18882 N 0 0 0
0:00:00.00 19130 N 0 0 0
0:00:00.00 19312 N 0 0 0
0:00:00.00 19391 N 0 0 0
0:00:00.00 19652 N 0 0 0
0:00:00.00 19908 N 0 0 0
0:00:00.00 20169 N 0 0 0
0:00:00.00 21128 N 0 0 0
0:00:00.00 21562 N 0 0 0
0:00:00.00 21807 N 0 0 0
0:00:00.00 22055 N 0 0 0
0:00:00.00 22514 N 0 0 0
0:00:00.00 22725 N 0 0 0
0:00:00.00 22968 N 0 0 0
0:00:00.00 23231 N 0 0 0
0:00:00.00 23890 N 0 0 0
0:00:00.00 24129 N 0 0 0
0:00:00.00 24386 N 0 0 0
0:00:00.00 24629 N 0 0 0
0:00:00.00 25355 N 0 0 0
0:00:00.00 26104 N 0 0 0
0:00:00.00 26811 N 0 0 0
0:00:00.00 27050 N 0 0 0
0:00:00.00 27308 N 0 0 0
0:00:00.00 27562 N 0 0 0
0:00:00.00 27823 N 0 0 0
0:00:00.00 28084 N 0 0 0
0:00:00.00 28337 N 0 0 0
0:00:00.00 28591 N 0 0 0
0:00:00.00 28852 N 0 0 0
0:00:00.00 29115 N 0 0 0
0:00:00.00 29363 N 0 0 0
0:00:00.00 30011 N 0 0 0
0:00:00.00 30258 N 0 0 0
0:00:00.00 30521 N 0 0 0
0:00:00.00 30780 N 0 0 0
0:00:00.00 31297 N 0 0 0
0:00:00.00 31538 N 0 0 0
0:00:00.00 31784 N 0 0 0
0:00:00.00 32477 N 0 0 0
0:00:00.00 32729 N 0 0 0
0:00:00.00 32996 N 0 0 0
0:00:00.00 33255 N 0 0 0
0:00:00.00 33514 N 0 0 0
0:00:00.00 33759 N 0 0 0
0:00:00.00 34308 N 0 0 0
0:00:00.00 34556 N 0 0 0
0:00:00.00 34828 N 0 0 0
0:00:00.00 35514 N 0 0 0
0:00:00.00 35752 N 0 0 0
0:00:00.00 36020 N 0 0 0
0:00:00.00 36286 N 0 0 0
0:00:00.00 36961 N 0 0 0
0:00:00.00 37201 N 0 0 0
0:00:00.00 37489 N 0 0 0
0:00:00.00 38196 N 0 0 0
0:00:00.00 38439 N 0 0 0
0:00:00.00 38691 N 0 0 0
0:00:00.00 38961 N 0 0 0
0:00:00.00 39670 N 0 0 0
0:00:00.00 39911 N 0 0 0
0:00:00.00 40171 N 0 0 0
0:00:00.00 40876 N 0 0 0
0:00:00.00 41128 N 0 0 0
0:00:00.00 41386 N 0 0 0
0:00:00.00 42071 N 0 0 0
0:00:00.00 42304 N 0 0 0
0:00:00.00 42581 N 0 0 0
0:00:00.00 43252 N 0 0 0
0:00:00.00 43499 N 0 0 0
0:00:00.00 43769 N 0 0 0
0:00:00.00 44442 N 0 0 0
0:00:00.00 44687 N 0 0 0
0:00:00.00 44948 N 0 0 0
0:00:00.00 45189 N 0 0 0
0:00:00.00 45450 N 0 0 0
0:00:00.00 45720 N 0 0 0
0:00:00.00 46397 N 0 0 0
0:00:00.00 46629 N 0 0 0
0:00:00.00 46912 N 0 0 0
0:00:00.00 47178 N 0 0 0
0:00:00.00 47439 N 0 0 0
0:00:00.00 47677 N 0 0 0
0:00:00.00 47749 N 0 0 0
0:00:00.00 47957 N 0 0 0
0:00:00.00 48215 N 0 0 0
0:00:00.00 48478 N 0 0 0
0:00:00.00 48730 N 0 0 0
0:00:00.00 49010 N 0 0 0
0:00:00.00 49874 N 0 0 0
0:00:00.00 50369 N 0 0 0
0:00:00.00 50605 N 0 0 0
0:00:00.00 50882 N 0 0 0
0:00:00.00 51136 N 0 0 0
0:00:00.00 51401 N 0 0 0
0:00:00.00 52009 N 0 0 0
0:00:00.00 52250 N 0 0 0
0:00:00.00 52528 N 0 0 0
0:00:00.00 53183 N 0 0 0
0:00:00.00 53435 N 0 0 0
0:00:00.00 53696 N 0 0 0
0:00:00.00 54349 N 0 0 0
0:00:00.00 54607 N 0 0 0
0:00:00.00 54866 N 0 0 0
0:00:00.00 55553 N 0 0 0
0:00:00.00 55798 N 0 0 0
0:00:00.00 56065 N 0 0 0
0:00:00.00 56747 N 0 0 0
0:00:00.00 56992 N 0 0 0
0:00:00.00 57249 N 0 0 0
0:00:00.00 57508 N 0 0 0
0:00:00.00 57771 N 0 0 0
0:00:00.00 58030 N 0 0 0
0:00:00.00 58941 N 0 0 0
0:00:00.00 59458 N 0 0 0
0:00:00.00 59699 N 0 0 0
0:00:00.00 59962 N 0 0 0
0:00:00.00 60640 N 0 0 0
0:00:00.00 60894 N 0 0 0
0:00:00.00 61157 N 0 0 0
0:00:00.00 61421 N 0 0 0
0:00:00.00 61686 N 0 0 0
0:00:00.00 61933 N 0 0 0
0:00:00.00 62629 N 0 0 0
0:00:00.00 62874 N 0 0 0
0:00:00.00 63495 N 0 0 0
0:00:00.00 63722 N 0 0 0
0:00:00.00 64332 N 0 0 0
0:00:00.00 64577 N 0 0 0
0:00:00.00 65171 N 0 0 0
0:00:00.00 65403 N 0 0 0
0:00:00.00 65673 N 0 0 0
0:00:00.00 66325 N 0 0 0
0:00:00.00 66573 N 0 0 0
0:00:00.00 66829 N 0 0 0
0:00:00.00 67464 N 0 0 0
0:00:00.00 67711 N 0 0 0
0:00:00.00 67973 N 0 0 0
0:00:00.00 68612 N 0 0 0
0:00:00.00 68846 N 0 0 0
0:00:00.00 69444 N 0 0 0
0:00:00.00 69678 N 0 0 0
0:00:00.00 69946 N 0 0 0
0:00:00.00 70587 N 0 0 0
0:00:00.00 70832 N 0 0 0
0:00:00.00 71098 N 0 0 0
0:00:00.00 71354 N 0 0 0
0:00:00.00 72004 N 0 0 0
0:00:00.00 72248 N 0 0 0
0:00:00.00 72853 N 0 0 0
0:00:00.00 73096 N 0 0 0
0:00:00.00 73354 N 0 0 0
0:00:00.00 73607 N 0 0 0
0:00:00.00 73867 N 0 0 0
0:00:00.00 74516 N 0 0 0
0:00:00.00 75215 N 0 0 0
0:00:00.00 75458 N 0 0 0
0:00:00.00 75719 N 0 0 0
0:00:00.00 76392 N 0 0 0
0:00:00.00 76613 N 0 0 0
0:00:00.00 76891 N 0 0 0
0:00:00.00 77564 N 0 0 0
0:00:00.00 77800 N 0 0 0
0:00:00.00 78061 N 0 0 0
0:00:00.00 78730 N 0 0 0
0:00:00.00 78979 N 0 0 0
0:00:00.00 79243 N 0 0 0
0:00:00.00 79490 N 0 0 0
0:00:00.00 79742 N 0 0 0
0:00:00.00 80001 N 0 0 0
0:00:00.00 80694 N 0 0 0
0:00:00.00 80935 N 0 0 0
0:00:00.00 81194 N 0 0 0
0:00:00.00 81448 N 0 0 0
0:00:00.00 81695 N 0 0 0
0:00:00.00 81974 N 0 0 0
0:00:00.00 82231 N 0 0 0
0:00:00.00 82499 N 0 0 0
0:00:00.00 82759 N 0 0 0
0:00:00.00 83021 N 0 0 0
0:00:00.00 83284 N 0 0 0
0:00:00.00 83549 N 0 0 0
0:00:00.00 83813 N 0 0 0
0:00:00.00 84080 N 0 0 0
0:00:00.00 84346 N 0 0 0
0:00:00.00 84602 N 0 0 0
0:00:00.00 85180 N 0 0 0
0:00:00.00 85417 N 0 0 0
0:00:00.00 85702 N 0 0 0
0:00:00.00 85964 N 0 0 0
0:00:00.00 86227 N 0 0 0
0:00:00.00 87235 N 0 0 0
0:00:00.00 87712 N 0 0 0
0:00:00.00 87957 N 0 0 0
0:00:00.00 88213 N 0 0 0
0:00:00.00 88486 N 0 0 0
0:00:00.00 88747 N 0 0 0
0:00:00.00 88999 N 0 0 0
0:00:00.00 89249 N 0 0 0
0:00:00.00 89530 N 0 0 0
0:00:00.00 89793 N 0 0 0
0:00:00.00 90504 N 0 0 0
0:00:00.00 90769 N 0 0 0
0:00:00.00 91022 N 0 0 0
0:00:00.00 91733 N 0 0 0
0:00:00.00 91984 N 0 0 0
0:00:00.00 92614 N 0 0 0
0:00:00.00 92844 N 0 0 0
0:00:00.00 93112 N 0 0 0
0:00:00.00 93386 N 0 0 0
0:00:00.00 93636 N 0 0 0
0:00:00.00 94264 N 0 0 0
0:00:00.00 94516 N 0 0 0
0:00:00.00 94792 N 0 0 0
0:00:00.00 95472 N 0 0 0
0:00:00.00 95715 N 0 0 0
0:00:00.00 95990 N 0 0 0
0:00:00.00 96257 N 0 0 0
0:00:00.00 96523 N 0 0 0
0:00:00.00 96790 N 0 0 0
0:00:00.00 97502 N 0 0 0
0:00:00.00 97749 N 0 0 0
0:00:00.00 98410 N 0 0 0
0:00:00.00 98654 N 0 0 0
0:00:00.00 98924 N 0 0 0
0:00:00.00 99182 N 0 0 0
0:00:00.00 99439 N 0 0 0
0:00:00.00 99511 N 0 0 0
0:00:00.00 100078 N 0 0 0
0:00:00.00 100301 N 0 0 0
0:00:00.00 100373 N 0 0 0
0:00:00.00 100586 N 0 0 0
0:00:00.00 101252 N 0 0 0
0:00:00.00 101509 N 0 0 0
0:00:00.00 101768 N 0 0 0
0:00:00.00 102028 N 0 0 0
0:00:00.00 102985 N 0 0 0
0:00:00.00 103378 N 0 0 0
0:00:00.00 103639 N 0 0 0
0:00:00.00 103905 N 0 0 0
0:00:00.00 104596 N 0 0 0
0:00:00.00 104834 N 0 0 0
0:00:00.00 105098 N 0 0 0
0:00:00.00 105817 N 0 0 0
0:00:00.00 106335 N 0 0 0
0:00:00.00 106571 N 0 0 0
0:00:00.00 106843 N 0 0 0
0:00:00.00 107105 N 0 0 0
0:00:00.00 107372 N 0 0 0
0:00:00.00 107635 N 0 0 0
0:00:00.00 107897 N 0 0 0
0:00:00.00 108162 N 0 0 0
0:00:00.00 108844 N 0 0 0
0:00:00.00 109355 N 0 0 0
0:00:00.00 109598 N 0 0 0
0:00:00.00 109863 N 0 0 0
0:00:00.00 110124 N 0 0 0
0:00:00.00 110389 N 0 0 0
0:00:00.00 111073 N 0 0 0
0:00:00.00 111314 N 0 0 0
0:00:00.00 111580 N 0 0 0
0:00:00.00 111843 N 0 0 0
0:00:00.00 112109 N 0 0 0
0:00:00.00 112378 N 0 0 0
0:00:00.00 113378 N 0 0 0
0:00:00.00 113881 N 0 0 0
0:00:00.00 114124 N 0 0 0
0:00:00.00 114728 N 0 0 0
0:00:00.00 114964 N 0 0 0
0:00:00.00 115229 N 0 0 0
0:00:00.00 115486 N 0 0 0
0:00:00.00 115735 N 0 0 0
0:00:00.00 116003 N 0 0 0
0:00:00.00 116260 N 0 0 0
0:00:00.00 116519 N 0 0 0
0:00:00.00 116789 N 0 0 0
0:00:00.00 117455 N 0 0 0
0:00:00.00 117688 N 0 0 0
0:00:00.00 118330 N 0 0 0
0:00:00.00 118580 N 0 0 0
0:00:00.00 118850 N 0 0 0
0:00:00.00 119491 N 0 0 0
0:00:00.00 119747 N 0 0 0
0:00:00.00 120002 N 0 0 0
0:00:00.00 120269 N 0 0 0
0:00:00.00 120533 N 0 0 0
0:00:00.00 120793 N 0 0 0
0:00:00.00 121459 N 0 0 0
0:00:00.00 121703 N 0 0 0
0:00:00.00 121973 N 0 0 0
0:00:00.00 122233 N 0 0 0
0:00:00.00 122495 N 0 0 0
0:00:00.00 122621 N 0 0 0
0:00:00.00 123091 N 0 0 0
0:00:00.00 123334 N 0 0 0
0:00:00.00 123592 N 0 0 0
0:00:00.00 123849 N 0 0 0
0:00:00.00 124106 N 0 0 0
0:00:00.00 124681 N 0 0 0
0:00:00.00 124913 N 0 0 0
0:00:00.00 125179 N 0 0 0
0:00:00.00 125433 N 0 0 0
0:00:00.00 125694 N 0 0 0
0:00:00.00 126416 N 0 0 0
0:00:00.00 126662 N 0 0 0
0:00:00.00 126927 N 0 0 0
0:00:00.00 127627 N 0 0 0
0:00:00.00 128551 N 0 0 0
0:00:00.00 129051 N 0 0 0
0:00:00.00 129296 N 0 0 0
0:00:00.00 129569 N 0 0 0
0:00:00.00 129832 N 0 0 0
0:00:00.00 130099 N 0 0 0
0:00:00.00 130342 N 0 0 0
0:00:00.00 130617 N 0 0 0
0:00:00.00 130882 N 0 0 0
0:00:00.00 131877 N 0 0 0
0:00:00.00 132340 N 0 0 0
0:00:00.00 132584 N 0 0 0
0:00:00.00 132853 N 0 0 0
0:00:00.00 133110 N 0 0 0
0:00:00.00 133357 N 0 0 0
0:00:00.00 133969 N 0 0 0
0:00:00.00 134217 N 0 0 0
0:00:00.00 134491 N 0 0 0
0:00:00.00 135171 N 0 0 0
0:00:00.00 135416 N 0 0 0
0:00:00.00 135684 N 0 0 0
0:00:00.00 135940 N 0 0 0
0:00:00.00 136211 N 0 0 0
0:00:00.00 136467 N 0 0 0
0:00:00.00 136728 N 0 0 0
0:00:00.00 137700 N 0 0 0
0:00:00.00 138181 N 0 0 0
0:00:00.00 138409 N 0 0 0
0:00:00.00 138688 N 0 0 0
0:00:00.00 138949 N 0 0 0
0:00:00.00 139203 N 0 0 0
0:00:00.00 139475 N 0 0 0
0:00:00.00 139732 N 0 0 0
0:00:00.00 139885 N 0 0 0
0:00:00.00 139959 N 0 0 0
0:00:00.00 140314 N 0 0 0
0:00:00.00 140560 N 0 0 0
0:00:00.00 140830 N 0 0 0
0:00:00.00 141100 N 0 0 0
0:00:00.00 141365 N 0 0 0
0:00:00.00 141626 N 0 0 0
0:00:00.00 141889 N 0 0 0
0:00:00.00 142160 N 0 0 0
0:00:00.00 143185 N 0 0 0
0:00:00.00 143595 N 0 0 0
0:00:00.00 143847 N 0 0 0
0:00:00.00 144110 N 0 0 0
0:00:00.00 144369 N 0 0 0
0:00:00.00 145062 N 0 0 0
0:00:00.00 145312 N 0 0 0
0:00:00.00 145582 N 0 0 0
0:00:00.00 146234 N 0 0 0
0:00:00.00 146475 N 0 0 0
0:00:00.00 146738 N 0 0 0
0:00:00.00 147006 N 0 0 0
0:00:00.00 147280 N 0 0 0
0:00:00.00 147541 N 0 0 0
0:00:00.00 147805 N 0 0 0
0:00:00.00 148063 N 0 0 0
0:00:00.00 148333 N 0 0 0
0:00:00.00 148603 N 0 0 0
0:00:00.00 148869 N 0 0 0
0:00:00.00 149558 N 0 0 0
0:00:00.00 149803 N 0 0 0
0:00:00.00 150066 N 0 0 0
0:00:00.00 150786 N 0 0 0
0:00:00.00 151029 N 0 0 0
0:00:00.00 151294 N 0 0 0
0:00:00.00 151564 N 0 0 0
0:00:00.00 151834 N 0 0 0
0:00:00.00 152098 N 0 0 0
0:00:00.00 153032 N 0 0 0
0:00:00.00 153475 N 0 0 0
0:00:00.00 153724 N 0 0 0
0:00:00.00 153985 N 0 0 0
0:00:00.00 154656 N 0 0 0
0:00:00.00 154910 N 0 0 0
0:00:00.00 155178 N 0 0 0
0:00:00.00 155437 N 0 0 0
0:00:00.00 155696 N 0 0 0
0:00:00.00 156366 N 0 0 0
0:00:00.00 156616 N 0 0 0
0:00:00.00 156884 N 0 0 0
0:00:00.00 157549 N 0 0 0
0:00:00.00 157788 N 0 0 0
0:00:00.00 158058 N 0 0 0
0:00:00.00 158319 N 0 0 0
0:00:00.00 158580 N 0 0 0
0:00:00.00 158828 N 0 0 0
0:00:00.00 159102 N 0 0 0
0:00:00.00 159633 N 0 0 0
0:00:00.00 159887 N 0 0 0
0:00:00.00 160146 N 0 0 0
0:00:00.00 160420 N 0 0 0
0:00:00.00 160681 N 0 0 0
0:00:00.00 160945 N 0 0 0
0:00:00.00 161681 N 0 0 0
0:00:00.00 161921 N 0 0 0
0:00:00.00 162200 N 0 0 0
0:00:00.00 162463 N 0 0 0
0:00:00.00 162727 N 0 0 0
0:00:00.00 163359 N 0 0 0
0:00:00.00 163609 N 0 0 0
0:00:00.00 163870 N 0 0 0
0:00:00.00 164137 N 0 0 0
0:00:00.00 164410 N 0 0 0
0:00:00.00 164662 N 0 0 0
0:00:00.00 164941 N 0 0 0
0:00:00.00 165586 N 0 0 0
0:00:00.00 165830 N 0 0 0
0:00:00.00 166106 N 0 0 0
0:00:00.00 166372 N 0 0 0
0:00:00.00 167337 N 0 0 0
0:00:00.00 167830 N 0 0 0
0:00:00.00 168080 N 0 0 0
0:00:00.00 168329 N 0 0 0
0:00:00.00 169006 N 0 0 0
0:00:00.00 169258 N 0 0 0
0:00:00.00 169533 N 0 0 0
0:00:00.00 170195 N 0 0 0
0:00:00.00 170444 N 0 0 0
0:00:00.00 170716 N 0 0 0
0:00:00.00 170975 N 0 0 0
0:00:00.00 171592 N 0 0 0
0:00:00.00 171833 N 0 0 0
0:00:00.00 172098 N 0 0 0
0:00:00.00 172359 N 0 0 0
0:00:00.00 173086 N 0 0 0
0:00:00.00 173331 N 0 0 0
0:00:00.00 173599 N 0 0 0
0:00:00.00 173869 N 0 0 0
0:00:00.00 174134 N 0 0 0
0:00:00.00 174393 N 0 0 0
0:00:00.00 175095 N 0 0 0
0:00:00.00 175331 N 0 0 0
0:00:00.00 175597 N 0 0 0
0:00:00.00 175862 N 0 0 0
0:00:00.00 176123 N 0 0 0
0:00:00.00 176387 N 0 0 0
0:00:00.00 176645 N 0 0 0
0:00:00.00 177304 N 0 0 0
0:00:00.00 177547 N 0 0 0
0:00:00.00 177797 N 0 0 0
0:00:00.00 178452 N 0 0 0
0:00:00.00 178699 N 0 0 0
0:00:00.00 178965 N 0 0 0
0:00:00.00 179217 N 0 0 0
0:00:00.00 179478 N 0 0 0
0:00:00.00 179730 N 0 0 0
0:00:00.00 179991 N 0 0 0
0:00:00.00 180245 N 0 0 0
0:00:00.00 180518 N 0 0 0
0:00:00.00 181224 N 0 0 0
0:00:00.00 181471 N 0 0 0
0:00:00.00 181715 N 0 0 0
0:00:00.00 181991 N 0 0 0
0:00:00.00 182263 N 0 0 0
0:00:00.00 182509 N 0 0 0
0:00:00.00 182770 N 0 0 0
0:00:00.00 183044 N 0 0 0
0:00:00.00 183636 N 0 0 0
0:00:00.00 183890 N 0 0 0
0:00:00.00 184154 N 0 0 0
0:00:00.00 184414 N 0 0 0
0:00:00.00 184680 N 0 0 0
0:00:00.00 185330 N 0 0 0
0:00:00.00 185573 N 0 0 0
0:00:00.00 185843 N 0 0 0
0:00:00.00 186554 N 0 0 0
0:00:00.00 186786 N 0 0 0
0:00:00.00 187438 N 0 0 0
0:00:00.00 187688 N 0 0 0
0:00:00.00 187952 N 0 0 0
0:00:00.00 188215 N 0 0 0
0:00:00.00 188483 N 0 0 0
0:00:00.00 188744 N 0 0 0
0:00:00.00 188995 N 0 0 0
0:00:00.00 189554 N 0 0 0
0:00:00.00 189805 N 0 0 0
0:00:00.00 190076 N 0 0 0
0:00:00.00 190741 N 0 0 0
0:00:00.00 190987 N 0 0 0
0:00:00.00 191617 N 0 0 0
0:00:00.00 191866 N 0 0 0
0:00:00.00 192118 N 0 0 0
0:00:00.00 192382 N 0 0 0
0:00:00.00 192645 N 0 0 0
0:00:00.00 192915 N 0 0 0
0:00:00.00 193174 N 0 0 0
0:00:00.00 193707 N 0 0 0
0:00:00.00 193946 N 0 0 0
0:00:00.00 194213 N 0 0 0
0:00:00.00 194877 N 0 0 0
0:00:00.00 195124 N 0 0 0
0:00:00.00 195392 N 0 0 0
0:00:00.00 196096 N 0 0 0
0:00:00.00 196348 N 0 0 0
0:00:00.00 196610 N 0 0 0
0:00:00.00 196871 N 0 0 0
0:00:00.00 197134 N 0 0 0
0:00:00.00 197775 N 0 0 0
0:00:00.00 198032 N 0 0 0
0:00:00.00 198288 N 0 0 0
0:00:00.00 198563 N 0 0 0
0:00:00.00 198828 N 0 0 0
0:00:00.00 199490 N 0 0 0
0:00:00.00 199744 N 0 0 0
0:00:00.00 200007 N 0 0 0
0:00:00.00 200268 N 0 0 0
0:00:00.00 200808 N 0 0 0
0:00:00.00 201040 N 0 0 0
0:00:00.00 201321 N 0 0 0
0:00:00.00 201586 N 0 0 0
0:00:00.00 201845 N 0 0 0
0:00:00.00 202108 N 0 0 0
0:00:00.00 202867 N 0 0 0
0:00:00.00 203126 N 0 0 0
0:00:00.00 203398 N 0 0 0
0:00:00.00 203666 N 0 0 0
0:00:00.00 203935 N 0 0 0
0:00:00.00 204199 N 0 0 0
0:00:00.00 204908 N 0 0 0
0:00:00.00 205153 N 0 0 0
0:00:00.00 205425 N 0 0 0
0:00:00.00 206134 N 0 0 0
0:00:00.00 206386 N 0 0 0
0:00:00.00 206653 N 0 0 0
0:00:00.00 206914 N 0 0 0
0:00:00.00 207180 N 0 0 0
0:00:00.00 207853 N 0 0 0
0:00:00.00 208102 N 0 0 0
0:00:00.00 208373 N 0 0 0
0:00:00.00 208640 N 0 0 0
0:00:00.00 209201 N 0 0 0
0:00:00.00 209441 N 0 0 0
0:00:00.00 209713 N 0 0 0
0:00:00.00 209977 N 0 0 0
0:00:00.00 210667 N 0 0 0
0:00:00.00 210915 N 0 0 0
0:00:00.00 211187 N 0 0 0
0:00:00.00 211442 N 0 0 0
0:00:00.00 211709 N 0 0 0
0:00:00.00 211981 N 0 0 0
0:00:00.00 212247 N 0 0 0
0:00:00.00 212506 N 0 0 0
0:00:00.00 212791 N 0 0 0
0:00:00.00 213062 N 0 0 0
0:00:00.00 213331 N 0 0 0
0:00:00.00 214060 N 0 0 0
0:00:00.00 214308 N 0 0 0
0:00:00.00 214580 N 0 0 0
0:00:00.00 214850 N 0 0 0
0:00:00.00 215131 N 0 0 0
0:00:00.00 215795 N 0 0 0
0:00:00.00 216052 N 0 0 0
0:00:00.00 216331 N 0 0 0
0:00:00.00 216599 N 0 0 0
0:00:00.00 217166 N 0 0 0
0:00:00.00 217411 N 0 0 0
0:00:00.00 217687 N 0 0 0
0:00:00.00 217957 N 0 0 0
0:00:00.00 218230 N 0 0 0
0:00:00.00 218785 N 0 0 0
0:00:00.00 219028 N 0 0 0
0:00:00.00 219303 N 0 0 0
0:00:00.00 219575 N 0 0 0
0:00:00.00 219836 N 0 0 0
0:00:00.00 220531 N 0 0 0
0:00:00.00 220786 N 0 0 0
0:00:00.00 221060 N 0 0 0
0:00:00.00 221333 N 0 0 0
0:00:00.00 221902 N 0 0 0
0:00:00.00 222149 N 0 0 0
0:00:00.00 222422 N 0 0 0
0:00:00.00 222696 N 0 0 0
0:00:00.00 222966 N 0 0 0
0:00:00.00 223236 N 0 0 0
0:00:00.00 223513 N 0 0 0
0:00:00.00 224262 N 0 0 0
0:00:00.00 224525 N 0 0 0
0:00:00.00 224800 N 0 0 0
0:00:00.00 225475 N 0 0 0
0:00:00.00 225740 N 0 0 0
0:00:00.00 226008 N 0 0 0
0:00:00.00 226697 N 0 0 0
0:00:00.00 226944 N 0 0 0
0:00:00.00 227203 N 0 0 0
0:00:00.00 227887 N 0 0 0
0:00:00.00 228134 N 0 0 0
0:00:00.00 228398 N 0 0 0
0:00:00.00 228659 N 0 0 0
0:00:00.00 228931 N 0 0 0
0:00:00.00 230040 N 0 0 0
0:00:00.00 230542 N 0 0 0
0:00:00.00 230803 N 0 0 0
0:00:00.00 231066 N 0 0 0
0:00:00.00 231350 N 0 0 0
0:00:00.00 231617 N 0 0 0
0:00:00.00 231887 N 0 0 0
0:00:00.00 232162 N 0 0 0
0:00:00.00 232432 N 0 0 0
0:00:00.00 233543 N 0 0 0
0:00:00.00 234034 N 0 0 0
0:00:00.00 234288 N 0 0 0
0:00:00.00 234558 N 0 0 0
0:00:00.00 235246 N 0 0 0
0:00:00.00 235490 N 0 0 0
0:00:00.00 235768 N 0 0 0
0:00:00.00 236039 N 0 0 0
0:00:00.00 236304 N 0 0 0
0:00:00.00 236938 N 0 0 0
0:00:00.00 237199 N 0 0 0
0:00:00.00 237476 N 0 0 0
0:00:00.00 237744 N 0 0 0
0:00:00.00 238279 N 0 0 0
0:00:00.00 238531 N 0 0 0
0:00:00.00 238804 N 0 0 0
0:00:00.00 239076 N 0 0 0
0:00:00.00 239344 N 0 0 0
0:00:00.00 239996 N 0 0 0
0:00:00.00 240251 N 0 0 0
0:00:00.00 240529 N 0 0 0
0:00:00.00 240791 N 0 0 0
0:00:00.00 241056 N 0 0 0
0:00:00.00 241697 N 0 0 0
0:00:00.00 241956 N 0 0 0
0:00:00.00 242231 N 0 0 0
0:00:00.00 242501 N 0 0 0
0:00:00.00 242773 N 0 0 0
0:00:00.00 243036 N 0 0 0
0:00:00.00 243308 N 0 0 0
0:00:00.00 243585 N 0 0 0
0:00:00.00 244251 N 0 0 0
0:00:00.00 244510 N 0 0 0
0:00:00.00 244784 N 0 0 0
0:00:00.00 245043 N 0 0 0
0:00:00.00 245309 N 0 0 0
0:00:00.00 245561 N 0 0 0
0:00:00.00 245822 N 0 0 0
0:00:00.00 246101 N 0 0 0
0:00:00.00 246350 N 0 0 0
0:00:00.00 246616 N 0 0 0
0:00:00.00 246901 N 0 0 0
0:00:00.00 247169 N 0 0 0
0:00:00.00 247421 N 0 0 0
0:00:00.00 247606 N 0 0 0
0:00:00.00 247685 N 0 0 0
0:00:00.00 247889 N 0 0 0
0:00:00.00 247961 N 0 0 0
0:00:00.00 248204 N 0 0 0
0:00:00.00 248467 N 0 0 0
0:00:00.00 248719 N 0 0 0
0:00:00.00 248983 N 0 0 0
0:00:00.00 249239 N 0 0 0
0:00:00.00 249313 N 0 0 0
0:00:00.00 249500 N 0 0 0
0:00:00.00 249775 N 0 0 0
0:00:00.00 250034 N 0 0 0
0:00:00.00 250313 N 0 0 0
0:00:00.00 250571 N 0 0 0
0:00:00.00 250834 N 0 0 0
0:00:00.00 251089 N 0 0 0
0:00:00.00 251352 N 0 0 0
0:00:00.00 251618 N 0 0 0
0:00:00.00 251905 N 0 0 0
0:00:00.00 252171 N 0 0 0
0:00:00.00 252441 N 0 0 0
0:00:00.00 252709 N 0 0 0
0:00:00.00 252985 N 0 0 0
0:00:00.00 253258 N 0 0 0
0:00:00.00 253528 N 0 0 0
0:00:00.00 253795 N 0 0 0
0:00:00.00 254383 N 0 0 0
0:00:00.00 254621 N 0 0 0
0:00:00.00 255190 N 0 0 0
0:00:00.00 255451 N 0 0 0
0:00:00.00 255717 N 0 0 0
0:00:00.00 255982 N 0 0 0
0:00:00.00 256243 N 0 0 0
0:00:00.00 256518 N 0 0 0
0:00:00.00 256772 N 0 0 0
0:00:00.00 257422 N 0 0 0
0:00:00.00 257648 N 0 0 0
0:00:00.00 257920 N 0 0 0
0:00:00.00 258199 N 0 0 0
0:00:00.00 258304 N 0 0 0
0:00:00.00 258462 N 0 0 0
0:00:00.00 258732 N 0 0 0
0:00:00.00 258977 N 0 0 0
0:00:00.00 259049 N 0 0 0
0:00:00.00 259265 N 0 0 0
0:00:00.00 259546 N 0 0 0
0:00:00.00 259816 N 0 0 0
0:00:00.00 260082 N 0 0 0
0:00:00.00 260348 N 0 0 0
0:00:00.00 260624 N 0 0 0
0:00:00.00 261259 N 0 0 0
0:00:00.00 261515 N 0 0 0
0:00:00.00 261778 N 0 0 0
0:00:00.00 262420 N 0 0 0
0:00:00.00 262678 N 0 0 0
0:00:00.00 262944 N 0 0 0
0:00:00.00 263203 N 0 0 0
0:00:00.00 263864 N 0 0 0
0:00:00.00 264103 N 0 0 0
0:00:00.00 264370 N 0 0 0
0:00:00.00 264638 N 0 0 0
0:00:00.00 264901 N 0 0 0
0:00:00.00 265167 N 0 0 0
0:00:00.00 265419 N 0 0 0
0:00:00.00 266081 N 0 0 0
0:00:00.00 266330 N 0 0 0
0:00:00.00 266596 N 0 0 0
0:00:00.00 267217 N 0 0 0
0:00:00.00 267467 N 0 0 0
0:00:00.00 268110 N 0 0 0
0:00:00.00 268357 N 0 0 0
0:00:00.00 268627 N 0 0 0
0:00:00.00 269284 N 0 0 0
0:00:00.00 269527 N 0 0 0
0:00:00.00 269789 N 0 0 0
0:00:00.00 270441 N 0 0 0
0:00:00.00 270700 N 0 0 0
0:00:00.00 270974 N 0 0 0
0:00:00.00 271231 N 0 0 0
0:00:00.00 271489 N 0 0 0
0:00:00.00 272201 N 0 0 0
0:00:00.00 272430 N 0 0 0
0:00:00.00 272705 N 0 0 0
0:00:00.00 272965 N 0 0 0
0:00:00.00 273224 N 0 0 0
0:00:00.00 273483 N 0 0 0
0:00:00.00 273751 N 0 0 0
0:00:00.00 274021 N 0 0 0
0:00:00.00 274280 N 0 0 0
0:00:00.00 274966 N 0 0 0
0:00:00.00 275220 N 0 0 0
0:00:00.00 275476 N 0 0 0
0:00:00.00 276147 N 0 0 0
0:00:00.00 276397 N 0 0 0
0:00:00.00 276664 N 0 0 0
0:00:00.00 276930 N 0 0 0
0:00:00.00 277702 N 0 0 0
0:00:00.00 277947 N 0 0 0
0:00:00.00 278217 N 0 0 0
0:00:00.00 278869 N 0 0 0
0:00:00.00 279106 N 0 0 0
0:00:00.00 279374 N 0 0 0
0:00:00.00 280033 N 0 0 0
0:00:00.00 280282 N 0 0 0
0:00:00.00 280550 N 0 0 0
0:00:00.00 281214 N 0 0 0
0:00:00.00 281477 N 0 0 0
0:00:00.00 281749 N 0 0 0
0:00:00.00 282015 N 0 0 0
0:00:00.00 282699 N 0 0 0
0:00:00.00 282944 N 0 0 0
0:00:00.00 283212 N 0 0 0
0:00:00.00 283873 N 0 0 0
0:00:00.00 284114 N 0 0 0
0:00:00.00 284373 N 0 0 0
0:00:00.00 285041 N 0 0 0
0:00:00.00 285298 N 0 0 0
0:00:00.00 285565 N 0 0 0
0:00:00.00 286232 N 0 0 0
0:00:00.00 286479 N 0 0 0
0:00:00.00 286736 N 0 0 0
0:00:00.00 287006 N 0 0 0
0:00:00.00 287262 N 0 0 0
0:00:00.00 287523 N 0 0 0
0:00:00.00 287791 N 0 0 0
0:00:00.00 288059 N 0 0 0
0:00:00.00 288328 N 0 0 0
0:00:00.00 288587 N 0 0 0
0:00:00.00 288853 N 0 0 0
0:00:00.00 289123 N 0 0 0
0:00:00.00 289391 N 0 0 0
0:00:00.00 289660 N 0 0 0
0:00:00.00 289935 N 0 0 0
0:00:00.00 290617 N 0 0 0
0:00:00.00 290871 N 0 0 0
0:00:00.00 291150 N 0 0 0
0:00:00.00 291415 N 0 0 0
0:00:00.00 291679 N 0 0 0
0:00:00.00 292352 N 0 0 0
0:00:00.00 292590 N 0 0 0
0:00:00.00 292862 N 0 0 0
0:00:00.00 293593 N 0 0 0
0:00:00.00 293852 N 0 0 0
0:00:00.00 294129 N 0 0 0
0:00:00.00 294842 N 0 0 0
0:00:00.00 295090 N 0 0 0
0:00:00.00 295364 N 0 0 0
0:00:00.00 296041 N 0 0 0
0:00:00.00 296298 N 0 0 0
0:00:00.00 296568 N 0 0 0
0:00:00.00 297245 N 0 0 0
0:00:00.00 297504 N 0 0 0
0:00:00.00 297770 N 0 0 0
0:00:00.00 298031 N 0 0 0
0:00:00.00 298843 N 0 0 0
0:00:00.00 299090 N 0 0 0
0:00:00.00 299363 N 0 0 0
0:00:00.00 300031 N 0 0 0
0:00:00.00 300287 N 0 0 0
0:00:00.00 300562 N 0 0 0
0:00:00.00 301237 N 0 0 0
0:00:00.00 301482 N 0 0 0
0:00:00.00 301734 N 0 0 0
0:00:00.00 302004 N 0 0 0
0:00:00.00 302656 N 0 0 0
0:00:00.00 302902 N 0 0 0
0:00:00.00 303156 N 0 0 0
0:00:00.00 303840 N 0 0 0
0:00:00.00 304083 N 0 0 0
0:00:00.00 304346 N 0 0 0
0:00:00.00 305051 N 0 0 0
0:00:00.00 305298 N 0 0 0
0:00:00.00 305564 N 0 0 0
0:00:00.00 305829 N 0 0 0
0:00:00.00 306090 N 0 0 0
0:00:00.00 306747 N 0 0 0
0:00:00.00 306985 N 0 0 0
0:00:00.00 307269 N 0 0 0
0:00:00.00 307532 N 0 0 0
0:00:00.00 307793 N 0 0 0
0:00:00.00 308061 N 0 0 0
0:00:00.00 308309 N 0 0 0
0:00:00.00 308590 N 0 0 0
0:00:00.00 309092 N 0 0 0
0:00:00.00 309337 N 0 0 0
0:00:00.00 309600 N 0 0 0
0:00:00.00 310266 N 0 0 0
0:00:00.00 310531 N 0 0 0
0:00:00.00 311197 N 0 0 0
0:00:00.00 311443 N 0 0 0
0:00:00.00 311717 N 0 0 0
0:00:00.00 312413 N 0 0 0
0:00:00.00 312658 N 0 0 0
0:00:00.00 312925 N 0 0 0
0:00:00.00 313191 N 0 0 0
0:00:00.00 313457 N 0 0 0
0:00:00.00 313722 N 0 0 0
0:00:00.00 313978 N 0 0 0
0:00:00.00 314707 N 0 0 0
0:00:00.00 315686 N 0 0 0
0:00:00.00 316087 N 0 0 0
0:00:00.00 316345 N 0 0 0
0:00:00.00 316552 N 0 0 0
0:00:00.00 316841 N 0 0 0
0:00:00.00 317108 N 0 0 0
0:00:00.00 317367 N 0 0 0
0:00:00.00 318062 N 0 0 0
0:00:00.00 318308 N 0 0 0
0:00:00.00 318569 N 0 0 0
0:00:00.00 318829 N 0 0 0
0:00:00.00 319723 N 0 0 0
0:00:00.00 320211 N 0 0 0
0:00:00.00 320461 N 0 0 0
0:00:00.00 320729 N 0 0 0
0:00:00.00 320974 N 0 0 0
0:00:00.00 321241 N 0 0 0
0:00:00.00 321523 N 0 0 0
0:00:00.00 321786 N 0 0 0
0:00:00.00 322051 N 0 0 0
0:00:00.00 322312 N 0 0 0
0:00:00.00 322583 N 0 0 0
0:00:00.00 323719 N 0 0 0
0:00:00.00 324162 N 0 0 0
0:00:00.00 324421 N 0 0 0
0:00:00.00 324693 N 0 0 0
0:00:00.00 324958 N 0 0 0
0:00:00.00 325219 N 0 0 0
0:00:00.00 325483 N 0 0 0
0:00:00.00 325753 N 0 0 0
0:00:00.00 326381 N 0 0 0
0:00:00.00 326623 N 0 0 0
0:00:00.00 326891 N 0 0 0
0:00:00.00 327587 N 0 0 0
0:00:00.00 327843 N 0 0 0
0:00:00.00 328111 N 0 0 0
0:00:00.00 328376 N 0 0 0
0:00:00.00 329346 N 0 0 0
0:00:00.00 329864 N 0 0 0
0:00:00.00 330115 N 0 0 0
0:00:00.00 330379 N 0 0 0
0:00:00.00 330644 N 0 0 0
0:00:00.00 330908 N 0 0 0
0:00:00.00 331171 N 0 0 0
0:00:00.00 331436 N 0 0 0
0:00:00.00 332114 N 0 0 0
0:00:00.00 332363 N 0 0 0
0:00:00.00 332633 N 0 0 0
0:00:00.00 333324 N 0 0 0
0:00:00.00 333567 N 0 0 0
0:00:00.00 333835 N 0 0 0
0:00:00.00 334105 N 0 0 0
0:00:00.00 334363 N 0 0 0
0:00:00.00 334629 N 0 0 0
0:00:00.00 335293 N 0 0 0
0:00:00.00 335549 N 0 0 0
0:00:00.00 335824 N 0 0 0
0:00:00.00 336085 N 0 0 0
0:00:00.00 336335 N 0 0 0
0:00:00.00 336620 N 0 0 0
0:00:00.00 336884 N 0 0 0
0:00:00.00 337471 N 0 0 0
0:00:00.00 337716 N 0 0 0
0:00:00.00 337984 N 0 0 0
0:00:00.00 338251 N 0 0 0
0:00:00.00 339215 N 0 0 0
0:00:00.00 339633 N 0 0 0
0:00:00.00 339883 N 0 0 0
0:00:00.00 340141 N 0 0 0
0:00:00.00 340850 N 0 0 0
0:00:00.00 341091 N 0 0 0
0:00:00.00 341361 N 0 0 0
0:00:00.00 341635 N 0 0 0
0:00:00.00 341906 N 0 0 0
0:00:00.00 342173 N 0 0 0
0:00:00.00 342436 N 0 0 0
0:00:00.00 342702 N 0 0 0
0:00:00.00 342972 N 0 0 0
0:00:00.00 344484 N 0 0 0
0:00:00.00 344930 N 0 0 0
0:00:00.00 345190 N 0 0 0
0:00:00.00 345456 N 0 0 0
0:00:00.00 345708 N 0 0 0
0:00:00.00 345985 N 0 0 0
0:00:00.00 346252 N 0 0 0
0:00:00.00 346523 N 0 0 0
0:00:00.00 346793 N 0 0 0
0:00:00.00 347909 N 0 0 0
0:00:00.00 348359 N 0 0 0
0:00:00.00 348610 N 0 0 0
0:00:00.00 348872 N 0 0 0
0:00:00.00 349578 N 0 0 0
0:00:00.00 349826 N 0 0 0
0:00:00.00 350086 N 0 0 0
0:00:00.00 350363 N 0 0 0
0:00:00.00 350631 N 0 0 0
0:00:00.00 350905 N 0 0 0
0:00:00.00 351176 N 0 0 0
0:00:00.00 351448 N 0 0 0
0:00:00.00 351716 N 0 0 0
0:00:00.00 352501 N 0 0 0
0:00:00.00 353979 N 0 0 0
0:00:00.00 354424 N 0 0 0
0:00:00.00 354676 N 0 0 0
0:00:00.00 354928 N 0 0 0
0:00:00.00 355201 N 0 0 0
0:00:00.00 355469 N 0 0 0
0:00:00.00 355732 N 0 0 0
0:00:00.00 355999 N 0 0 0
0:00:00.00 356269 N 0 0 0
0:00:00.00 356535 N 0 0 0
0:00:00.00 356800 N 0 0 0
0:00:00.00 357050 N 0 0 0
0:00:00.00 358245 N 0 0 0
0:00:00.00 358691 N 0 0 0
0:00:00.00 358940 N 0 0 0
0:00:00.00 359210 N 0 0 0
0:00:00.00 359865 N 0 0 0
0:00:00.00 360108 N 0 0 0
0:00:00.00 360373 N 0 0 0
0:00:00.00 360641 N 0 0 0
0:00:00.00 360905 N 0 0 0
0:00:00.00 361166 N 0 0 0
0:00:00.00 361427 N 0 0 0
0:00:00.00 362061 N 0 0 0
0:00:00.00 362311 N 0 0 0
0:00:00.00 362581 N 0 0 0
0:00:00.00 362849 N 0 0 0
0:00:00.00 363119 N 0 0 0
0:00:00.00 363881 N 0 0 0
0:00:00.00 364394 N 0 0 0
0:00:00.00 364648 N 0 0 0
0:00:00.00 364919 N 0 0 0
0:00:00.00 365184 N 0 0 0
0:00:00.00 365449 N 0 0 0
0:00:00.00 365706 N 0 0 0
0:00:00.00 365985 N 0 0 0
0:00:00.00 367027 N 0 0 0
0:00:00.00 367438 N 0 0 0
0:00:00.00 367691 N 0 0 0
0:00:00.00 367958 N 0 0 0
0:00:00.00 368230 N 0 0 0
0:00:00.00 368492 N 0 0 0
0:00:00.00 368762 N 0 0 0
0:00:00.00 369034 N 0 0 0
0:00:00.00 369299 N 0 0 0
0:00:00.00 370154 N 0 0 0
0:00:00.00 371140 N 0 0 0
0:00:00.00 371597 N 0 0 0
0:00:00.00 371853 N 0 0 0
0:00:00.00 372125 N 0 0 0
0:00:00.00 372375 N 0 0 0
0:00:00.00 372654 N 0 0 0
0:00:00.00 372915 N 0 0 0
0:00:00.00 373183 N 0 0 0
0:00:00.00 373720 N 0 0 0
0:00:00.00 373963 N 0 0 0
0:00:00.00 374227 N 0 0 0
0:00:00.00 374882 N 0 0 0
0:00:00.00 375134 N 0 0 0
0:00:00.00 375406 N 0 0 0
0:00:00.00 375667 N 0 0 0
0:00:00.00 376351 N 0 0 0
0:00:00.00 376603 N 0 0 0
0:00:00.00 376877 N 0 0 0
0:00:00.00 377140 N 0 0 0
0:00:00.00 377404 N 0 0 0
0:00:00.00 377674 N 0 0 0
0:00:00.00 377935 N 0 0 0
0:00:00.00 378209 N 0 0 0
0:00:00.00 378482 N 0 0 0
0:00:00.00 380597 N 0 0 0
0:00:00.00 381026 N 0 0 0
0:00:00.00 381285 N 0 0 0
0:00:00.00 381560 N 0 0 0
0:00:00.00 381823 N 0 0 0
0:00:00.00 382090 N 0 0 0
0:00:00.00 382351 N 0 0 0
0:00:00.00 382622 N 0 0 0
0:00:00.00 382896 N 0 0 0
0:00:00.00 383164 N 0 0 0
0:00:00.00 383429 N 0 0 0
0:00:00.00 383697 N 0 0 0
0:00:00.00 383965 N 0 0 0
0:00:00.00 384961 N 0 0 0
0:00:00.00 385501 N 0 0 0
0:00:00.00 385754 N 0 0 0
0:00:00.00 386030 N 0 0 0
0:00:00.00 386294 N 0 0 0
0:00:00.00 386561 N 0 0 0
0:00:00.00 386822 N 0 0 0
0:00:00.00 387083 N 0 0 0
0:00:00.00 387349 N 0 0 0
0:00:00.00 387619 N 0 0 0
0:00:00.00 388339 N 0 0 0
0:00:00.00 388852 N 0 0 0
0:00:00.00 389104 N 0 0 0
0:00:00.00 389372 N 0 0 0
0:00:00.00 389630 N 0 0 0
0:00:00.00 390332 N 0 0 0
0:00:00.00 390589 N 0 0 0
0:00:00.00 390861 N 0 0 0
0:00:00.00 391547 N 0 0 0
0:00:00.00 391797 N 0 0 0
0:00:00.00 392067 N 0 0 0
0:00:00.00 392339 N 0 0 0
0:00:00.00 392605 N 0 0 0
0:00:00.00 392872 N 0 0 0
0:00:00.00 393138 N 0 0 0
0:00:00.00 394058 N 0 0 0
0:00:00.00 395014 N 0 0 0
0:00:00.00 395431 N 0 0 0
0:00:00.00 395683 N 0 0 0
0:00:00.00 395951 N 0 0 0
0:00:00.00 396209 N 0 0 0
0:00:00.00 396472 N 0 0 0
0:00:00.00 398056 N 0 0 0
0:00:00.00 398497 N 0 0 0
0:00:00.00 398761 N 0 0 0
0:00:00.00 399028 N 0 0 0
0:00:00.00 399292 N 0 0 0
0:00:00.00 399557 N 0 0 0
0:00:00.00 399821 N 0 0 0
0:00:00.00 400079 N 0 0 0
0:00:00.00 400352 N 0 0 0
0:00:00.00 400610 N 0 0 0
0:00:00.00 400891 N 0 0 0
0:00:00.00 401681 N 0 0 0
0:00:00.00 402683 N 0 0 0
0:00:00.00 403126 N 0 0 0
0:00:00.00 403375 N 0 0 0
0:00:00.00 403643 N 0 0 0
0:00:00.00 403906 N 0 0 0
0:00:00.00 404167 N 0 0 0
0:00:00.00 404424 N 0 0 0
0:00:00.00 404690 N 0 0 0
0:00:00.00 404959 N 0 0 0
0:00:00.00 405223 N 0 0 0
0:00:00.00 405900 N 0 0 0
0:00:00.00 406150 N 0 0 0
0:00:00.00 406411 N 0 0 0
0:00:00.00 406676 N 0 0 0
0:00:00.00 406937 N 0 0 0
0:00:00.00 407210 N 0 0 0
0:00:00.00 408463 N 0 0 0
0:00:00.00 408955 N 0 0 0
0:00:00.00 409199 N 0 0 0
0:00:00.00 409462 N 0 0 0
0:00:00.00 409727 N 0 0 0
0:00:00.00 409988 N 0 0 0
0:00:00.00 410247 N 0 0 0
0:00:00.00 410512 N 0 0 0
0:00:00.00 410771 N 0 0 0
0:00:00.00 411032 N 0 0 0
0:00:00.00 411302 N 0 0 0
0:00:00.00 411566 N 0 0 0
0:00:00.00 411833 N 0 0 0
0:00:00.00 412812 N 0 0 0
0:00:00.00 413536 N 0 0 0
0:00:00.00 413786 N 0 0 0
0:00:00.00 414049 N 0 0 0
0:00:00.00 414319 N 0 0 0
0:00:00.00 414587 N 0 0 0
0:00:00.00 414855 N 0 0 0
0:00:00.00 415118 N 0 0 0
0:00:00.00 415382 N 0 0 0
0:00:00.00 416133 N 0 0 0
0:00:00.00 417578 N 0 0 0
0:00:00.00 418010 N 0 0 0
0:00:00.00 418244 N 0 0 0
0:00:00.00 418525 N 0 0 0
0:00:00.00 418790 N 0 0 0
0:00:00.00 419054 N 0 0 0
0:00:00.00 419324 N 0 0 0
0:00:00.00 419598 N 0 0 0
0:00:00.00 419866 N 0 0 0
0:00:00.00 420138 N 0 0 0
0:00:00.00 420406 N 0 0 0
0:00:00.00 420682 N 0 0 0
0:00:00.00 420957 N 0 0 0
0:00:00.00 421952 N 0 0 0
0:00:00.00 422383 N 0 0 0
0:00:00.00 422654 N 0 0 0
0:00:00.00 422924 N 0 0 0
0:00:00.00 423189 N 0 0 0
0:00:00.00 423454 N 0 0 0
0:00:00.00 423725 N 0 0 0
0:00:00.00 424004 N 0 0 0
0:00:00.00 424278 N 0 0 0
0:00:00.00 424546 N 0 0 0
0:00:00.00 425619 N 0 0 0
0:00:00.00 426053 N 0 0 0
0:00:00.00 426307 N 0 0 0
0:00:00.00 426569 N 0 0 0
0:00:00.00 426838 N 0 0 0
0:00:00.00 427100 N 0 0 0
0:00:00.00 427376 N 0 0 0
0:00:00.00 427633 N 0 0 0
0:00:00.00 428807 N 0 0 0
0:00:00.00 429248 N 0 0 0
0:00:00.00 429512 N 0 0 0
0:00:00.00 429761 N 0 0 0
0:00:00.00 430045 N 0 0 0
0:00:00.00 430321 N 0 0 0
0:00:00.00 430589 N 0 0 0
0:00:00.00 430853 N 0 0 0
0:00:00.00 431123 N 0 0 0
0:00:00.00 431392 N 0 0 0
0:00:00.00 431660 N 0 0 0
0:00:00.00 432790 N 0 0 0
0:00:00.00 433368 N 0 0 0
0:00:00.00 433620 N 0 0 0
0:00:00.00 433895 N 0 0 0
0:00:00.00 434156 N 0 0 0
0:00:00.00 434425 N 0 0 0
0:00:00.00 434682 N 0 0 0
0:00:00.00 434963 N 0 0 0
0:00:00.00 435235 N 0 0 0
0:00:00.00 435510 N 0 0 0
0:00:00.00 435780 N 0 0 0
0:00:00.00 436860 N 0 0 0
0:00:00.00 437402 N 0 0 0
0:00:00.00 437650 N 0 0 0
0:00:00.00 437922 N 0 0 0
0:00:00.00 438194 N 0 0 0
0:00:00.00 438462 N 0 0 0
0:00:00.00 438730 N 0 0 0
0:00:00.00 439000 N 0 0 0
0:00:00.00 439263 N 0 0 0
0:00:00.00 439531 N 0 0 0
0:00:00.00 439801 N 0 0 0
0:00:00.00 440069 N 0 0 0
0:00:00.00 440717 N 0 0 0
0:00:00.00 440977 N 0 0 0
0:00:00.00 441241 N 0 0 0
0:00:00.00 441914 N 0 0 0
0:00:00.00 442163 N 0 0 0
0:00:00.00 442429 N 0 0 0
0:00:00.00 442696 N 0 0 0
0:00:00.00 442958 N 0 0 0
0:00:00.00 443236 N 0 0 0
0:00:00.00 443507 N 0 0 0
0:00:00.00 443768 N 0 0 0
0:00:00.00 444535 N 0 0 0
0:00:00.00 446026 N 0 0 0
0:00:00.00 446333 N 0 0 0
0:00:00.00 446515 N 0 0 0
0:00:00.00 446679 N 0 0 0
0:00:00.00 446884 N 0 0 0
0:00:00.00 447109 N 0 0 0
0:00:00.00 447376 N 0 0 0
0:00:00.00 447599 N 0 0 0
0:00:00.00 447833 N 0 0 0
0:00:00.00 448079 N 0 0 0
0:00:00.00 448850 N 0 0 0
0:00:00.00 449258 N 0 0 0
0:00:00.00 449507 N 0 0 0
0:00:00.00 449766 N 0 0 0
0:00:00.00 450041 N 0 0 0
0:00:00.00 450304 N 0 0 0
0:00:00.00 452326 N 0 0 0
0:00:00.00 452799 N 0 0 0
0:00:00.00 453047 N 0 0 0
0:00:00.00 453308 N 0 0 0
0:00:00.00 453573 N 0 0 0
0:00:00.00 453832 N 0 0 0
0:00:00.00 454088 N 0 0 0
0:00:00.00 454372 N 0 0 0
0:00:00.00 454633 N 0 0 0
0:00:00.00 454892 N 0 0 0
0:00:00.00 455155 N 0 0 0
0:00:00.00 455422 N 0 0 0
0:00:00.00 456354 N 0 0 0
0:00:00.00 456791 N 0 0 0
0:00:00.00 457036 N 0 0 0
0:00:00.00 457304 N 0 0 0
0:00:00.00 457565 N 0 0 0
0:00:00.00 457825 N 0 0 0
0:00:00.00 458087 N 0 0 0
0:00:00.00 458352 N 0 0 0
0:00:00.00 458624 N 0 0 0
0:00:00.00 458892 N 0 0 0
0:00:00.00 459164 N 0 0 0
0:00:00.00 459427 N 0 0 0
0:00:00.00 460546 N 0 0 0
0:00:00.00 461371 N 0 0 0
0:00:00.00 462307 N 0 0 0
0:00:00.00 463196 N 0 0 0
0:00:00.00 463738 N 0 0 0
0:00:00.00 463981 N 0 0 0
0:00:00.00 464243 N 0 0 0
0:00:00.00 464494 N 0 0 0
0:00:00.00 464751 N 0 0 0
0:00:00.00 465012 N 0 0 0
0:00:00.00 465273 N 0 0 0
0:00:00.00 465532 N 0 0 0
0:00:00.00 465791 N 0 0 0
0:00:00.00 467368 N 0 0 0
0:00:00.00 467786 N 0 0 0
0:00:00.00 468040 N 0 0 0
0:00:00.00 468308 N 0 0 0
0:00:00.00 468571 N 0 0 0
0:00:00.00 468819 N 0 0 0
0:00:00.00 469075 N 0 0 0
0:00:00.00 469337 N 0 0 0
0:00:00.00 469589 N 0 0 0
0:00:00.00 469852 N 0 0 0
0:00:00.00 470106 N 0 0 0
0:00:00.00 470365 N 0 0 0
0:00:00.00 471078 N 0 0 0
0:00:00.00 471613 N 0 0 0
0:00:00.00 471874 N 0 0 0
0:00:00.00 472136 N 0 0 0
0:00:00.00 472397 N 0 0 0
0:00:00.00 472664 N 0 0 0
0:00:00.00 472928 N 0 0 0
0:00:00.00 473195 N 0 0 0
0:00:00.00 474687 N 0 0 0
0:00:00.00 475088 N 0 0 0
0:00:00.00 475335 N 0 0 0
0:00:00.00 475596 N 0 0 0
0:00:00.00 475853 N 0 0 0
0:00:00.00 476105 N 0 0 0
0:00:00.00 476379 N 0 0 0
0:00:00.00 476638 N 0 0 0
0:00:00.00 476887 N 0 0 0
0:00:00.00 477157 N 0 0 0
0:00:00.00 477409 N 0 0 0
0:00:00.00 477691 N 0 0 0
0:00:00.00 477952 N 0 0 0
0:00:00.00 478220 N 0 0 0
0:00:00.00 478481 N 0 0 0
0:00:00.00 480083 N 0 0 0
0:00:00.00 480483 N 0 0 0
0:00:00.00 480737 N 0 0 0
0:00:00.00 481007 N 0 0 0
0:00:00.00 481271 N 0 0 0
0:00:00.00 481529 N 0 0 0
0:00:00.00 481786 N 0 0 0
0:00:00.00 482049 N 0 0 0
0:00:00.00 482306 N 0 0 0
0:00:00.00 482567 N 0 0 0
0:00:00.00 483280 N 0 0 0
0:00:00.00 483809 N 0 0 0
0:00:00.00 484060 N 0 0 0
0:00:00.00 484704 N 0 0 0
0:00:00.00 484958 N 0 0 0
0:00:00.00 485228 N 0 0 0
0:00:00.00 485910 N 0 0 0
0:00:00.00 486153 N 0 0 0
0:00:00.00 486421 N 0 0 0
0:00:00.00 486680 N 0 0 0
0:00:00.00 486943 N 0 0 0
0:00:00.00 487222 N 0 0 0
0:00:00.00 487471 N 0 0 0
0:00:00.00 487737 N 0 0 0
0:00:00.00 488513 N 0 0 0
0:00:00.00 490010 N 0 0 0
0:00:00.00 490455 N 0 0 0
0:00:00.00 490702 N 0 0 0
0:00:00.00 490959 N 0 0 0
0:00:00.00 491215 N 0 0 0
0:00:00.00 491479 N 0 0 0
0:00:00.00 491742 N 0 0 0
0:00:00.00 492008 N 0 0 0
0:00:00.00 492278 N 0 0 0
0:00:00.00 492541 N 0 0 0
0:00:00.00 492791 N 0 0 0
0:00:00.00 493861 N 0 0 0
0:00:00.00 494768 N 0 0 0
0:00:00.00 495666 N 0 0 0
0:00:00.00 496170 N 0 0 0
0:00:00.00 496420 N 0 0 0
0:00:00.00 496690 N 0 0 0
0:00:00.00 496949 N 0 0 0
0:00:00.00 497210 N 0 0 0
0:00:00.00 497470 N 0 0 0
0:00:00.00 497718 N 0 0 0
0:00:00.00 497986 N 0 0 0
0:00:00.00 498256 N 0 0 0
0:00:00.00 498519 N 0 0 0
0:00:00.00 498771 N 0 0 0
0:00:00.00 499477 N 0 0 0
0:00:00.00 500404 N 0 0 0
0:00:00.00 500927 N 0 0 0
0:00:00.00 501169 N 0 0 0
0:00:00.00 501435 N 0 0 0
0:00:00.00 501705 N 0 0 0
0:00:00.00 501964 N 0 0 0
0:00:00.00 502222 N 0 0 0
0:00:00.00 502477 N 0 0 0
0:00:00.00 502742 N 0 0 0
0:00:00.00 503010 N 0 0 0
0:00:00.00 503271 N 0 0 0
0:00:00.00 503534 N 0 0 0
0:00:00.00 503793 N 0 0 0
0:00:00.00 504058 N 0 0 0
0:00:00.00 504317 N 0 0 0
0:00:00.00 504571 N 0 0 0
0:00:00.00 504853 N 0 0 0
0:00:00.00 505714 N 0 0 0
0:00:00.00 507154 N 0 0 0
0:00:00.00 507564 N 0 0 0
0:00:00.00 507816 N 0 0 0
0:00:00.00 508081 N 0 0 0
0:00:00.00 508340 N 0 0 0
0:00:00.00 508597 N 0 0 0
0:00:00.00 508862 N 0 0 0
0:00:00.00 509125 N 0 0 0
0:00:00.00 509387 N 0 0 0
0:00:00.00 509656 N 0 0 0
0:00:00.00 509902 N 0 0 0
0:00:00.00 510178 N 0 0 0
0:00:00.00 510448 N 0 0 0
0:00:00.00 512498 N 0 0 0
0:00:00.00 512921 N 0 0 0
0:00:00.00 513166 N 0 0 0
0:00:00.00 513427 N 0 0 0
0:00:00.00 513684 N 0 0 0
0:00:00.00 513945 N 0 0 0
0:00:00.00 514206 N 0 0 0
0:00:00.00 514469 N 0 0 0
0:00:00.00 514739 N 0 0 0
0:00:00.00 514996 N 0 0 0
0:00:00.00 516049 N 0 0 0
0:00:00.00 516888 N 0 0 0
0:00:00.00 517811 N 0 0 0
0:00:00.00 518719 N 0 0 0
0:00:00.00 519619 N 0 0 0
0:00:00.00 520124 N 0 0 0
0:00:00.00 520369 N 0 0 0
0:00:00.00 520634 N 0 0 0
0:00:00.00 520893 N 0 0 0
0:00:00.00 521152 N 0 0 0
0:00:00.00 521393 N 0 0 0
0:00:00.00 521667 N 0 0 0
0:00:00.00 521928 N 0 0 0
0:00:00.00 522184 N 0 0 0
0:00:00.00 522428 N 0 0 0
0:00:00.00 522697 N 0 0 0
0:00:00.00 522949 N 0 0 0
0:00:00.00 523651 N 0 0 0
0:00:00.00 524156 N 0 0 0
0:00:00.00 524401 N 0 0 0
0:00:00.00 524666 N 0 0 0
0:00:00.00 524929 N 0 0 0
0:00:00.00 525197 N 0 0 0
0:00:00.00 525454 N 0 0 0
0:00:00.00 525712 N 0 0 0
0:00:00.00 525973 N 0 0 0
0:00:00.00 526241 N 0 0 0
0:00:00.00 526500 N 0 0 0
0:00:00.00 526768 N 0 0 0
0:00:00.00 527038 N 0 0 0
0:00:00.00 527297 N 0 0 0
0:00:00.00 528061 N 0 0 0
0:00:00.00 528566 N 0 0 0
0:00:00.00 528818 N 0 0 0
0:00:00.00 529074 N 0 0 0
0:00:00.00 529348 N 0 0 0
0:00:00.00 529603 N 0 0 0
0:00:00.00 529866 N 0 0 0
0:00:00.00 530132 N 0 0 0
0:00:00.00 530379 N 0 0 0
0:00:00.00 530651 N 0 0 0
0:00:00.00 530912 N 0 0 0
0:00:00.00 531180 N 0 0 0
0:00:00.00 531448 N 0 0 0
0:00:00.00 531718 N 0 0 0
0:00:00.00 532343 N 0 0 0
0:00:00.00 532593 N 0 0 0
0:00:00.00 532868 N 0 0 0
0:00:00.00 533135 N 0 0 0
0:00:00.00 533408 N 0 0 0
0:00:00.00 534958 N 0 0 0
0:00:00.00 535403 N 0 0 0
0:00:00.00 535657 N 0 0 0
0:00:00.00 535921 N 0 0 0
0:00:00.00 536193 N 0 0 0
0:00:00.00 536465 N 0 0 0
0:00:00.00 536729 N 0 0 0
0:00:00.00 536989 N 0 0 0
0:00:00.00 537255 N 0 0 0
0:00:00.00 537532 N 0 0 0
0:00:00.00 537804 N 0 0 0
0:00:00.00 538072 N 0 0 0
0:00:00.00 539174 N 0 0 0
0:00:00.00 539608 N 0 0 0
0:00:00.00 539854 N 0 0 0
0:00:00.00 540122 N 0 0 0
0:00:00.00 540387 N 0 0 0
0:00:00.00 540646 N 0 0 0
0:00:00.00 540932 N 0 0 0
0:00:00.00 541195 N 0 0 0
0:00:00.00 542182 N 0 0 0
0:00:00.00 542752 N 0 0 0
0:00:00.00 542995 N 0 0 0
0:00:00.00 543258 N 0 0 0
0:00:00.00 543512 N 0 0 0
0:00:00.00 543778 N 0 0 0
0:00:00.00 544045 N 0 0 0
0:00:00.00 544295 N 0 0 0
0:00:00.00 544572 N 0 0 0
0:00:00.00 544844 N 0 0 0
0:00:00.00 545116 N 0 0 0
0:00:00.00 545854 N 0 0 0
0:00:00.00 546840 N 0 0 0
0:00:00.00 547326 N 0 0 0
0:00:00.00 547576 N 0 0 0
0:00:00.00 547839 N 0 0 0
0:00:00.00 548104 N 0 0 0
0:00:00.00 548370 N 0 0 0
0:00:00.00 548640 N 0 0 0
0:00:00.00 548908 N 0 0 0
0:00:00.00 549180 N 0 0 0
0:00:00.00 549448 N 0 0 0
0:00:00.00 549709 N 0 0 0
0:00:00.00 549981 N 0 0 0
0:00:00.00 550258 N 0 0 0
0:00:00.00 550526 N 0 0 0
0:00:00.00 550800 N 0 0 0
0:00:00.00 551947 N 0 0 0
0:00:00.00 552404 N 0 0 0
0:00:00.00 552656 N 0 0 0
0:00:00.00 552919 N 0 0 0
0:00:00.00 553185 N 0 0 0
0:00:00.00 553459 N 0 0 0
0:00:00.00 553721 N 0 0 0
0:00:00.00 553982 N 0 0 0
0:00:00.00 554243 N 0 0 0
0:00:00.00 554513 N 0 0 0
0:00:00.00 554764 N 0 0 0
0:00:00.00 555041 N 0 0 0
0:00:00.00 556006 N 0 0 0
0:00:00.00 556537 N 0 0 0
0:00:00.00 556792 N 0 0 0
0:00:00.00 557068 N 0 0 0
0:00:00.00 557329 N 0 0 0
0:00:00.00 557597 N 0 0 0
0:00:00.00 557856 N 0 0 0
0:00:00.00 558139 N 0 0 0
0:00:00.00 558412 N 0 0 0
0:00:00.00 558684 N 0 0 0
0:00:00.00 558950 N 0 0 0
0:00:00.00 559215 N 0 0 0
0:00:00.00 559471 N 0 0 0
0:00:00.00 559764 N 0 0 0
0:00:00.00 560860 N 0 0 0
0:00:00.00 561305 N 0 0 0
0:00:00.00 561560 N 0 0 0
0:00:00.00 561834 N 0 0 0
0:00:00.00 562108 N 0 0 0
0:00:00.00 562372 N 0 0 0
0:00:00.00 562642 N 0 0 0
0:00:00.00 562921 N 0 0 0
0:00:00.00 563184 N 0 0 0
0:00:00.00 563459 N 0 0 0
0:00:00.00 563733 N 0 0 0
0:00:00.00 564007 N 0 0 0
0:00:00.00 564273 N 0 0 0
0:00:00.00 564971 N 0 0 0
0:00:00.00 565477 N 0 0 0
0:00:00.00 565726 N 0 0 0
0:00:00.00 566008 N 0 0 0
0:00:00.00 566280 N 0 0 0
0:00:00.00 566555 N 0 0 0
0:00:00.00 566822 N 0 0 0
0:00:00.00 567092 N 0 0 0
0:00:00.00 567365 N 0 0 0
0:00:00.00 567639 N 0 0 0
0:00:00.00 567909 N 0 0 0
0:00:00.00 568201 N 0 0 0
0:00:00.00 568478 N 0 0 0
0:00:00.00 568751 N 0 0 0
0:00:00.00 569038 N 0 0 0
0:00:00.00 569925 N 0 0 0
0:00:00.00 570476 N 0 0 0
0:00:00.00 570731 N 0 0 0
0:00:00.00 571012 N 0 0 0
0:00:00.00 571286 N 0 0 0
0:00:00.00 571549 N 0 0 0
0:00:00.00 571829 N 0 0 0
0:00:00.00 572107 N 0 0 0
0:00:00.00 573385 N 0 0 0
0:00:00.00 573988 N 0 0 0
0:00:00.00 574241 N 0 0 0
0:00:00.00 574502 N 0 0 0
0:00:00.00 574787 N 0 0 0
0:00:00.00 575055 N 0 0 0
0:00:00.00 575314 N 0 0 0
0:00:00.00 575606 N 0 0 0
0:00:00.00 575878 N 0 0 0
0:00:00.00 576135 N 0 0 0
0:00:00.00 576407 N 0 0 0
0:00:00.00 577532 N 0 0 0
0:00:00.00 577978 N 0 0 0
0:00:00.00 578232 N 0 0 0
0:00:00.00 578513 N 0 0 0
0:00:00.00 578790 N 0 0 0
0:00:00.00 579062 N 0 0 0
0:00:00.00 579334 N 0 0 0
0:00:00.00 579602 N 0 0 0
0:00:00.00 579879 N 0 0 0
0:00:00.00 580149 N 0 0 0
0:00:00.00 580430 N 0 0 0
0:00:00.00 580711 N 0 0 0
0:00:00.00 580981 N 0 0 0
0:00:00.00 581947 N 0 0 0
0:00:00.00 582340 N 0 0 0
0:00:00.00 582590 N 0 0 0
0:00:00.00 582860 N 0 0 0
0:00:00.00 583128 N 0 0 0
0:00:00.00 583400 N 0 0 0
0:00:00.00 583672 N 0 0 0
0:00:00.00 583945 N 0 0 0
0:00:00.00 584647 N 0 0 0
0:00:00.00 585653 N 0 0 0
0:00:00.00 586069 N 0 0 0
0:00:00.00 586319 N 0 0 0
0:00:00.00 586579 N 0 0 0
0:00:00.00 586854 N 0 0 0
0:00:00.00 587117 N 0 0 0
0:00:00.00 587380 N 0 0 0
0:00:00.00 587639 N 0 0 0
0:00:00.00 588445 N 0 0 0
0:00:00.00 588944 N 0 0 0
0:00:00.00 589192 N 0 0 0
0:00:00.00 589466 N 0 0 0
0:00:00.00 589723 N 0 0 0
0:00:00.00 590009 N 0 0 0
0:00:00.00 590276 N 0 0 0
0:00:00.00 590546 N 0 0 0
0:00:00.00 590816 N 0 0 0
0:00:00.00 591093 N 0 0 0
0:00:00.00 591374 N 0 0 0
0:00:00.00 591644 N 0 0 0
0:00:00.00 592522 N 0 0 0
0:00:00.00 593069 N 0 0 0
0:00:00.00 593327 N 0 0 0
0:00:00.00 593597 N 0 0 0
0:00:00.00 593863 N 0 0 0
0:00:00.00 594135 N 0 0 0
0:00:00.00 594412 N 0 0 0
0:00:00.00 594684 N 0 0 0
0:00:00.00 594954 N 0 0 0
0:00:00.00 595220 N 0 0 0
0:00:00.00 595474 N 0 0 0
0:00:00.00 595760 N 0 0 0
0:00:00.00 596038 N 0 0 0
0:00:00.00 597200 N 0 0 0
0:00:00.00 598167 N 0 0 0
0:00:00.00 598705 N 0 0 0
0:00:00.00 598948 N 0 0 0
0:00:00.00 599222 N 0 0 0
0:00:00.00 599492 N 0 0 0
0:00:00.00 599753 N 0 0 0
0:00:00.00 600023 N 0 0 0
0:00:00.00 600282 N 0 0 0
0:00:00.00 600550 N 0 0 0
0:00:00.00 600827 N 0 0 0
0:00:00.00 601094 N 0 0 0
0:00:00.00 601355 N 0 0 0
0:00:00.00 601621 N 0 0 0
0:00:00.00 601893 N 0 0 0
0:00:00.00 602158 N 0 0 0
0:00:00.00 603038 N 0 0 0
0:00:00.00 603524 N 0 0 0
0:00:00.00 603776 N 0 0 0
0:00:00.00 604044 N 0 0 0
0:00:00.00 604312 N 0 0 0
0:00:00.00 604573 N 0 0 0
0:00:00.00 604838 N 0 0 0
0:00:00.00 605108 N 0 0 0
0:00:00.00 605783 N 0 0 0
0:00:00.00 606713 N 0 0 0
0:00:00.00 607163 N 0 0 0
0:00:00.00 607414 N 0 0 0
0:00:00.00 607675 N 0 0 0
0:00:00.00 607934 N 0 0 0
0:00:00.00 608197 N 0 0 0
0:00:00.00 608454 N 0 0 0
0:00:00.00 608720 N 0 0 0
0:00:00.00 608983 N 0 0 0
0:00:00.00 609246 N 0 0 0
0:00:00.00 609511 N 0 0 0
0:00:00.00 609755 N 0 0 0
0:00:00.00 610040 N 0 0 0
0:00:00.00 610677 N 0 0 0
0:00:00.00 610927 N 0 0 0
0:00:00.00 611204 N 0 0 0
0:00:00.00 611480 N 0 0 0
0:00:00.00 611752 N 0 0 0
0:00:00.00 613354 N 0 0 0
0:00:00.00 613784 N 0 0 0
0:00:00.00 614041 N 0 0 0
0:00:00.00 614336 N 0 0 0
0:00:00.00 614621 N 0 0 0
0:00:00.00 615348 N 0 0 0
0:00:00.00 616239 N 0 0 0
0:00:00.00 617121 N 0 0 0
0:00:00.00 617965 N 0 0 0
0:00:00.00 618804 N 0 0 0
0:00:00.00 619637 N 0 0 0
0:00:00.00 619882 N 0 0 0
0:00:00.00 620138 N 0 0 0
0:00:00.00 620384 N 0 0 0
0:00:00.00 620636 N 0 0 0
0:00:00.00 620897 N 0 0 0
0:00:00.00 621148 N 0 0 0
0:00:00.00 621398 N 0 0 0
0:00:00.00 621675 N 0 0 0
0:00:00.00 621927 N 0 0 0
0:00:00.00 622186 N 0 0 0
0:00:00.00 622444 N 0 0 0
0:00:00.00 622699 N 0 0 0
0:00:00.00 622978 N 0 0 0
0:00:00.00 623241 N 0 0 0
0:00:00.00 623889 N 0 0 0
0:00:00.00 624382 N 0 0 0
0:00:00.00 624629 N 0 0 0
0:00:00.00 624904 N 0 0 0
0:00:00.00 625160 N 0 0 0
0:00:00.00 625415 N 0 0 0
0:00:00.00 625684 N 0 0 0
0:00:00.00 625955 N 0 0 0
0:00:00.00 626204 N 0 0 0
0:00:00.00 626483 N 0 0 0
0:00:00.00 626751 N 0 0 0
0:00:00.00 627016 N 0 0 0
0:00:00.00 627278 N 0 0 0
0:00:00.00 627545 N 0 0 0
0:00:00.00 627815 N 0 0 0
0:00:00.00 628081 N 0 0 0
0:00:00.00 628348 N 0 0 0
0:00:00.00 629051 N 0 0 0
0:00:00.00 629975 N 0 0 0
0:00:00.00 630477 N 0 0 0
0:00:00.00 630725 N 0 0 0
0:00:00.00 630992 N 0 0 0
0:00:00.00 631251 N 0 0 0
0:00:00.00 631508 N 0 0 0
0:00:00.00 631768 N 0 0 0
0:00:00.00 632014 N 0 0 0
0:00:00.00 632297 N 0 0 0
0:00:00.00 632572 N 0 0 0
0:00:00.00 632840 N 0 0 0
0:00:00.00 633566 N 0 0 0
0:00:00.00 634621 N 0 0 0
0:00:00.00 635058 N 0 0 0
0:00:00.00 635314 N 0 0 0
0:00:00.00 635575 N 0 0 0
0:00:00.00 635852 N 0 0 0
0:00:00.00 636115 N 0 0 0
0:00:00.00 636363 N 0 0 0
0:00:00.00 636646 N 0 0 0
0:00:00.00 636917 N 0 0 0
0:00:00.00 637186 N 0 0 0
0:00:00.00 637456 N 0 0 0
0:00:00.00 637726 N 0 0 0
0:00:00.00 637994 N 0 0 0
0:00:00.00 638942 N 0 0 0
0:00:00.00 639446 N 0 0 0
0:00:00.00 639706 N 0 0 0
0:00:00.00 639976 N 0 0 0
0:00:00.00 640246 N 0 0 0
0:00:00.00 640517 N 0 0 0
0:00:00.00 640784 N 0 0 0
0:00:00.00 641050 N 0 0 0
0:00:00.00 641318 N 0 0 0
0:00:00.00 641592 N 0 0 0
0:00:00.00 641871 N 0 0 0
0:00:00.00 642143 N 0 0 0
0:00:00.00 643261 N 0 0 0
0:00:00.00 643837 N 0 0 0
0:00:00.00 644087 N 0 0 0
0:00:00.00 644353 N 0 0 0
0:00:00.00 644625 N 0 0 0
0:00:00.00 644899 N 0 0 0
0:00:00.00 645172 N 0 0 0
0:00:00.00 645444 N 0 0 0
0:00:00.00 645712 N 0 0 0
0:00:00.00 645977 N 0 0 0
0:00:00.00 646245 N 0 0 0
0:00:00.00 646520 N 0 0 0
0:00:00.00 647159 N 0 0 0
0:00:00.00 647413 N 0 0 0
0:00:00.00 647681 N 0 0 0
0:00:00.00 647944 N 0 0 0
0:00:00.00 648229 N 0 0 0
0:00:00.00 648848 N 0 0 0
0:00:00.00 649098 N 0 0 0
0:00:00.00 649368 N 0 0 0
