0:00:00.00 32 N 0 0 0
0:00:00.00 320 N 0 0 0
0:00:00.00 509 N 0 0 0
0:00:00.00 749 N 0 0 0
0:00:00.00 964 N 0 0 0
0:00:00.00 1096 N 0 0 0
0:00:00.00 1384 N 0 0 0
0:00:00.00 1573 N 0 0 0
0:00:00.00 1819 N 0 0 0
0:00:00.00 2035 N 0 0 0
0:00:00.00 2163 N 0 0 0
0:00:00.00 2172 N 0 0 0
0:00:00.00 2449 N 0 0 0
0:00:00.00 2671 N 0 0 0
0:00:00.00 2884 N 0 0 0
0:00:00.00 3017 N 0 0 0
0:00:00.00 3308 N 0 0 0
0:00:00.00 3521 N 0 0 0
0:00:00.00 3729 N 0 0 0
0:00:00.00 3944 N 0 0 0
0:00:00.00 4160 N 0 0 0
0:00:00.00 4375 N 0 0 0
0:00:00.00 4510 N 0 0 0
0:00:00.00 4796 N 0 0 0
0:00:00.00 4956 N 0 0 0
0:00:00.00 4966 N 0 0 0
0:00:00.00 5218 N 0 0 0
0:00:00.00 5439 N 0 0 0
0:00:00.00 5583 N 0 0 0
0:00:00.00 5755 N 0 0 0
0:00:00.00 5763 N 0 0 0
0:00:00.00 6044 N 0 0 0
0:00:00.00 6253 N 0 0 0
0:00:00.00 6465 N 0 0 0
0:00:00.00 6680 N 0 0 0
0:00:00.00 6892 N 0 0 0
0:00:00.00 7101 N 0 0 0
0:00:00.00 7311 N 0 0 0
0:00:00.00 7475 N 0 0 0
0:00:00.00 7710 N 0 0 0
0:00:00.00 7925 N 0 0 0
0:00:00.00 8061 N 0 0 0
0:00:00.00 8347 N 0 0 0
0:00:00.00 8557 N 0 0 0
0:00:00.00 8766 N 0 0 0
0:00:00.00 8907 N 0 0 0
0:00:00.00 9190 N 0 0 0
0:00:00.00 9400 N 0 0 0
0:00:00.00 9604 N 0 0 0
0:00:00.00 9813 N 0 0 0
0:00:00.00 9997 N 0 0 0
0:00:00.00 10220 N 0 0 0
0:00:00.00 10351 N 0 0 0
0:00:00.00 10648 N 0 0 0
0:00:00.00 10818 N 0 0 0
0:00:00.00 10827 N 0 0 0
0:00:00.00 11057 N 0 0 0
0:00:00.00 11268 N 0 0 0
0:00:00.00 11404 N 0 0 0
0:00:00.00 11692 N 0 0 0
0:00:00.00 11880 N 0 0 0
0:00:00.00 12107 N 0 0 0
0:00:00.00 12314 N 0 0 0
0:00:00.00 12452 N 0 0 0
0:00:00.00 12735 N 0 0 0
0:00:00.00 12929 N 0 0 0
0:00:00.00 13155 N 0 0 0
0:00:00.00 13363 N 0 0 0
0:00:00.00 13564 N 0 0 0
0:00:00.00 13731 N 0 0 0
0:00:00.00 13740 N 0 0 0
0:00:00.00 13980 N 0 0 0
0:00:00.00 14186 N 0 0 0
0:00:00.00 14322 N 0 0 0
0:00:00.00 14330 N 0 0 0
0:00:00.00 14591 N 0 0 0
0:00:00.00 14779 N 0 0 0
0:00:00.00 14788 N 0 0 0
0:00:00.00 14999 N 0 0 0
0:00:00.00 15205 N 0 0 0
0:00:00.00 15412 N 0 0 0
0:00:00.00 15596 N 0 0 0
0:00:00.00 15713 N 0 0 0
0:00:00.00 16022 N 0 0 0
0:00:00.00 16171 N 0 0 0
0:00:00.00 16442 N 0 0 0
0:00:00.00 16647 N 0 0 0
0:00:00.00 16852 N 0 0 0
0:00:00.00 17052 N 0 0 0
0:00:00.00 17255 N 0 0 0
0:00:00.00 17387 N 0 0 0
0:00:00.00 17665 N 0 0 0
0:00:00.00 17875 N 0 0 0
0:00:00.00 18076 N 0 0 0
0:00:00.00 18211 N 0 0 0
0:00:00.00 18480 N 0 0 0
0:00:00.00 18686 N 0 0 0
0:00:00.00 18897 N 0 0 0
0:00:00.00 19099 N 0 0 0
0:00:00.00 19303 N 0 0 0
0:00:00.00 19447 N 0 0 0
0:00:00.00 19706 N 0 0 0
0:00:00.00 19910 N 0 0 0
0:00:00.00 20119 N 0 0 0
0:00:00.00 20292 N 0 0 0
0:00:00.00 20302 N 0 0 0
0:00:00.00 20526 N 0 0 0
0:00:00.00 20732 N 0 0 0
0:00:00.00 20862 N 0 0 0
0:00:00.00 21140 N 0 0 0
0:00:00.00 21352 N 0 0 0
0:00:00.00 21556 N 0 0 0
0:00:00.00 21762 N 0 0 0
0:00:00.00 21964 N 0 0 0
0:00:00.00 22170 N 0 0 0
0:00:00.00 22307 N 0 0 0
0:00:00.00 22579 N 0 0 0
0:00:00.00 22767 N 0 0 0
0:00:00.00 22991 N 0 0 0
0:00:00.00 23196 N 0 0 0
0:00:00.00 23322 N 0 0 0
0:00:00.00 23602 N 0 0 0
0:00:00.00 23745 N 0 0 0
0:00:00.00 24014 N 0 0 0
0:00:00.00 24219 N 0 0 0
0:00:00.00 24425 N 0 0 0
0:00:00.00 24632 N 0 0 0
0:00:00.00 24832 N 0 0 0
0:00:00.00 24996 N 0 0 0
0:00:00.00 25006 N 0 0 0
0:00:00.00 25248 N 0 0 0
0:00:00.00 25453 N 0 0 0
0:00:00.00 25586 N 0 0 0
0:00:00.00 25856 N 0 0 0
0:00:00.00 26047 N 0 0 0
0:00:00.00 26280 N 0 0 0
0:00:00.00 26489 N 0 0 0
0:00:00.00 26621 N 0 0 0
0:00:00.00 26896 N 0 0 0
0:00:00.00 27104 N 0 0 0
0:00:00.00 27308 N 0 0 0
0:00:00.00 27452 N 0 0 0
0:00:00.00 27728 N 0 0 0
0:00:00.00 27935 N 0 0 0
0:00:00.00 28135 N 0 0 0
0:00:00.00 28298 N 0 0 0
0:00:00.00 28307 N 0 0 0
0:00:00.00 28543 N 0 0 0
0:00:00.00 28755 N 0 0 0
0:00:00.00 28889 N 0 0 0
0:00:00.00 29156 N 0 0 0
0:00:00.00 29317 N 0 0 0
0:00:00.00 29733 N 0 0 0
0:00:00.00 29945 N 0 0 0
0:00:00.00 30152 N 0 0 0
0:00:00.00 30357 N 0 0 0
0:00:00.00 30560 N 0 0 0
0:00:00.00 30761 N 0 0 0
0:00:00.00 30966 N 0 0 0
0:00:00.00 31178 N 0 0 0
0:00:00.00 31381 N 0 0 0
0:00:00.00 31583 N 0 0 0
0:00:00.00 31783 N 0 0 0
0:00:00.00 31913 N 0 0 0
0:00:00.00 32186 N 0 0 0
0:00:00.00 32389 N 0 0 0
0:00:00.00 32588 N 0 0 0
0:00:00.00 32791 N 0 0 0
0:00:00.00 32991 N 0 0 0
0:00:00.00 33124 N 0 0 0
0:00:00.00 33388 N 0 0 0
0:00:00.00 33596 N 0 0 0
0:00:00.00 33796 N 0 0 0
0:00:00.00 33940 N 0 0 0
0:00:00.00 34195 N 0 0 0
0:00:00.00 34394 N 0 0 0
0:00:00.00 34598 N 0 0 0
0:00:00.00 34801 N 0 0 0
0:00:00.00 35003 N 0 0 0
0:00:00.00 35149 N 0 0 0
0:00:00.00 35406 N 0 0 0
0:00:00.00 35605 N 0 0 0
0:00:00.00 35805 N 0 0 0
0:00:00.00 36008 N 0 0 0
0:00:00.00 36211 N 0 0 0
0:00:00.00 36412 N 0 0 0
0:00:00.00 36605 N 0 0 0
0:00:00.00 36743 N 0 0 0
0:00:00.00 37003 N 0 0 0
0:00:00.00 37203 N 0 0 0
0:00:00.00 37402 N 0 0 0
0:00:00.00 37606 N 0 0 0
0:00:00.00 37800 N 0 0 0
0:00:00.00 37999 N 0 0 0
0:00:00.00 38196 N 0 0 0
0:00:00.00 38398 N 0 0 0
0:00:00.00 38601 N 0 0 0
0:00:00.00 38803 N 0 0 0
0:00:00.00 39004 N 0 0 0
0:00:00.00 39204 N 0 0 0
0:00:00.00 39406 N 0 0 0
0:00:00.00 39604 N 0 0 0
0:00:00.00 39809 N 0 0 0
0:00:00.00 39960 N 0 0 0
0:00:00.00 40214 N 0 0 0
0:00:00.00 40420 N 0 0 0
0:00:00.00 40620 N 0 0 0
0:00:00.00 40829 N 0 0 0
0:00:00.00 41037 N 0 0 0
0:00:00.00 41240 N 0 0 0
0:00:00.00 41444 N 0 0 0
0:00:00.00 41643 N 0 0 0
0:00:00.00 41856 N 0 0 0
0:00:00.00 42057 N 0 0 0
0:00:00.00 42269 N 0 0 0
0:00:00.00 42481 N 0 0 0
0:00:00.00 42608 N 0 0 0
0:00:00.00 42893 N 0 0 0
0:00:00.00 43078 N 0 0 0
0:00:00.00 43315 N 0 0 0
0:00:00.00 43526 N 0 0 0
0:00:00.00 43658 N 0 0 0
0:00:00.00 43932 N 0 0 0
0:00:00.00 44114 N 0 0 0
0:00:00.00 44123 N 0 0 0
0:00:00.00 44351 N 0 0 0
0:00:00.00 44558 N 0 0 0
0:00:00.00 44693 N 0 0 0
0:00:00.00 44982 N 0 0 0
0:00:00.00 45111 N 0 0 0
0:00:00.00 45391 N 0 0 0
0:00:00.00 45521 N 0 0 0
0:00:00.00 45822 N 0 0 0
0:00:00.00 45990 N 0 0 0
0:00:00.00 46245 N 0 0 0
0:00:00.00 46451 N 0 0 0
0:00:00.00 46583 N 0 0 0
0:00:00.00 46858 N 0 0 0
0:00:00.00 47012 N 0 0 0
0:00:00.00 47261 N 0 0 0
0:00:00.00 47477 N 0 0 0
0:00:00.00 47617 N 0 0 0
0:00:00.00 47891 N 0 0 0
0:00:00.00 48083 N 0 0 0
0:00:00.00 48313 N 0 0 0
0:00:00.00 48453 N 0 0 0
0:00:00.00 48725 N 0 0 0
0:00:00.00 48866 N 0 0 0
0:00:00.00 49136 N 0 0 0
0:00:00.00 49344 N 0 0 0
0:00:00.00 49555 N 0 0 0
0:00:00.00 49719 N 0 0 0
0:00:00.00 49969 N 0 0 0
0:00:00.00 50180 N 0 0 0
0:00:00.00 50315 N 0 0 0
0:00:00.00 50592 N 0 0 0
0:00:00.00 50727 N 0 0 0
0:00:00.00 51019 N 0 0 0
0:00:00.00 51161 N 0 0 0
0:00:00.00 51169 N 0 0 0
0:00:00.00 51436 N 0 0 0
0:00:00.00 51603 N 0 0 0
0:00:00.00 51860 N 0 0 0
0:00:00.00 52077 N 0 0 0
0:00:00.00 52215 N 0 0 0
0:00:00.00 52498 N 0 0 0
0:00:00.00 52631 N 0 0 0
0:00:00.00 52919 N 0 0 0
0:00:00.00 53060 N 0 0 0
0:00:00.00 53349 N 0 0 0
0:00:00.00 53516 N 0 0 0
0:00:00.00 53647 N 0 0 0
0:00:00.00 53968 N 0 0 0
0:00:00.00 54119 N 0 0 0
0:00:00.00 54130 N 0 0 0
0:00:00.00 54394 N 0 0 0
0:00:00.00 54611 N 0 0 0
0:00:00.00 54745 N 0 0 0
0:00:00.00 54754 N 0 0 0
0:00:00.00 55032 N 0 0 0
0:00:00.00 55167 N 0 0 0
0:00:00.00 55459 N 0 0 0
0:00:00.00 55679 N 0 0 0
0:00:00.00 55812 N 0 0 0
0:00:00.00 56098 N 0 0 0
0:00:00.00 56237 N 0 0 0
0:00:00.00 56525 N 0 0 0
0:00:00.00 56672 N 0 0 0
0:00:00.00 56925 N 0 0 0
0:00:00.00 57146 N 0 0 0
0:00:00.00 57283 N 0 0 0
0:00:00.00 57292 N 0 0 0
0:00:00.00 57561 N 0 0 0
0:00:00.00 57753 N 0 0 0
0:00:00.00 57990 N 0 0 0
0:00:00.00 58207 N 0 0 0
0:00:00.00 58335 N 0 0 0
0:00:00.00 58624 N 0 0 0
0:00:00.00 58760 N 0 0 0
0:00:00.00 59054 N 0 0 0
0:00:00.00 59192 N 0 0 0
0:00:00.00 59480 N 0 0 0
0:00:00.00 59651 N 0 0 0
0:00:00.00 59909 N 0 0 0
0:00:00.00 60119 N 0 0 0
0:00:00.00 60254 N 0 0 0
0:00:00.00 60553 N 0 0 0
0:00:00.00 60766 N 0 0 0
0:00:00.00 60889 N 0 0 0
0:00:00.00 61190 N 0 0 0
0:00:00.00 61403 N 0 0 0
0:00:00.00 61610 N 0 0 0
0:00:00.00 61743 N 0 0 0
0:00:00.00 62029 N 0 0 0
0:00:00.00 62238 N 0 0 0
0:00:00.00 62375 N 0 0 0
0:00:00.00 62648 N 0 0 0
0:00:00.00 62865 N 0 0 0
0:00:00.00 63008 N 0 0 0
0:00:00.00 63287 N 0 0 0
0:00:00.00 63419 N 0 0 0
0:00:00.00 63701 N 0 0 0
0:00:00.00 63917 N 0 0 0
0:00:00.00 64121 N 0 0 0
0:00:00.00 64332 N 0 0 0
0:00:00.00 64546 N 0 0 0
0:00:00.00 64752 N 0 0 0
0:00:00.00 64886 N 0 0 0
0:00:00.00 65159 N 0 0 0
0:00:00.00 65342 N 0 0 0
0:00:00.00 65352 N 0 0 0
0:00:00.00 65577 N 0 0 0
0:00:00.00 65786 N 0 0 0
0:00:00.00 65986 N 0 0 0
0:00:00.00 66150 N 0 0 0
0:00:00.00 66396 N 0 0 0
0:00:00.00 66598 N 0 0 0
0:00:00.00 66805 N 0 0 0
0:00:00.00 66936 N 0 0 0
0:00:00.00 67140 N 0 0 0
0:00:00.00 67383 N 0 0 0
0:00:00.00 67590 N 0 0 0
0:00:00.00 67800 N 0 0 0
0:00:00.00 68010 N 0 0 0
0:00:00.00 68218 N 0 0 0
0:00:00.00 68348 N 0 0 0
0:00:00.00 68357 N 0 0 0
0:00:00.00 68622 N 0 0 0
0:00:00.00 68785 N 0 0 0
0:00:00.00 69036 N 0 0 0
0:00:00.00 69250 N 0 0 0
0:00:00.00 69386 N 0 0 0
0:00:00.00 69664 N 0 0 0
0:00:00.00 69800 N 0 0 0
0:00:00.00 70079 N 0 0 0
0:00:00.00 70289 N 0 0 0
0:00:00.00 70416 N 0 0 0
0:00:00.00 70710 N 0 0 0
0:00:00.00 70886 N 0 0 0
0:00:00.00 70896 N 0 0 0
0:00:00.00 71123 N 0 0 0
0:00:00.00 71334 N 0 0 0
0:00:00.00 71540 N 0 0 0
0:00:00.00 71712 N 0 0 0
0:00:00.00 71721 N 0 0 0
0:00:00.00 71955 N 0 0 0
0:00:00.00 72160 N 0 0 0
0:00:00.00 72365 N 0 0 0
0:00:00.00 72537 N 0 0 0
0:00:00.00 72546 N 0 0 0
0:00:00.00 72784 N 0 0 0
0:00:00.00 72994 N 0 0 0
0:00:00.00 73128 N 0 0 0
0:00:00.00 73407 N 0 0 0
0:00:00.00 73543 N 0 0 0
0:00:00.00 73552 N 0 0 0
0:00:00.00 73806 N 0 0 0
0:00:00.00 74022 N 0 0 0
0:00:00.00 75703 N 0 0 0
0:00:00.00 75815 N 0 0 0
0:00:00.00 76119 N 0 0 0
0:00:00.00 76289 N 0 0 0
0:00:00.00 76299 N 0 0 0
0:00:00.00 76543 N 0 0 0
0:00:00.00 76759 N 0 0 0
0:00:00.00 76894 N 0 0 0
0:00:00.00 77179 N 0 0 0
0:00:00.00 77308 N 0 0 0
0:00:00.00 77604 N 0 0 0
0:00:00.00 77743 N 0 0 0
0:00:00.00 78036 N 0 0 0
0:00:00.00 78247 N 0 0 0
0:00:00.00 78455 N 0 0 0
0:00:00.00 78671 N 0 0 0
0:00:00.00 78881 N 0 0 0
0:00:00.00 79093 N 0 0 0
0:00:00.00 79310 N 0 0 0
0:00:00.00 79515 N 0 0 0
0:00:00.00 79696 N 0 0 0
0:00:00.00 79837 N 0 0 0
0:00:00.00 80145 N 0 0 0
0:00:00.00 80361 N 0 0 0
0:00:00.00 80541 N 0 0 0
0:00:00.00 80773 N 0 0 0
0:00:00.00 80982 N 0 0 0
0:00:00.00 81123 N 0 0 0
0:00:00.00 81397 N 0 0 0
0:00:00.00 81612 N 0 0 0
0:00:00.00 81823 N 0 0 0
0:00:00.00 82034 N 0 0 0
0:00:00.00 82215 N 0 0 0
0:00:00.00 82370 N 0 0 0
0:00:00.00 82663 N 0 0 0
0:00:00.00 82873 N 0 0 0
0:00:00.00 83083 N 0 0 0
0:00:00.00 83290 N 0 0 0
0:00:00.00 83500 N 0 0 0
0:00:00.00 83707 N 0 0 0
0:00:00.00 83916 N 0 0 0
0:00:00.00 84128 N 0 0 0
0:00:00.00 84286 N 0 0 0
0:00:00.00 84296 N 0 0 0
0:00:00.00 84523 N 0 0 0
0:00:00.00 84746 N 0 0 0
0:00:00.00 84956 N 0 0 0
0:00:00.00 85167 N 0 0 0
0:00:00.00 85372 N 0 0 0
0:00:00.00 85497 N 0 0 0
0:00:00.00 85779 N 0 0 0
0:00:00.00 85991 N 0 0 0
0:00:00.00 86197 N 0 0 0
0:00:00.00 86411 N 0 0 0
0:00:00.00 86625 N 0 0 0
0:00:00.00 86829 N 0 0 0
0:00:00.00 87036 N 0 0 0
0:00:00.00 87164 N 0 0 0
0:00:00.00 87455 N 0 0 0
0:00:00.00 87629 N 0 0 0
0:00:00.00 87639 N 0 0 0
0:00:00.00 87879 N 0 0 0
0:00:00.00 88085 N 0 0 0
0:00:00.00 88214 N 0 0 0
0:00:00.00 88496 N 0 0 0
0:00:00.00 88626 N 0 0 0
0:00:00.00 88920 N 0 0 0
0:00:00.00 89132 N 0 0 0
0:00:00.00 89342 N 0 0 0
0:00:00.00 89549 N 0 0 0
0:00:00.00 89763 N 0 0 0
0:00:00.00 89980 N 0 0 0
0:00:00.00 90188 N 0 0 0
0:00:00.00 90399 N 0 0 0
0:00:00.00 90611 N 0 0 0
0:00:00.00 90824 N 0 0 0
0:00:00.00 91028 N 0 0 0
0:00:00.00 91244 N 0 0 0
0:00:00.00 91460 N 0 0 0
0:00:00.00 91666 N 0 0 0
0:00:00.00 91873 N 0 0 0
0:00:00.00 92004 N 0 0 0
0:00:00.00 92291 N 0 0 0
0:00:00.00 92497 N 0 0 0
0:00:00.00 92716 N 0 0 0
0:00:00.00 92921 N 0 0 0
0:00:00.00 93130 N 0 0 0
0:00:00.00 93295 N 0 0 0
0:00:00.00 93418 N 0 0 0
0:00:00.00 93750 N 0 0 0
0:00:00.00 93917 N 0 0 0
0:00:00.00 94180 N 0 0 0
0:00:00.00 94390 N 0 0 0
0:00:00.00 94599 N 0 0 0
0:00:00.00 94817 N 0 0 0
0:00:00.00 95031 N 0 0 0
0:00:00.00 95167 N 0 0 0
0:00:00.00 95452 N 0 0 0
0:00:00.00 95666 N 0 0 0
0:00:00.00 95788 N 0 0 0
0:00:00.00 96091 N 0 0 0
0:00:00.00 96309 N 0 0 0
0:00:00.00 96524 N 0 0 0
0:00:00.00 96738 N 0 0 0
0:00:00.00 96945 N 0 0 0
0:00:00.00 97076 N 0 0 0
0:00:00.00 97374 N 0 0 0
0:00:00.00 97590 N 0 0 0
0:00:00.00 97798 N 0 0 0
0:00:00.00 98011 N 0 0 0
0:00:00.00 98224 N 0 0 0
0:00:00.00 98356 N 0 0 0
0:00:00.00 98646 N 0 0 0
0:00:00.00 98864 N 0 0 0
0:00:00.00 99078 N 0 0 0
0:00:00.00 99290 N 0 0 0
0:00:00.00 99501 N 0 0 0
0:00:00.00 99714 N 0 0 0
0:00:00.00 99854 N 0 0 0
0:00:00.00 100139 N 0 0 0
0:00:00.00 100349 N 0 0 0
0:00:00.00 100559 N 0 0 0
0:00:00.00 100695 N 0 0 0
0:00:00.00 100986 N 0 0 0
0:00:00.00 101153 N 0 0 0
0:00:00.00 101163 N 0 0 0
0:00:00.00 101412 N 0 0 0
0:00:00.00 101627 N 0 0 0
0:00:00.00 101836 N 0 0 0
0:00:00.00 102039 N 0 0 0
0:00:00.00 102050 N 0 0 0
0:00:00.00 102268 N 0 0 0
0:00:00.00 102479 N 0 0 0
0:00:00.00 102691 N 0 0 0
0:00:00.00 102905 N 0 0 0
0:00:00.00 103034 N 0 0 0
0:00:00.00 103326 N 0 0 0
0:00:00.00 103547 N 0 0 0
0:00:00.00 103770 N 0 0 0
0:00:00.00 103900 N 0 0 0
0:00:00.00 104195 N 0 0 0
0:00:00.00 104355 N 0 0 0
0:00:00.00 104364 N 0 0 0
0:00:00.00 104631 N 0 0 0
0:00:00.00 104850 N 0 0 0
0:00:00.00 105067 N 0 0 0
0:00:00.00 105277 N 0 0 0
0:00:00.00 105485 N 0 0 0
0:00:00.00 105620 N 0 0 0
0:00:00.00 105909 N 0 0 0
0:00:00.00 106126 N 0 0 0
0:00:00.00 106338 N 0 0 0
0:00:00.00 106550 N 0 0 0
0:00:00.00 106758 N 0 0 0
0:00:00.00 106890 N 0 0 0
0:00:00.00 107187 N 0 0 0
0:00:00.00 107399 N 0 0 0
0:00:00.00 107610 N 0 0 0
0:00:00.00 107741 N 0 0 0
0:00:00.00 108033 N 0 0 0
0:00:00.00 108246 N 0 0 0
0:00:00.00 108461 N 0 0 0
0:00:00.00 108601 N 0 0 0
0:00:00.00 108887 N 0 0 0
0:00:00.00 109102 N 0 0 0
0:00:00.00 109312 N 0 0 0
0:00:00.00 109451 N 0 0 0
0:00:00.00 109747 N 0 0 0
0:00:00.00 109902 N 0 0 0
0:00:00.00 109912 N 0 0 0
0:00:00.00 110308 N 0 0 0
0:00:00.00 111912 N 0 0 0
0:00:00.00 112053 N 0 0 0
0:00:00.00 112351 N 0 0 0
0:00:00.00 112565 N 0 0 0
0:00:00.00 112779 N 0 0 0
0:00:00.00 112916 N 0 0 0
0:00:00.00 113210 N 0 0 0
0:00:00.00 113368 N 0 0 0
0:00:00.00 113379 N 0 0 0
0:00:00.00 113649 N 0 0 0
0:00:00.00 113780 N 0 0 0
0:00:00.00 114073 N 0 0 0
0:00:00.00 114241 N 0 0 0
0:00:00.00 114509 N 0 0 0
0:00:00.00 114725 N 0 0 0
0:00:00.00 114937 N 0 0 0
0:00:00.00 115150 N 0 0 0
0:00:00.00 115366 N 0 0 0
0:00:00.00 115497 N 0 0 0
0:00:00.00 115793 N 0 0 0
0:00:00.00 116014 N 0 0 0
0:00:00.00 116227 N 0 0 0
0:00:00.00 116360 N 0 0 0
0:00:00.00 116655 N 0 0 0
0:00:00.00 116881 N 0 0 0
0:00:00.00 117094 N 0 0 0
0:00:00.00 117229 N 0 0 0
0:00:00.00 117510 N 0 0 0
0:00:00.00 117722 N 0 0 0
0:00:00.00 117933 N 0 0 0
0:00:00.00 118068 N 0 0 0
0:00:00.00 118363 N 0 0 0
0:00:00.00 118577 N 0 0 0
0:00:00.00 118789 N 0 0 0
0:00:00.00 118920 N 0 0 0
0:00:00.00 119215 N 0 0 0
0:00:00.00 119439 N 0 0 0
0:00:00.00 119656 N 0 0 0
0:00:00.00 119789 N 0 0 0
0:00:00.00 120079 N 0 0 0
0:00:00.00 120298 N 0 0 0
0:00:00.00 120513 N 0 0 0
0:00:00.00 120647 N 0 0 0
0:00:00.00 120949 N 0 0 0
0:00:00.00 121168 N 0 0 0
0:00:00.00 121379 N 0 0 0
0:00:00.00 121559 N 0 0 0
0:00:00.00 121568 N 0 0 0
0:00:00.00 121815 N 0 0 0
0:00:00.00 122031 N 0 0 0
0:00:00.00 122244 N 0 0 0
0:00:00.00 122419 N 0 0 0
0:00:00.00 122428 N 0 0 0
0:00:00.00 122667 N 0 0 0
0:00:00.00 122983 N 0 0 0
0:00:00.00 123311 N 0 0 0
0:00:00.00 123530 N 0 0 0
0:00:00.00 123742 N 0 0 0
0:00:00.00 123956 N 0 0 0
0:00:00.00 124176 N 0 0 0
0:00:00.00 124313 N 0 0 0
0:00:00.00 124608 N 0 0 0
0:00:00.00 124823 N 0 0 0
0:00:00.00 125042 N 0 0 0
0:00:00.00 125176 N 0 0 0
0:00:00.00 125477 N 0 0 0
0:00:00.00 125702 N 0 0 0
0:00:00.00 125921 N 0 0 0
0:00:00.00 126053 N 0 0 0
0:00:00.00 126351 N 0 0 0
0:00:00.00 126571 N 0 0 0
0:00:00.00 126791 N 0 0 0
0:00:00.00 127009 N 0 0 0
0:00:00.00 127218 N 0 0 0
0:00:00.00 127352 N 0 0 0
0:00:00.00 127643 N 0 0 0
0:00:00.00 127861 N 0 0 0
0:00:00.00 128074 N 0 0 0
0:00:00.00 128212 N 0 0 0
0:00:00.00 128506 N 0 0 0
0:00:00.00 128720 N 0 0 0
0:00:00.00 128933 N 0 0 0
0:00:00.00 129073 N 0 0 0
0:00:00.00 129369 N 0 0 0
0:00:00.00 129589 N 0 0 0
0:00:00.00 129799 N 0 0 0
0:00:00.00 129932 N 0 0 0
0:00:00.00 130219 N 0 0 0
0:00:00.00 130435 N 0 0 0
0:00:00.00 130654 N 0 0 0
0:00:00.00 130786 N 0 0 0
0:00:00.00 131076 N 0 0 0
0:00:00.00 131287 N 0 0 0
0:00:00.00 131503 N 0 0 0
0:00:00.00 131646 N 0 0 0
0:00:00.00 131926 N 0 0 0
0:00:00.00 132133 N 0 0 0
0:00:00.00 132340 N 0 0 0
0:00:00.00 132475 N 0 0 0
0:00:00.00 132761 N 0 0 0
0:00:00.00 132978 N 0 0 0
0:00:00.00 133192 N 0 0 0
0:00:00.00 133325 N 0 0 0
0:00:00.00 133610 N 0 0 0
0:00:00.00 133826 N 0 0 0
0:00:00.00 134047 N 0 0 0
0:00:00.00 134183 N 0 0 0
0:00:00.00 134191 N 0 0 0
0:00:00.00 134471 N 0 0 0
0:00:00.00 134683 N 0 0 0
0:00:00.00 134896 N 0 0 0
0:00:00.00 135033 N 0 0 0
0:00:00.00 135041 N 0 0 0
0:00:00.00 135325 N 0 0 0
0:00:00.00 135546 N 0 0 0
0:00:00.00 135757 N 0 0 0
0:00:00.00 135894 N 0 0 0
0:00:00.00 136179 N 0 0 0
0:00:00.00 136402 N 0 0 0
0:00:00.00 136619 N 0 0 0
0:00:00.00 136752 N 0 0 0
0:00:00.00 137040 N 0 0 0
0:00:00.00 137256 N 0 0 0
0:00:00.00 137472 N 0 0 0
0:00:00.00 137604 N 0 0 0
0:00:00.00 137898 N 0 0 0
0:00:00.00 138120 N 0 0 0
0:00:00.00 138334 N 0 0 0
0:00:00.00 138464 N 0 0 0
0:00:00.00 138761 N 0 0 0
0:00:00.00 138988 N 0 0 0
0:00:00.00 139201 N 0 0 0
0:00:00.00 139335 N 0 0 0
0:00:00.00 139628 N 0 0 0
0:00:00.00 139844 N 0 0 0
0:00:00.00 140056 N 0 0 0
0:00:00.00 140192 N 0 0 0
0:00:00.00 140485 N 0 0 0
0:00:00.00 140700 N 0 0 0
0:00:00.00 140910 N 0 0 0
0:00:00.00 141039 N 0 0 0
0:00:00.00 141337 N 0 0 0
0:00:00.00 141558 N 0 0 0
0:00:00.00 141770 N 0 0 0
0:00:00.00 141899 N 0 0 0
0:00:00.00 142185 N 0 0 0
0:00:00.00 142401 N 0 0 0
0:00:00.00 142614 N 0 0 0
0:00:00.00 142746 N 0 0 0
0:00:00.00 143043 N 0 0 0
0:00:00.00 143260 N 0 0 0
0:00:00.00 143471 N 0 0 0
0:00:00.00 143607 N 0 0 0
0:00:00.00 143910 N 0 0 0
0:00:00.00 144132 N 0 0 0
0:00:00.00 144343 N 0 0 0
0:00:00.00 144557 N 0 0 0
0:00:00.00 144773 N 0 0 0
0:00:00.00 145202 N 0 0 0
0:00:00.00 145425 N 0 0 0
0:00:00.00 145639 N 0 0 0
0:00:00.00 145851 N 0 0 0
0:00:00.00 145985 N 0 0 0
0:00:00.00 146281 N 0 0 0
0:00:00.00 146479 N 0 0 0
0:00:00.00 146488 N 0 0 0
0:00:00.00 146623 N 0 0 0
0:00:00.00 146935 N 0 0 0
0:00:00.00 147078 N 0 0 0
0:00:00.00 147372 N 0 0 0
0:00:00.00 147577 N 0 0 0
0:00:00.00 147818 N 0 0 0
0:00:00.00 148036 N 0 0 0
0:00:00.00 148172 N 0 0 0
0:00:00.00 148466 N 0 0 0
0:00:00.00 148668 N 0 0 0
0:00:00.00 148908 N 0 0 0
0:00:00.00 149127 N 0 0 0
0:00:00.00 149339 N 0 0 0
0:00:00.00 149526 N 0 0 0
0:00:00.00 149535 N 0 0 0
0:00:00.00 149766 N 0 0 0
0:00:00.00 149985 N 0 0 0
0:00:00.00 150170 N 0 0 0
0:00:00.00 150321 N 0 0 0
0:00:00.00 150628 N 0 0 0
0:00:00.00 150771 N 0 0 0
0:00:00.00 151064 N 0 0 0
0:00:00.00 151291 N 0 0 0
0:00:00.00 151506 N 0 0 0
0:00:00.00 151704 N 0 0 0
0:00:00.00 151939 N 0 0 0
0:00:00.00 152158 N 0 0 0
0:00:00.00 152369 N 0 0 0
0:00:00.00 152584 N 0 0 0
0:00:00.00 152728 N 0 0 0
0:00:00.00 153004 N 0 0 0
0:00:00.00 153216 N 0 0 0
0:00:00.00 153428 N 0 0 0
0:00:00.00 153620 N 0 0 0
0:00:00.00 153630 N 0 0 0
0:00:00.00 153766 N 0 0 0
0:00:00.00 154062 N 0 0 0
0:00:00.00 154200 N 0 0 0
0:00:00.00 154489 N 0 0 0
0:00:00.00 154699 N 0 0 0
0:00:00.00 154910 N 0 0 0
0:00:00.00 155129 N 0 0 0
0:00:00.00 155339 N 0 0 0
0:00:00.00 155550 N 0 0 0
0:00:00.00 155758 N 0 0 0
0:00:00.00 155974 N 0 0 0
0:00:00.00 156190 N 0 0 0
0:00:00.00 156399 N 0 0 0
0:00:00.00 156602 N 0 0 0
0:00:00.00 156809 N 0 0 0
0:00:00.00 157022 N 0 0 0
0:00:00.00 157230 N 0 0 0
0:00:00.00 157437 N 0 0 0
0:00:00.00 157646 N 0 0 0
0:00:00.00 157851 N 0 0 0
0:00:00.00 158025 N 0 0 0
0:00:00.00 158035 N 0 0 0
0:00:00.00 158255 N 0 0 0
0:00:00.00 158470 N 0 0 0
0:00:00.00 158603 N 0 0 0
0:00:00.00 158885 N 0 0 0
0:00:00.00 159088 N 0 0 0
0:00:00.00 159298 N 0 0 0
0:00:00.00 159509 N 0 0 0
0:00:00.00 159722 N 0 0 0
0:00:00.00 159856 N 0 0 0
0:00:00.00 160142 N 0 0 0
0:00:00.00 160357 N 0 0 0
0:00:00.00 160561 N 0 0 0
0:00:00.00 160772 N 0 0 0
0:00:00.00 160986 N 0 0 0
0:00:00.00 161118 N 0 0 0
0:00:00.00 161401 N 0 0 0
0:00:00.00 161597 N 0 0 0
0:00:00.00 161607 N 0 0 0
0:00:00.00 161818 N 0 0 0
0:00:00.00 162026 N 0 0 0
0:00:00.00 162239 N 0 0 0
0:00:00.00 162427 N 0 0 0
0:00:00.00 162436 N 0 0 0
0:00:00.00 162642 N 0 0 0
0:00:00.00 162651 N 0 0 0
0:00:00.00 162876 N 0 0 0
0:00:00.00 163086 N 0 0 0
0:00:00.00 163305 N 0 0 0
0:00:00.00 163521 N 0 0 0
0:00:00.00 163740 N 0 0 0
0:00:00.00 163870 N 0 0 0
0:00:00.00 163879 N 0 0 0
0:00:00.00 164159 N 0 0 0
0:00:00.00 164350 N 0 0 0
0:00:00.00 164596 N 0 0 0
0:00:00.00 164818 N 0 0 0
0:00:00.00 165035 N 0 0 0
0:00:00.00 165249 N 0 0 0
0:00:00.00 165459 N 0 0 0
0:00:00.00 165593 N 0 0 0
0:00:00.00 165895 N 0 0 0
0:00:00.00 166112 N 0 0 0
0:00:00.00 166328 N 0 0 0
0:00:00.00 166459 N 0 0 0
0:00:00.00 166756 N 0 0 0
0:00:00.00 166975 N 0 0 0
0:00:00.00 167200 N 0 0 0
0:00:00.00 167334 N 0 0 0
0:00:00.00 167638 N 0 0 0
0:00:00.00 167859 N 0 0 0
0:00:00.00 168084 N 0 0 0
0:00:00.00 168224 N 0 0 0
0:00:00.00 168530 N 0 0 0
0:00:00.00 168749 N 0 0 0
0:00:00.00 168964 N 0 0 0
0:00:00.00 169099 N 0 0 0
0:00:00.00 169388 N 0 0 0
0:00:00.00 169611 N 0 0 0
0:00:00.00 169831 N 0 0 0
0:00:00.00 169965 N 0 0 0
0:00:00.00 170252 N 0 0 0
0:00:00.00 170465 N 0 0 0
0:00:00.00 170681 N 0 0 0
0:00:00.00 170818 N 0 0 0
0:00:00.00 171109 N 0 0 0
0:00:00.00 171321 N 0 0 0
0:00:00.00 171533 N 0 0 0
0:00:00.00 171672 N 0 0 0
0:00:00.00 171953 N 0 0 0
0:00:00.00 172169 N 0 0 0
0:00:00.00 172388 N 0 0 0
0:00:00.00 172520 N 0 0 0
0:00:00.00 172807 N 0 0 0
0:00:00.00 173024 N 0 0 0
0:00:00.00 173245 N 0 0 0
0:00:00.00 173381 N 0 0 0
0:00:00.00 173667 N 0 0 0
0:00:00.00 173880 N 0 0 0
0:00:00.00 174091 N 0 0 0
0:00:00.00 174227 N 0 0 0
0:00:00.00 174513 N 0 0 0
0:00:00.00 174731 N 0 0 0
0:00:00.00 174939 N 0 0 0
0:00:00.00 175072 N 0 0 0
0:00:00.00 175356 N 0 0 0
0:00:00.00 175572 N 0 0 0
0:00:00.00 175791 N 0 0 0
0:00:00.00 175924 N 0 0 0
0:00:00.00 176207 N 0 0 0
0:00:00.00 176421 N 0 0 0
0:00:00.00 176637 N 0 0 0
0:00:00.00 176773 N 0 0 0
0:00:00.00 177062 N 0 0 0
0:00:00.00 177282 N 0 0 0
0:00:00.00 177626 N 0 0 0
0:00:00.00 177915 N 0 0 0
0:00:00.00 178052 N 0 0 0
0:00:00.00 178350 N 0 0 0
0:00:00.00 178567 N 0 0 0
0:00:00.00 178776 N 0 0 0
0:00:00.00 178988 N 0 0 0
0:00:00.00 179197 N 0 0 0
0:00:00.00 179336 N 0 0 0
0:00:00.00 179623 N 0 0 0
0:00:00.00 179833 N 0 0 0
0:00:00.00 180044 N 0 0 0
0:00:00.00 180177 N 0 0 0
0:00:00.00 180467 N 0 0 0
0:00:00.00 180688 N 0 0 0
0:00:00.00 180900 N 0 0 0
0:00:00.00 181037 N 0 0 0
0:00:00.00 181317 N 0 0 0
0:00:00.00 181536 N 0 0 0
0:00:00.00 181748 N 0 0 0
0:00:00.00 181883 N 0 0 0
0:00:00.00 182177 N 0 0 0
0:00:00.00 182389 N 0 0 0
0:00:00.00 182597 N 0 0 0
0:00:00.00 182744 N 0 0 0
0:00:00.00 183028 N 0 0 0
0:00:00.00 183238 N 0 0 0
0:00:00.00 183449 N 0 0 0
0:00:00.00 183582 N 0 0 0
0:00:00.00 183867 N 0 0 0
0:00:00.00 184077 N 0 0 0
0:00:00.00 184292 N 0 0 0
0:00:00.00 184434 N 0 0 0
0:00:00.00 184557 N 0 0 0
0:00:00.00 184903 N 0 0 0
0:00:00.00 185120 N 0 0 0
0:00:00.00 185339 N 0 0 0
0:00:00.00 185480 N 0 0 0
0:00:00.00 185770 N 0 0 0
0:00:00.00 185984 N 0 0 0
0:00:00.00 186197 N 0 0 0
0:00:00.00 186336 N 0 0 0
0:00:00.00 186621 N 0 0 0
0:00:00.00 186840 N 0 0 0
0:00:00.00 187056 N 0 0 0
0:00:00.00 187192 N 0 0 0
0:00:00.00 187481 N 0 0 0
0:00:00.00 187702 N 0 0 0
0:00:00.00 187920 N 0 0 0
0:00:00.00 188054 N 0 0 0
0:00:00.00 188342 N 0 0 0
0:00:00.00 188561 N 0 0 0
0:00:00.00 188777 N 0 0 0
0:00:00.00 188908 N 0 0 0
0:00:00.00 189199 N 0 0 0
0:00:00.00 189423 N 0 0 0
0:00:00.00 189636 N 0 0 0
0:00:00.00 189849 N 0 0 0
0:00:00.00 190061 N 0 0 0
0:00:00.00 190282 N 0 0 0
0:00:00.00 190418 N 0 0 0
0:00:00.00 190707 N 0 0 0
0:00:00.00 190918 N 0 0 0
0:00:00.00 191130 N 0 0 0
0:00:00.00 191269 N 0 0 0
0:00:00.00 191559 N 0 0 0
0:00:00.00 191778 N 0 0 0
0:00:00.00 191989 N 0 0 0
0:00:00.00 192128 N 0 0 0
0:00:00.00 192410 N 0 0 0
0:00:00.00 192631 N 0 0 0
0:00:00.00 192849 N 0 0 0
0:00:00.00 192983 N 0 0 0
0:00:00.00 193273 N 0 0 0
0:00:00.00 193469 N 0 0 0
0:00:00.00 193705 N 0 0 0
0:00:00.00 193923 N 0 0 0
0:00:00.00 194140 N 0 0 0
0:00:00.00 194318 N 0 0 0
0:00:00.00 194327 N 0 0 0
0:00:00.00 194569 N 0 0 0
0:00:00.00 194782 N 0 0 0
0:00:00.00 194998 N 0 0 0
0:00:00.00 195181 N 0 0 0
0:00:00.00 195190 N 0 0 0
0:00:00.00 195395 N 0 0 0
0:00:00.00 195644 N 0 0 0
0:00:00.00 195856 N 0 0 0
0:00:00.00 196069 N 0 0 0
0:00:00.00 196278 N 0 0 0
0:00:00.00 196494 N 0 0 0
0:00:00.00 196630 N 0 0 0
0:00:00.00 196917 N 0 0 0
0:00:00.00 197129 N 0 0 0
0:00:00.00 197343 N 0 0 0
0:00:00.00 197559 N 0 0 0
0:00:00.00 197774 N 0 0 0
0:00:00.00 197911 N 0 0 0
0:00:00.00 198190 N 0 0 0
0:00:00.00 198402 N 0 0 0
0:00:00.00 198614 N 0 0 0
0:00:00.00 198746 N 0 0 0
0:00:00.00 199040 N 0 0 0
0:00:00.00 199261 N 0 0 0
0:00:00.00 199469 N 0 0 0
0:00:00.00 199602 N 0 0 0
0:00:00.00 199891 N 0 0 0
0:00:00.00 200114 N 0 0 0
0:00:00.00 200326 N 0 0 0
0:00:00.00 200503 N 0 0 0
0:00:00.00 200747 N 0 0 0
0:00:00.00 200951 N 0 0 0
0:00:00.00 201160 N 0 0 0
0:00:00.00 201336 N 0 0 0
0:00:00.00 201345 N 0 0 0
0:00:00.00 201582 N 0 0 0
0:00:00.00 201791 N 0 0 0
0:00:00.00 201999 N 0 0 0
0:00:00.00 202180 N 0 0 0
0:00:00.00 202415 N 0 0 0
0:00:00.00 202636 N 0 0 0
0:00:00.00 202846 N 0 0 0
0:00:00.00 203021 N 0 0 0
0:00:00.00 203030 N 0 0 0
0:00:00.00 203237 N 0 0 0
0:00:00.00 203478 N 0 0 0
0:00:00.00 203689 N 0 0 0
0:00:00.00 203902 N 0 0 0
0:00:00.00 204121 N 0 0 0
0:00:00.00 204331 N 0 0 0
0:00:00.00 204468 N 0 0 0
0:00:00.00 204748 N 0 0 0
0:00:00.00 204958 N 0 0 0
0:00:00.00 204968 N 0 0 0
0:00:00.00 205086 N 0 0 0
0:00:00.00 205398 N 0 0 0
0:00:00.00 205613 N 0 0 0
0:00:00.00 205825 N 0 0 0
0:00:00.00 205963 N 0 0 0
0:00:00.00 206254 N 0 0 0
0:00:00.00 206476 N 0 0 0
0:00:00.00 206693 N 0 0 0
0:00:00.00 206826 N 0 0 0
0:00:00.00 207122 N 0 0 0
0:00:00.00 207302 N 0 0 0
0:00:00.00 207312 N 0 0 0
0:00:00.00 207570 N 0 0 0
0:00:00.00 207791 N 0 0 0
0:00:00.00 208002 N 0 0 0
0:00:00.00 208170 N 0 0 0
0:00:00.00 208180 N 0 0 0
0:00:00.00 208433 N 0 0 0
0:00:00.00 208652 N 0 0 0
0:00:00.00 208870 N 0 0 0
0:00:00.00 209043 N 0 0 0
0:00:00.00 209302 N 0 0 0
0:00:00.00 209516 N 0 0 0
0:00:00.00 209732 N 0 0 0
0:00:00.00 209913 N 0 0 0
0:00:00.00 209922 N 0 0 0
0:00:00.00 210165 N 0 0 0
0:00:00.00 210383 N 0 0 0
0:00:00.00 210595 N 0 0 0
0:00:00.00 210773 N 0 0 0
0:00:00.00 210782 N 0 0 0
0:00:00.00 211025 N 0 0 0
0:00:00.00 211250 N 0 0 0
0:00:00.00 211470 N 0 0 0
0:00:00.00 211647 N 0 0 0
0:00:00.00 211656 N 0 0 0
0:00:00.00 211855 N 0 0 0
0:00:00.00 211983 N 0 0 0
0:00:00.00 212331 N 0 0 0
0:00:00.00 212500 N 0 0 0
0:00:00.00 212770 N 0 0 0
0:00:00.00 212989 N 0 0 0
0:00:00.00 213206 N 0 0 0
0:00:00.00 213418 N 0 0 0
0:00:00.00 213632 N 0 0 0
0:00:00.00 213767 N 0 0 0
0:00:00.00 214055 N 0 0 0
0:00:00.00 214272 N 0 0 0
0:00:00.00 214483 N 0 0 0
0:00:00.00 214703 N 0 0 0
0:00:00.00 214920 N 0 0 0
0:00:00.00 215058 N 0 0 0
0:00:00.00 215340 N 0 0 0
0:00:00.00 215556 N 0 0 0
0:00:00.00 215772 N 0 0 0
0:00:00.00 215906 N 0 0 0
0:00:00.00 216205 N 0 0 0
0:00:00.00 216425 N 0 0 0
0:00:00.00 216640 N 0 0 0
0:00:00.00 216770 N 0 0 0
0:00:00.00 217066 N 0 0 0
0:00:00.00 217293 N 0 0 0
0:00:00.00 217505 N 0 0 0
0:00:00.00 217639 N 0 0 0
0:00:00.00 217648 N 0 0 0
0:00:00.00 217923 N 0 0 0
0:00:00.00 218141 N 0 0 0
0:00:00.00 218347 N 0 0 0
0:00:00.00 218486 N 0 0 0
0:00:00.00 218773 N 0 0 0
0:00:00.00 218988 N 0 0 0
0:00:00.00 219197 N 0 0 0
0:00:00.00 219373 N 0 0 0
0:00:00.00 219626 N 0 0 0
0:00:00.00 219842 N 0 0 0
0:00:00.00 219977 N 0 0 0
0:00:00.00 220265 N 0 0 0
0:00:00.00 220484 N 0 0 0
0:00:00.00 220699 N 0 0 0
0:00:00.00 220916 N 0 0 0
0:00:00.00 221131 N 0 0 0
0:00:00.00 221265 N 0 0 0
0:00:00.00 221558 N 0 0 0
0:00:00.00 221772 N 0 0 0
0:00:00.00 221987 N 0 0 0
0:00:00.00 222203 N 0 0 0
0:00:00.00 222416 N 0 0 0
0:00:00.00 222619 N 0 0 0
0:00:00.00 222754 N 0 0 0
0:00:00.00 222928 N 0 0 0
0:00:00.00 223252 N 0 0 0
0:00:00.00 223425 N 0 0 0
0:00:00.00 223435 N 0 0 0
0:00:00.00 223683 N 0 0 0
0:00:00.00 223899 N 0 0 0
0:00:00.00 224106 N 0 0 0
0:00:00.00 224273 N 0 0 0
0:00:00.00 224397 N 0 0 0
0:00:00.00 224742 N 0 0 0
0:00:00.00 224961 N 0 0 0
0:00:00.00 225173 N 0 0 0
0:00:00.00 225382 N 0 0 0
0:00:00.00 225592 N 0 0 0
0:00:00.00 225734 N 0 0 0
0:00:00.00 226019 N 0 0 0
0:00:00.00 226210 N 0 0 0
0:00:00.00 226219 N 0 0 0
0:00:00.00 226349 N 0 0 0
0:00:00.00 226648 N 0 0 0
0:00:00.00 226784 N 0 0 0
0:00:00.00 227077 N 0 0 0
0:00:00.00 227219 N 0 0 0
0:00:00.00 227499 N 0 0 0
0:00:00.00 227698 N 0 0 0
0:00:00.00 227927 N 0 0 0
0:00:00.00 228061 N 0 0 0
0:00:00.00 228352 N 0 0 0
0:00:00.00 228571 N 0 0 0
0:00:00.00 228785 N 0 0 0
0:00:00.00 228918 N 0 0 0
0:00:00.00 229209 N 0 0 0
0:00:00.00 229417 N 0 0 0
0:00:00.00 229641 N 0 0 0
0:00:00.00 229853 N 0 0 0
0:00:00.00 230063 N 0 0 0
0:00:00.00 230273 N 0 0 0
0:00:00.00 230480 N 0 0 0
0:00:00.00 230692 N 0 0 0
0:00:00.00 230907 N 0 0 0
0:00:00.00 231076 N 0 0 0
0:00:00.00 231238 N 0 0 0
0:00:00.00 231248 N 0 0 0
0:00:00.00 231526 N 0 0 0
0:00:00.00 231671 N 0 0 0
0:00:00.00 231962 N 0 0 0
0:00:00.00 232131 N 0 0 0
0:00:00.00 232383 N 0 0 0
0:00:00.00 232598 N 0 0 0
0:00:00.00 232735 N 0 0 0
0:00:00.00 233026 N 0 0 0
0:00:00.00 233160 N 0 0 0
0:00:00.00 233467 N 0 0 0
0:00:00.00 233683 N 0 0 0
0:00:00.00 233893 N 0 0 0
0:00:00.00 234108 N 0 0 0
0:00:00.00 234331 N 0 0 0
0:00:00.00 234491 N 0 0 0
0:00:00.00 234755 N 0 0 0
0:00:00.00 234969 N 0 0 0
0:00:00.00 235181 N 0 0 0
0:00:00.00 235345 N 0 0 0
0:00:00.00 235604 N 0 0 0
0:00:00.00 235824 N 0 0 0
0:00:00.00 236035 N 0 0 0
0:00:00.00 236208 N 0 0 0
0:00:00.00 236218 N 0 0 0
0:00:00.00 236458 N 0 0 0
0:00:00.00 236677 N 0 0 0
0:00:00.00 236895 N 0 0 0
0:00:00.00 237072 N 0 0 0
0:00:00.00 237081 N 0 0 0
0:00:00.00 237320 N 0 0 0
0:00:00.00 237534 N 0 0 0
0:00:00.00 237671 N 0 0 0
0:00:00.00 237964 N 0 0 0
0:00:00.00 238185 N 0 0 0
0:00:00.00 238398 N 0 0 0
0:00:00.00 238614 N 0 0 0
0:00:00.00 238819 N 0 0 0
0:00:00.00 239029 N 0 0 0
0:00:00.00 239246 N 0 0 0
0:00:00.00 239456 N 0 0 0
0:00:00.00 239667 N 0 0 0
0:00:00.00 239873 N 0 0 0
0:00:00.00 240078 N 0 0 0
0:00:00.00 240238 N 0 0 0
0:00:00.00 240496 N 0 0 0
0:00:00.00 240710 N 0 0 0
0:00:00.00 240841 N 0 0 0
0:00:00.00 241127 N 0 0 0
0:00:00.00 241301 N 0 0 0
0:00:00.00 241310 N 0 0 0
0:00:00.00 241554 N 0 0 0
0:00:00.00 241772 N 0 0 0
0:00:00.00 241905 N 0 0 0
0:00:00.00 242192 N 0 0 0
0:00:00.00 242406 N 0 0 0
0:00:00.00 242617 N 0 0 0
0:00:00.00 242826 N 0 0 0
0:00:00.00 243040 N 0 0 0
0:00:00.00 243253 N 0 0 0
0:00:00.00 243461 N 0 0 0
0:00:00.00 243630 N 0 0 0
0:00:00.00 243639 N 0 0 0
0:00:00.00 243874 N 0 0 0
0:00:00.00 244090 N 0 0 0
0:00:00.00 244221 N 0 0 0
0:00:00.00 244505 N 0 0 0
0:00:00.00 244633 N 0 0 0
0:00:00.00 244921 N 0 0 0
0:00:00.00 245054 N 0 0 0
0:00:00.00 245062 N 0 0 0
0:00:00.00 245342 N 0 0 0
0:00:00.00 245508 N 0 0 0
0:00:00.00 245519 N 0 0 0
0:00:00.00 245764 N 0 0 0
0:00:00.00 245974 N 0 0 0
0:00:00.00 246104 N 0 0 0
0:00:00.00 246391 N 0 0 0
0:00:00.00 246529 N 0 0 0
0:00:00.00 246817 N 0 0 0
0:00:00.00 246949 N 0 0 0
0:00:00.00 247233 N 0 0 0
0:00:00.00 247403 N 0 0 0
0:00:00.00 247413 N 0 0 0
0:00:00.00 247650 N 0 0 0
0:00:00.00 247862 N 0 0 0
0:00:00.00 247997 N 0 0 0
0:00:00.00 248006 N 0 0 0
0:00:00.00 248279 N 0 0 0
0:00:00.00 248414 N 0 0 0
0:00:00.00 248668 N 0 0 0
0:00:00.00 248802 N 0 0 0
0:00:00.00 249093 N 0 0 0
0:00:00.00 249282 N 0 0 0
0:00:00.00 249506 N 0 0 0
0:00:00.00 249716 N 0 0 0
0:00:00.00 249851 N 0 0 0
0:00:00.00 250136 N 0 0 0
0:00:00.00 250319 N 0 0 0
0:00:00.00 250328 N 0 0 0
0:00:00.00 250566 N 0 0 0
0:00:00.00 250777 N 0 0 0
0:00:00.00 250984 N 0 0 0
0:00:00.00 251150 N 0 0 0
0:00:00.00 251415 N 0 0 0
0:00:00.00 251632 N 0 0 0
0:00:00.00 251846 N 0 0 0
0:00:00.00 252057 N 0 0 0
0:00:00.00 252268 N 0 0 0
0:00:00.00 252478 N 0 0 0
0:00:00.00 252616 N 0 0 0
0:00:00.00 252901 N 0 0 0
0:00:00.00 253064 N 0 0 0
0:00:00.00 253074 N 0 0 0
0:00:00.00 253324 N 0 0 0
0:00:00.00 253539 N 0 0 0
0:00:00.00 253752 N 0 0 0
0:00:00.00 253933 N 0 0 0
0:00:00.00 253943 N 0 0 0
0:00:00.00 254078 N 0 0 0
0:00:00.00 254380 N 0 0 0
0:00:00.00 254538 N 0 0 0
0:00:00.00 254548 N 0 0 0
0:00:00.00 254802 N 0 0 0
0:00:00.00 255018 N 0 0 0
0:00:00.00 255162 N 0 0 0
0:00:00.00 255442 N 0 0 0
0:00:00.00 255655 N 0 0 0
0:00:00.00 255865 N 0 0 0
0:00:00.00 256077 N 0 0 0
0:00:00.00 256294 N 0 0 0
0:00:00.00 256428 N 0 0 0
0:00:00.00 256714 N 0 0 0
0:00:00.00 256883 N 0 0 0
0:00:00.00 256892 N 0 0 0
0:00:00.00 257126 N 0 0 0
0:00:00.00 257342 N 0 0 0
0:00:00.00 257557 N 0 0 0
0:00:00.00 257736 N 0 0 0
0:00:00.00 257984 N 0 0 0
0:00:00.00 258203 N 0 0 0
0:00:00.00 258414 N 0 0 0
0:00:00.00 258593 N 0 0 0
0:00:00.00 258848 N 0 0 0
0:00:00.00 259065 N 0 0 0
0:00:00.00 259276 N 0 0 0
0:00:00.00 259451 N 0 0 0
0:00:00.00 259461 N 0 0 0
0:00:00.00 259702 N 0 0 0
0:00:00.00 259917 N 0 0 0
0:00:00.00 260131 N 0 0 0
0:00:00.00 260306 N 0 0 0
0:00:00.00 260549 N 0 0 0
0:00:00.00 260755 N 0 0 0
0:00:00.00 260889 N 0 0 0
0:00:00.00 261182 N 0 0 0
0:00:00.00 261389 N 0 0 0
0:00:00.00 261594 N 0 0 0
0:00:00.00 261801 N 0 0 0
0:00:00.00 262012 N 0 0 0
0:00:00.00 262218 N 0 0 0
0:00:00.00 262362 N 0 0 0
0:00:00.00 262643 N 0 0 0
0:00:00.00 262812 N 0 0 0
0:00:00.00 262822 N 0 0 0
0:00:00.00 263060 N 0 0 0
0:00:00.00 263269 N 0 0 0
0:00:00.00 263403 N 0 0 0
0:00:00.00 263700 N 0 0 0
0:00:00.00 263913 N 0 0 0
0:00:00.00 264116 N 0 0 0
0:00:00.00 264255 N 0 0 0
0:00:00.00 264539 N 0 0 0
0:00:00.00 264752 N 0 0 0
0:00:00.00 264965 N 0 0 0
0:00:00.00 265141 N 0 0 0
0:00:00.00 265151 N 0 0 0
0:00:00.00 265393 N 0 0 0
0:00:00.00 265603 N 0 0 0
0:00:00.00 265731 N 0 0 0
0:00:00.00 265740 N 0 0 0
0:00:00.00 266036 N 0 0 0
0:00:00.00 266254 N 0 0 0
0:00:00.00 266469 N 0 0 0
0:00:00.00 266599 N 0 0 0
0:00:00.00 266898 N 0 0 0
0:00:00.00 267114 N 0 0 0
0:00:00.00 267331 N 0 0 0
0:00:00.00 267470 N 0 0 0
0:00:00.00 267760 N 0 0 0
0:00:00.00 267978 N 0 0 0
0:00:00.00 268192 N 0 0 0
0:00:00.00 268332 N 0 0 0
0:00:00.00 268631 N 0 0 0
0:00:00.00 268851 N 0 0 0
0:00:00.00 269060 N 0 0 0
0:00:00.00 269195 N 0 0 0
0:00:00.00 269204 N 0 0 0
0:00:00.00 269485 N 0 0 0
0:00:00.00 269703 N 0 0 0
0:00:00.00 269917 N 0 0 0
0:00:00.00 270055 N 0 0 0
0:00:00.00 270339 N 0 0 0
0:00:00.00 270548 N 0 0 0
0:00:00.00 270760 N 0 0 0
0:00:00.00 270899 N 0 0 0
0:00:00.00 271184 N 0 0 0
0:00:00.00 271399 N 0 0 0
0:00:00.00 271610 N 0 0 0
0:00:00.00 271788 N 0 0 0
0:00:00.00 271798 N 0 0 0
0:00:00.00 272034 N 0 0 0
0:00:00.00 272255 N 0 0 0
0:00:00.00 272390 N 0 0 0
0:00:00.00 272684 N 0 0 0
0:00:00.00 272900 N 0 0 0
0:00:00.00 273113 N 0 0 0
0:00:00.00 273331 N 0 0 0
0:00:00.00 273545 N 0 0 0
0:00:00.00 273761 N 0 0 0
0:00:00.00 273968 N 0 0 0
0:00:00.00 274131 N 0 0 0
0:00:00.00 274140 N 0 0 0
0:00:00.00 274387 N 0 0 0
0:00:00.00 274600 N 0 0 0
0:00:00.00 274813 N 0 0 0
0:00:00.00 274982 N 0 0 0
0:00:00.00 274992 N 0 0 0
0:00:00.00 275237 N 0 0 0
0:00:00.00 275445 N 0 0 0
0:00:00.00 275578 N 0 0 0
0:00:00.00 275881 N 0 0 0
0:00:00.00 276094 N 0 0 0
0:00:00.00 276307 N 0 0 0
0:00:00.00 276519 N 0 0 0
0:00:00.00 276734 N 0 0 0
0:00:00.00 276945 N 0 0 0
0:00:00.00 277160 N 0 0 0
0:00:00.00 277348 N 0 0 0
0:00:00.00 277585 N 0 0 0
0:00:00.00 277794 N 0 0 0
0:00:00.00 277924 N 0 0 0
0:00:00.00 278223 N 0 0 0
0:00:00.00 278405 N 0 0 0
0:00:00.00 278645 N 0 0 0
0:00:00.00 278848 N 0 0 0
0:00:00.00 278981 N 0 0 0
0:00:00.00 279264 N 0 0 0
0:00:00.00 279476 N 0 0 0
0:00:00.00 279685 N 0 0 0
0:00:00.00 279899 N 0 0 0
0:00:00.00 280109 N 0 0 0
0:00:00.00 280315 N 0 0 0
0:00:00.00 280529 N 0 0 0
0:00:00.00 280746 N 0 0 0
0:00:00.00 280959 N 0 0 0
0:00:00.00 281168 N 0 0 0
0:00:00.00 281375 N 0 0 0
0:00:00.00 281585 N 0 0 0
0:00:00.00 281792 N 0 0 0
0:00:00.00 282003 N 0 0 0
0:00:00.00 282213 N 0 0 0
0:00:00.00 282419 N 0 0 0
0:00:00.00 282624 N 0 0 0
0:00:00.00 282827 N 0 0 0
0:00:00.00 283033 N 0 0 0
0:00:00.00 283245 N 0 0 0
0:00:00.00 283432 N 0 0 0
0:00:00.00 283441 N 0 0 0
0:00:00.00 283539 N 0 0 0
0:00:00.00 283858 N 0 0 0
0:00:00.00 284013 N 0 0 0
0:00:00.00 284278 N 0 0 0
0:00:00.00 284491 N 0 0 0
0:00:00.00 284706 N 0 0 0
0:00:00.00 284878 N 0 0 0
0:00:00.00 284887 N 0 0 0
0:00:00.00 285062 N 0 0 0
0:00:00.00 285328 N 0 0 0
0:00:00.00 285545 N 0 0 0
0:00:00.00 285757 N 0 0 0
0:00:00.00 285975 N 0 0 0
0:00:00.00 286183 N 0 0 0
0:00:00.00 286312 N 0 0 0
0:00:00.00 286596 N 0 0 0
0:00:00.00 286806 N 0 0 0
0:00:00.00 287011 N 0 0 0
0:00:00.00 287163 N 0 0 0
0:00:00.00 287420 N 0 0 0
0:00:00.00 287625 N 0 0 0
0:00:00.00 287836 N 0 0 0
0:00:00.00 288051 N 0 0 0
0:00:00.00 288257 N 0 0 0
0:00:00.00 288389 N 0 0 0
0:00:00.00 288673 N 0 0 0
0:00:00.00 288883 N 0 0 0
0:00:00.00 289089 N 0 0 0
0:00:00.00 289301 N 0 0 0
0:00:00.00 289515 N 0 0 0
0:00:00.00 289719 N 0 0 0
0:00:00.00 289924 N 0 0 0
0:00:00.00 290128 N 0 0 0
0:00:00.00 290337 N 0 0 0
0:00:00.00 290548 N 0 0 0
0:00:00.00 290681 N 0 0 0
0:00:00.00 290689 N 0 0 0
0:00:00.00 290956 N 0 0 0
0:00:00.00 291163 N 0 0 0
0:00:00.00 291369 N 0 0 0
0:00:00.00 291570 N 0 0 0
0:00:00.00 291775 N 0 0 0
0:00:00.00 291988 N 0 0 0
0:00:00.00 292189 N 0 0 0
0:00:00.00 292321 N 0 0 0
0:00:00.00 292330 N 0 0 0
0:00:00.00 292598 N 0 0 0
0:00:00.00 292779 N 0 0 0
0:00:00.00 293023 N 0 0 0
0:00:00.00 293201 N 0 0 0
0:00:00.00 293210 N 0 0 0
0:00:00.00 293434 N 0 0 0
0:00:00.00 293641 N 0 0 0
0:00:00.00 293856 N 0 0 0
0:00:00.00 294047 N 0 0 0
0:00:00.00 294276 N 0 0 0
0:00:00.00 294488 N 0 0 0
0:00:00.00 294618 N 0 0 0
0:00:00.00 294902 N 0 0 0
0:00:00.00 295114 N 0 0 0
0:00:00.00 295331 N 0 0 0
0:00:00.00 295539 N 0 0 0
0:00:00.00 295749 N 0 0 0
0:00:00.00 295952 N 0 0 0
0:00:00.00 296161 N 0 0 0
0:00:00.00 296350 N 0 0 0
0:00:00.00 296579 N 0 0 0
0:00:00.00 296793 N 0 0 0
0:00:00.00 296925 N 0 0 0
0:00:00.00 296934 N 0 0 0
0:00:00.00 297211 N 0 0 0
0:00:00.00 297422 N 0 0 0
0:00:00.00 297635 N 0 0 0
0:00:00.00 297852 N 0 0 0
0:00:00.00 298065 N 0 0 0
0:00:00.00 298196 N 0 0 0
0:00:00.00 298205 N 0 0 0
0:00:00.00 298483 N 0 0 0
0:00:00.00 298698 N 0 0 0
0:00:00.00 298911 N 0 0 0
0:00:00.00 299051 N 0 0 0
0:00:00.00 299340 N 0 0 0
0:00:00.00 299549 N 0 0 0
0:00:00.00 299758 N 0 0 0
0:00:00.00 299895 N 0 0 0
0:00:00.00 300178 N 0 0 0
0:00:00.00 300310 N 0 0 0
0:00:00.00 300603 N 0 0 0
0:00:00.00 300763 N 0 0 0
0:00:00.00 301021 N 0 0 0
0:00:00.00 301235 N 0 0 0
0:00:00.00 301370 N 0 0 0
0:00:00.00 301544 N 0 0 0
0:00:00.00 301874 N 0 0 0
0:00:00.00 302091 N 0 0 0
0:00:00.00 302297 N 0 0 0
0:00:00.00 302432 N 0 0 0
0:00:00.00 302726 N 0 0 0
0:00:00.00 302941 N 0 0 0
0:00:00.00 303148 N 0 0 0
0:00:00.00 303357 N 0 0 0
0:00:00.00 303569 N 0 0 0
0:00:00.00 303699 N 0 0 0
0:00:00.00 303988 N 0 0 0
0:00:00.00 304205 N 0 0 0
0:00:00.00 304410 N 0 0 0
0:00:00.00 304615 N 0 0 0
0:00:00.00 304822 N 0 0 0
0:00:00.00 305033 N 0 0 0
0:00:00.00 305224 N 0 0 0
0:00:00.00 305233 N 0 0 0
0:00:00.00 305455 N 0 0 0
0:00:00.00 305580 N 0 0 0
0:00:00.00 305863 N 0 0 0
0:00:00.00 306279 N 0 0 0
0:00:00.00 306421 N 0 0 0
0:00:00.00 306704 N 0 0 0
0:00:00.00 306858 N 0 0 0
0:00:00.00 307115 N 0 0 0
0:00:00.00 307326 N 0 0 0
0:00:00.00 307464 N 0 0 0
0:00:00.00 307749 N 0 0 0
0:00:00.00 307882 N 0 0 0
0:00:00.00 308165 N 0 0 0
0:00:00.00 308310 N 0 0 0
0:00:00.00 308582 N 0 0 0
0:00:00.00 308797 N 0 0 0
0:00:00.00 309008 N 0 0 0
0:00:00.00 309189 N 0 0 0
0:00:00.00 309427 N 0 0 0
0:00:00.00 309629 N 0 0 0
0:00:00.00 309766 N 0 0 0
0:00:00.00 310061 N 0 0 0
0:00:00.00 310196 N 0 0 0
0:00:00.00 310477 N 0 0 0
0:00:00.00 310613 N 0 0 0
0:00:00.00 310896 N 0 0 0
0:00:00.00 311065 N 0 0 0
0:00:00.00 311075 N 0 0 0
0:00:00.00 311319 N 0 0 0
0:00:00.00 311535 N 0 0 0
0:00:00.00 311667 N 0 0 0
0:00:00.00 311951 N 0 0 0
0:00:00.00 312138 N 0 0 0
0:00:00.00 312378 N 0 0 0
0:00:00.00 312593 N 0 0 0
0:00:00.00 312725 N 0 0 0
0:00:00.00 313008 N 0 0 0
0:00:00.00 313141 N 0 0 0
0:00:00.00 313431 N 0 0 0
0:00:00.00 313571 N 0 0 0
0:00:00.00 313862 N 0 0 0
0:00:00.00 314077 N 0 0 0
0:00:00.00 314208 N 0 0 0
0:00:00.00 314495 N 0 0 0
0:00:00.00 314689 N 0 0 0
0:00:00.00 314927 N 0 0 0
0:00:00.00 315141 N 0 0 0
0:00:00.00 315275 N 0 0 0
0:00:00.00 315562 N 0 0 0
0:00:00.00 315695 N 0 0 0
0:00:00.00 315986 N 0 0 0
0:00:00.00 316126 N 0 0 0
0:00:00.00 316420 N 0 0 0
0:00:00.00 316553 N 0 0 0
0:00:00.00 316841 N 0 0 0
0:00:00.00 317056 N 0 0 0
0:00:00.00 317272 N 0 0 0
0:00:00.00 317456 N 0 0 0
0:00:00.00 317697 N 0 0 0
0:00:00.00 317909 N 0 0 0
0:00:00.00 318118 N 0 0 0
0:00:00.00 318293 N 0 0 0
0:00:00.00 318538 N 0 0 0
0:00:00.00 318749 N 0 0 0
0:00:00.00 318883 N 0 0 0
0:00:00.00 319161 N 0 0 0
0:00:00.00 319292 N 0 0 0
0:00:00.00 319585 N 0 0 0
0:00:00.00 319809 N 0 0 0
0:00:00.00 320017 N 0 0 0
0:00:00.00 320229 N 0 0 0
0:00:00.00 320439 N 0 0 0
0:00:00.00 320576 N 0 0 0
0:00:00.00 320858 N 0 0 0
0:00:00.00 321073 N 0 0 0
0:00:00.00 321289 N 0 0 0
0:00:00.00 321423 N 0 0 0
0:00:00.00 321432 N 0 0 0
0:00:00.00 321702 N 0 0 0
0:00:00.00 321915 N 0 0 0
0:00:00.00 322133 N 0 0 0
0:00:00.00 322304 N 0 0 0
0:00:00.00 322314 N 0 0 0
0:00:00.00 322550 N 0 0 0
0:00:00.00 322759 N 0 0 0
0:00:00.00 322968 N 0 0 0
0:00:00.00 323140 N 0 0 0
0:00:00.00 323150 N 0 0 0
0:00:00.00 323307 N 0 0 0
0:00:00.00 323603 N 0 0 0
0:00:00.00 323778 N 0 0 0
0:00:00.00 324027 N 0 0 0
0:00:00.00 324235 N 0 0 0
0:00:00.00 324444 N 0 0 0
0:00:00.00 324622 N 0 0 0
0:00:00.00 324631 N 0 0 0
0:00:00.00 324864 N 0 0 0
0:00:00.00 325071 N 0 0 0
0:00:00.00 325275 N 0 0 0
0:00:00.00 325445 N 0 0 0
0:00:00.00 325454 N 0 0 0
0:00:00.00 325683 N 0 0 0
0:00:00.00 325891 N 0 0 0
0:00:00.00 326026 N 0 0 0
0:00:00.00 326300 N 0 0 0
0:00:00.00 326479 N 0 0 0
0:00:00.00 326489 N 0 0 0
0:00:00.00 326713 N 0 0 0
0:00:00.00 326923 N 0 0 0
0:00:00.00 327059 N 0 0 0
0:00:00.00 327340 N 0 0 0
0:00:00.00 330033 N 0 0 0
0:00:00.00 330232 N 0 0 0
0:00:00.00 330438 N 0 0 0
0:00:00.00 330641 N 0 0 0
0:00:00.00 330848 N 0 0 0
0:00:00.00 330986 N 0 0 0
0:00:00.00 331253 N 0 0 0
0:00:00.00 331456 N 0 0 0
0:00:00.00 331661 N 0 0 0
0:00:00.00 331800 N 0 0 0
0:00:00.00 332070 N 0 0 0
0:00:00.00 332204 N 0 0 0
0:00:00.00 332480 N 0 0 0
0:00:00.00 332686 N 0 0 0
0:00:00.00 332889 N 0 0 0
0:00:00.00 333029 N 0 0 0
0:00:00.00 333302 N 0 0 0
0:00:00.00 333441 N 0 0 0
0:00:00.00 333710 N 0 0 0
0:00:00.00 333911 N 0 0 0
0:00:00.00 334116 N 0 0 0
0:00:00.00 334326 N 0 0 0
0:00:00.00 334528 N 0 0 0
0:00:00.00 334660 N 0 0 0
0:00:00.00 334927 N 0 0 0
0:00:00.00 335060 N 0 0 0
0:00:00.00 335332 N 0 0 0
0:00:00.00 335538 N 0 0 0
0:00:00.00 335747 N 0 0 0
0:00:00.00 335952 N 0 0 0
0:00:00.00 336156 N 0 0 0
0:00:00.00 336353 N 0 0 0
0:00:00.00 336562 N 0 0 0
0:00:00.00 336776 N 0 0 0
0:00:00.00 336981 N 0 0 0
0:00:00.00 337186 N 0 0 0
0:00:00.00 337388 N 0 0 0
0:00:00.00 337593 N 0 0 0
0:00:00.00 337733 N 0 0 0
0:00:00.00 338002 N 0 0 0
0:00:00.00 338207 N 0 0 0
0:00:00.00 338411 N 0 0 0
0:00:00.00 338550 N 0 0 0
0:00:00.00 338814 N 0 0 0
0:00:00.00 339020 N 0 0 0
0:00:00.00 339230 N 0 0 0
0:00:00.00 339361 N 0 0 0
0:00:00.00 339637 N 0 0 0
0:00:00.00 339840 N 0 0 0
0:00:00.00 340045 N 0 0 0
0:00:00.00 340247 N 0 0 0
0:00:00.00 340455 N 0 0 0
0:00:00.00 340659 N 0 0 0
0:00:00.00 340867 N 0 0 0
0:00:00.00 341068 N 0 0 0
0:00:00.00 341274 N 0 0 0
0:00:00.00 341482 N 0 0 0
0:00:00.00 341617 N 0 0 0
0:00:00.00 341893 N 0 0 0
0:00:00.00 342097 N 0 0 0
0:00:00.00 342297 N 0 0 0
0:00:00.00 342499 N 0 0 0
0:00:00.00 342702 N 0 0 0
0:00:00.00 342908 N 0 0 0
0:00:00.00 343110 N 0 0 0
0:00:00.00 343313 N 0 0 0
0:00:00.00 343517 N 0 0 0
0:00:00.00 343715 N 0 0 0
0:00:00.00 343918 N 0 0 0
0:00:00.00 344123 N 0 0 0
0:00:00.00 344325 N 0 0 0
0:00:00.00 344528 N 0 0 0
0:00:00.00 344727 N 0 0 0
0:00:00.00 344927 N 0 0 0
0:00:00.00 345128 N 0 0 0
0:00:00.00 345269 N 0 0 0
0:00:00.00 345538 N 0 0 0
0:00:00.00 345745 N 0 0 0
0:00:00.00 345949 N 0 0 0
0:00:00.00 346149 N 0 0 0
0:00:00.00 346351 N 0 0 0
0:00:00.00 346559 N 0 0 0
0:00:00.00 346761 N 0 0 0
0:00:00.00 346965 N 0 0 0
0:00:00.00 347166 N 0 0 0
0:00:00.00 347367 N 0 0 0
0:00:00.00 347504 N 0 0 0
0:00:00.00 347512 N 0 0 0
0:00:00.00 347771 N 0 0 0
0:00:00.00 347906 N 0 0 0
0:00:00.00 348183 N 0 0 0
0:00:00.00 348320 N 0 0 0
0:00:00.00 348328 N 0 0 0
0:00:00.00 348435 N 0 0 0
0:00:00.00 348779 N 0 0 0
0:00:00.00 348996 N 0 0 0
0:00:00.00 349202 N 0 0 0
0:00:00.00 349408 N 0 0 0
0:00:00.00 349613 N 0 0 0
0:00:00.00 349819 N 0 0 0
0:00:00.00 350026 N 0 0 0
0:00:00.00 350236 N 0 0 0
0:00:00.00 350446 N 0 0 0
0:00:00.00 350653 N 0 0 0
0:00:00.00 350859 N 0 0 0
0:00:00.00 351062 N 0 0 0
0:00:00.00 351271 N 0 0 0
0:00:00.00 351487 N 0 0 0
0:00:00.00 351692 N 0 0 0
0:00:00.00 351820 N 0 0 0
0:00:00.00 352097 N 0 0 0
0:00:00.00 352279 N 0 0 0
0:00:00.00 352514 N 0 0 0
0:00:00.00 352727 N 0 0 0
0:00:00.00 352943 N 0 0 0
0:00:00.00 353148 N 0 0 0
0:00:00.00 353283 N 0 0 0
0:00:00.00 353555 N 0 0 0
0:00:00.00 353754 N 0 0 0
0:00:00.00 353985 N 0 0 0
0:00:00.00 354195 N 0 0 0
0:00:00.00 354323 N 0 0 0
0:00:00.00 354331 N 0 0 0
0:00:00.00 354602 N 0 0 0
0:00:00.00 354780 N 0 0 0
0:00:00.00 354890 N 0 0 0
0:00:00.00 355224 N 0 0 0
0:00:00.00 355440 N 0 0 0
0:00:00.00 355648 N 0 0 0
0:00:00.00 355778 N 0 0 0
0:00:00.00 356061 N 0 0 0
0:00:00.00 356241 N 0 0 0
0:00:00.00 356250 N 0 0 0
0:00:00.00 356488 N 0 0 0
0:00:00.00 356701 N 0 0 0
0:00:00.00 356829 N 0 0 0
0:00:00.00 357113 N 0 0 0
0:00:00.00 357288 N 0 0 0
0:00:00.00 357298 N 0 0 0
0:00:00.00 357539 N 0 0 0
0:00:00.00 357755 N 0 0 0
0:00:00.00 357884 N 0 0 0
0:00:00.00 357893 N 0 0 0
0:00:00.00 358170 N 0 0 0
0:00:00.00 358301 N 0 0 0
0:00:00.00 358594 N 0 0 0
0:00:00.00 358813 N 0 0 0
0:00:00.00 359024 N 0 0 0
0:00:00.00 359232 N 0 0 0
0:00:00.00 359440 N 0 0 0
0:00:00.00 359578 N 0 0 0
0:00:00.00 359858 N 0 0 0
0:00:00.00 359993 N 0 0 0
0:00:00.00 360290 N 0 0 0
0:00:00.00 360443 N 0 0 0
0:00:00.00 360709 N 0 0 0
0:00:00.00 360924 N 0 0 0
0:00:00.00 361142 N 0 0 0
0:00:00.00 361302 N 0 0 0
0:00:00.00 361561 N 0 0 0
0:00:00.00 361772 N 0 0 0
0:00:00.00 361980 N 0 0 0
0:00:00.00 362141 N 0 0 0
0:00:00.00 362398 N 0 0 0
0:00:00.00 362617 N 0 0 0
0:00:00.00 362746 N 0 0 0
0:00:00.00 363031 N 0 0 0
0:00:00.00 363160 N 0 0 0
0:00:00.00 363456 N 0 0 0
0:00:00.00 363674 N 0 0 0
0:00:00.00 363881 N 0 0 0
0:00:00.00 364012 N 0 0 0
0:00:00.00 364294 N 0 0 0
0:00:00.00 364511 N 0 0 0
0:00:00.00 364716 N 0 0 0
0:00:00.00 364852 N 0 0 0
0:00:00.00 365140 N 0 0 0
0:00:00.00 365350 N 0 0 0
0:00:00.00 365555 N 0 0 0
0:00:00.00 365689 N 0 0 0
0:00:00.00 365977 N 0 0 0
0:00:00.00 366188 N 0 0 0
0:00:00.00 366397 N 0 0 0
0:00:00.00 366528 N 0 0 0
0:00:00.00 366810 N 0 0 0
0:00:00.00 367022 N 0 0 0
0:00:00.00 367234 N 0 0 0
0:00:00.00 367447 N 0 0 0
0:00:00.00 367656 N 0 0 0
0:00:00.00 367792 N 0 0 0
0:00:00.00 368068 N 0 0 0
0:00:00.00 368282 N 0 0 0
0:00:00.00 368497 N 0 0 0
0:00:00.00 368708 N 0 0 0
0:00:00.00 368913 N 0 0 0
0:00:00.00 369047 N 0 0 0
0:00:00.00 369324 N 0 0 0
0:00:00.00 369480 N 0 0 0
0:00:00.00 369738 N 0 0 0
0:00:00.00 369950 N 0 0 0
0:00:00.00 370156 N 0 0 0
0:00:00.00 370363 N 0 0 0
0:00:00.00 370570 N 0 0 0
0:00:00.00 370706 N 0 0 0
0:00:00.00 370993 N 0 0 0
0:00:00.00 371205 N 0 0 0
0:00:00.00 371407 N 0 0 0
0:00:00.00 371558 N 0 0 0
0:00:00.00 371797 N 0 0 0
0:00:00.00 372007 N 0 0 0
0:00:00.00 372151 N 0 0 0
0:00:00.00 372425 N 0 0 0
0:00:00.00 372579 N 0 0 0
0:00:00.00 372589 N 0 0 0
0:00:00.00 372841 N 0 0 0
0:00:00.00 373054 N 0 0 0
0:00:00.00 373264 N 0 0 0
0:00:00.00 373421 N 0 0 0
0:00:00.00 373431 N 0 0 0
0:00:00.00 373678 N 0 0 0
0:00:00.00 373883 N 0 0 0
0:00:00.00 374088 N 0 0 0
0:00:00.00 374251 N 0 0 0
0:00:00.00 374260 N 0 0 0
0:00:00.00 374501 N 0 0 0
0:00:00.00 374711 N 0 0 0
0:00:00.00 374919 N 0 0 0
0:00:00.00 375088 N 0 0 0
0:00:00.00 375323 N 0 0 0
0:00:00.00 375533 N 0 0 0
0:00:00.00 375675 N 0 0 0
0:00:00.00 375949 N 0 0 0
0:00:00.00 376161 N 0 0 0
0:00:00.00 376364 N 0 0 0
0:00:00.00 376569 N 0 0 0
0:00:00.00 376775 N 0 0 0
0:00:00.00 376911 N 0 0 0
0:00:00.00 377192 N 0 0 0
0:00:00.00 377359 N 0 0 0
0:00:00.00 377370 N 0 0 0
0:00:00.00 377609 N 0 0 0
0:00:00.00 377811 N 0 0 0
0:00:00.00 377950 N 0 0 0
0:00:00.00 378225 N 0 0 0
0:00:00.00 378408 N 0 0 0
0:00:00.00 378636 N 0 0 0
0:00:00.00 378841 N 0 0 0
0:00:00.00 378971 N 0 0 0
0:00:00.00 379248 N 0 0 0
0:00:00.00 379423 N 0 0 0
0:00:00.00 379432 N 0 0 0
0:00:00.00 379660 N 0 0 0
0:00:00.00 379868 N 0 0 0
0:00:00.00 380000 N 0 0 0
0:00:00.00 380273 N 0 0 0
0:00:00.00 380407 N 0 0 0
0:00:00.00 380699 N 0 0 0
0:00:00.00 380908 N 0 0 0
0:00:00.00 381113 N 0 0 0
0:00:00.00 381321 N 0 0 0
0:00:00.00 381529 N 0 0 0
0:00:00.00 381663 N 0 0 0
0:00:00.00 381672 N 0 0 0
0:00:00.00 381941 N 0 0 0
0:00:00.00 382156 N 0 0 0
0:00:00.00 382361 N 0 0 0
0:00:00.00 382515 N 0 0 0
0:00:00.00 382525 N 0 0 0
0:00:00.00 382769 N 0 0 0
0:00:00.00 382982 N 0 0 0
0:00:00.00 383195 N 0 0 0
0:00:00.00 383403 N 0 0 0
0:00:00.00 383606 N 0 0 0
0:00:00.00 383738 N 0 0 0
0:00:00.00 383988 N 0 0 0
0:00:00.00 384201 N 0 0 0
0:00:00.00 384413 N 0 0 0
0:00:00.00 384629 N 0 0 0
0:00:00.00 384836 N 0 0 0
0:00:00.00 384973 N 0 0 0
0:00:00.00 384982 N 0 0 0
0:00:00.00 385249 N 0 0 0
0:00:00.00 385409 N 0 0 0
0:00:00.00 385419 N 0 0 0
0:00:00.00 385678 N 0 0 0
0:00:00.00 385894 N 0 0 0
0:00:00.00 386099 N 0 0 0
0:00:00.00 386304 N 0 0 0
0:00:00.00 386516 N 0 0 0
0:00:00.00 386725 N 0 0 0
0:00:00.00 386935 N 0 0 0
0:00:00.00 387142 N 0 0 0
0:00:00.00 387274 N 0 0 0
0:00:00.00 387284 N 0 0 0
0:00:00.00 387532 N 0 0 0
0:00:00.00 387717 N 0 0 0
0:00:00.00 387962 N 0 0 0
0:00:00.00 388173 N 0 0 0
0:00:00.00 388385 N 0 0 0
0:00:00.00 388541 N 0 0 0
0:00:00.00 388551 N 0 0 0
0:00:00.00 388669 N 0 0 0
0:00:00.00 389002 N 0 0 0
0:00:00.00 389175 N 0 0 0
0:00:00.00 389184 N 0 0 0
0:00:00.00 389436 N 0 0 0
0:00:00.00 389646 N 0 0 0
0:00:00.00 389857 N 0 0 0
0:00:00.00 390069 N 0 0 0
0:00:00.00 390283 N 0 0 0
0:00:00.00 390421 N 0 0 0
0:00:00.00 390702 N 0 0 0
0:00:00.00 390909 N 0 0 0
0:00:00.00 391117 N 0 0 0
0:00:00.00 391265 N 0 0 0
0:00:00.00 391501 N 0 0 0
0:00:00.00 391719 N 0 0 0
0:00:00.00 391935 N 0 0 0
0:00:00.00 392088 N 0 0 0
0:00:00.00 392099 N 0 0 0
0:00:00.00 392350 N 0 0 0
0:00:00.00 392561 N 0 0 0
0:00:00.00 392781 N 0 0 0
0:00:00.00 392947 N 0 0 0
0:00:00.00 393204 N 0 0 0
0:00:00.00 393417 N 0 0 0
0:00:00.00 393627 N 0 0 0
0:00:00.00 393792 N 0 0 0
0:00:00.00 393801 N 0 0 0
0:00:00.00 394044 N 0 0 0
0:00:00.00 394262 N 0 0 0
0:00:00.00 394402 N 0 0 0
0:00:00.00 394644 N 0 0 0
0:00:00.00 394852 N 0 0 0
0:00:00.00 395064 N 0 0 0
0:00:00.00 395281 N 0 0 0
0:00:00.00 395486 N 0 0 0
0:00:00.00 395691 N 0 0 0
0:00:00.00 395823 N 0 0 0
0:00:00.00 396102 N 0 0 0
0:00:00.00 396311 N 0 0 0
0:00:00.00 396520 N 0 0 0
0:00:00.00 396663 N 0 0 0
0:00:00.00 396671 N 0 0 0
0:00:00.00 396938 N 0 0 0
0:00:00.00 397151 N 0 0 0
0:00:00.00 397262 N 0 0 0
0:00:00.00 397570 N 0 0 0
0:00:00.00 397787 N 0 0 0
0:00:00.00 397999 N 0 0 0
0:00:00.00 398133 N 0 0 0
0:00:00.00 398142 N 0 0 0
0:00:00.00 398409 N 0 0 0
0:00:00.00 398544 N 0 0 0
0:00:00.00 398833 N 0 0 0
0:00:00.00 399000 N 0 0 0
0:00:00.00 399255 N 0 0 0
0:00:00.00 399467 N 0 0 0
0:00:00.00 399672 N 0 0 0
0:00:00.00 399881 N 0 0 0
0:00:00.00 400095 N 0 0 0
0:00:00.00 400227 N 0 0 0
0:00:00.00 400513 N 0 0 0
0:00:00.00 400722 N 0 0 0
0:00:00.00 400929 N 0 0 0
0:00:00.00 401136 N 0 0 0
0:00:00.00 401349 N 0 0 0
0:00:00.00 401563 N 0 0 0
0:00:00.00 401768 N 0 0 0
0:00:00.00 401977 N 0 0 0
0:00:00.00 402179 N 0 0 0
0:00:00.00 402314 N 0 0 0
0:00:00.00 402597 N 0 0 0
0:00:00.00 402807 N 0 0 0
0:00:00.00 403012 N 0 0 0
0:00:00.00 403215 N 0 0 0
0:00:00.00 403423 N 0 0 0
0:00:00.00 403551 N 0 0 0
0:00:00.00 403560 N 0 0 0
0:00:00.00 403831 N 0 0 0
0:00:00.00 404044 N 0 0 0
0:00:00.00 404246 N 0 0 0
0:00:00.00 404450 N 0 0 0
0:00:00.00 404654 N 0 0 0
0:00:00.00 404866 N 0 0 0
0:00:00.00 405078 N 0 0 0
0:00:00.00 405284 N 0 0 0
0:00:00.00 405485 N 0 0 0
0:00:00.00 405623 N 0 0 0
0:00:00.00 405631 N 0 0 0
0:00:00.00 405899 N 0 0 0
0:00:00.00 406077 N 0 0 0
0:00:00.00 406316 N 0 0 0
0:00:00.00 406531 N 0 0 0
0:00:00.00 406737 N 0 0 0
0:00:00.00 406940 N 0 0 0
0:00:00.00 407118 N 0 0 0
0:00:00.00 407273 N 0 0 0
0:00:00.00 407572 N 0 0 0
0:00:00.00 407748 N 0 0 0
0:00:00.00 407987 N 0 0 0
0:00:00.00 408165 N 0 0 0
0:00:00.00 408402 N 0 0 0
0:00:00.00 408613 N 0 0 0
0:00:00.00 408745 N 0 0 0
0:00:00.00 409034 N 0 0 0
0:00:00.00 409216 N 0 0 0
0:00:00.00 409449 N 0 0 0
0:00:00.00 409662 N 0 0 0
0:00:00.00 409877 N 0 0 0
0:00:00.00 410087 N 0 0 0
0:00:00.00 410295 N 0 0 0
0:00:00.00 410504 N 0 0 0
0:00:00.00 410634 N 0 0 0
0:00:00.00 410917 N 0 0 0
0:00:00.00 411083 N 0 0 0
0:00:00.00 411341 N 0 0 0
0:00:00.00 411555 N 0 0 0
0:00:00.00 411764 N 0 0 0
0:00:00.00 411970 N 0 0 0
0:00:00.00 412179 N 0 0 0
0:00:00.00 412319 N 0 0 0
0:00:00.00 412599 N 0 0 0
0:00:00.00 412806 N 0 0 0
0:00:00.00 413013 N 0 0 0
0:00:00.00 413225 N 0 0 0
0:00:00.00 413433 N 0 0 0
0:00:00.00 413570 N 0 0 0
0:00:00.00 413578 N 0 0 0
0:00:00.00 413752 N 0 0 0
0:00:00.00 414057 N 0 0 0
0:00:00.00 414215 N 0 0 0
0:00:00.00 414226 N 0 0 0
0:00:00.00 414475 N 0 0 0
0:00:00.00 414691 N 0 0 0
0:00:00.00 414903 N 0 0 0
0:00:00.00 415112 N 0 0 0
0:00:00.00 415318 N 0 0 0
0:00:00.00 415523 N 0 0 0
0:00:00.00 415661 N 0 0 0
0:00:00.00 415943 N 0 0 0
0:00:00.00 416121 N 0 0 0
0:00:00.00 416366 N 0 0 0
0:00:00.00 416575 N 0 0 0
0:00:00.00 416780 N 0 0 0
0:00:00.00 416937 N 0 0 0
0:00:00.00 416948 N 0 0 0
0:00:00.00 417062 N 0 0 0
0:00:00.00 417397 N 0 0 0
0:00:00.00 417565 N 0 0 0
0:00:00.00 417574 N 0 0 0
0:00:00.00 417817 N 0 0 0
0:00:00.00 418027 N 0 0 0
0:00:00.00 418157 N 0 0 0
0:00:00.00 418441 N 0 0 0
0:00:00.00 418628 N 0 0 0
0:00:00.00 418864 N 0 0 0
0:00:00.00 419072 N 0 0 0
0:00:00.00 419203 N 0 0 0
0:00:00.00 419488 N 0 0 0
0:00:00.00 419678 N 0 0 0
0:00:00.00 419824 N 0 0 0
0:00:00.00 420116 N 0 0 0
0:00:00.00 420327 N 0 0 0
0:00:00.00 420539 N 0 0 0
0:00:00.00 420729 N 0 0 0
0:00:00.00 420958 N 0 0 0
0:00:00.00 421173 N 0 0 0
0:00:00.00 421308 N 0 0 0
0:00:00.00 421580 N 0 0 0
0:00:00.00 421763 N 0 0 0
0:00:00.00 422011 N 0 0 0
0:00:00.00 422222 N 0 0 0
0:00:00.00 422353 N 0 0 0
0:00:00.00 422362 N 0 0 0
0:00:00.00 422633 N 0 0 0
0:00:00.00 422816 N 0 0 0
0:00:00.00 423049 N 0 0 0
0:00:00.00 423217 N 0 0 0
0:00:00.00 423472 N 0 0 0
0:00:00.00 423682 N 0 0 0
0:00:00.00 423817 N 0 0 0
0:00:00.00 423826 N 0 0 0
0:00:00.00 424092 N 0 0 0
0:00:00.00 424307 N 0 0 0
0:00:00.00 424525 N 0 0 0
0:00:00.00 424660 N 0 0 0
0:00:00.00 424937 N 0 0 0
0:00:00.00 425148 N 0 0 0
0:00:00.00 425363 N 0 0 0
0:00:00.00 425494 N 0 0 0
0:00:00.00 425502 N 0 0 0
0:00:00.00 425778 N 0 0 0
0:00:00.00 425999 N 0 0 0
0:00:00.00 426207 N 0 0 0
0:00:00.00 426341 N 0 0 0
0:00:00.00 426623 N 0 0 0
0:00:00.00 426844 N 0 0 0
0:00:00.00 427056 N 0 0 0
0:00:00.00 427193 N 0 0 0
0:00:00.00 427476 N 0 0 0
0:00:00.00 427689 N 0 0 0
0:00:00.00 427901 N 0 0 0
0:00:00.00 428037 N 0 0 0
0:00:00.00 428332 N 0 0 0
0:00:00.00 428543 N 0 0 0
0:00:00.00 428754 N 0 0 0
0:00:00.00 428889 N 0 0 0
0:00:00.00 429177 N 0 0 0
0:00:00.00 429397 N 0 0 0
0:00:00.00 429606 N 0 0 0
0:00:00.00 429738 N 0 0 0
0:00:00.00 430013 N 0 0 0
0:00:00.00 430189 N 0 0 0
0:00:00.00 430198 N 0 0 0
0:00:00.00 430436 N 0 0 0
0:00:00.00 430652 N 0 0 0
0:00:00.00 430861 N 0 0 0
0:00:00.00 431016 N 0 0 0
0:00:00.00 431026 N 0 0 0
0:00:00.00 431273 N 0 0 0
0:00:00.00 431484 N 0 0 0
0:00:00.00 431698 N 0 0 0
0:00:00.00 431902 N 0 0 0
0:00:00.00 432115 N 0 0 0
0:00:00.00 432320 N 0 0 0
0:00:00.00 432526 N 0 0 0
0:00:00.00 432731 N 0 0 0
0:00:00.00 432939 N 0 0 0
0:00:00.00 433152 N 0 0 0
0:00:00.00 433356 N 0 0 0
0:00:00.00 433563 N 0 0 0
0:00:00.00 433765 N 0 0 0
0:00:00.00 433973 N 0 0 0
0:00:00.00 434184 N 0 0 0
0:00:00.00 434388 N 0 0 0
0:00:00.00 434593 N 0 0 0
0:00:00.00 434797 N 0 0 0
0:00:00.00 435005 N 0 0 0
0:00:00.00 435208 N 0 0 0
0:00:00.00 435345 N 0 0 0
0:00:00.00 435626 N 0 0 0
0:00:00.00 435835 N 0 0 0
0:00:00.00 436046 N 0 0 0
0:00:00.00 436177 N 0 0 0
0:00:00.00 436468 N 0 0 0
0:00:00.00 436627 N 0 0 0
0:00:00.00 436638 N 0 0 0
0:00:00.00 436901 N 0 0 0
0:00:00.00 437110 N 0 0 0
0:00:00.00 437320 N 0 0 0
0:00:00.00 437537 N 0 0 0
0:00:00.00 437958 N 0 0 0
0:00:00.00 438174 N 0 0 0
0:00:00.00 438382 N 0 0 0
0:00:00.00 438532 N 0 0 0
0:00:00.00 438542 N 0 0 0
0:00:00.00 438794 N 0 0 0
0:00:00.00 439015 N 0 0 0
0:00:00.00 439227 N 0 0 0
0:00:00.00 439440 N 0 0 0
0:00:00.00 439644 N 0 0 0
0:00:00.00 439776 N 0 0 0
0:00:00.00 440064 N 0 0 0
0:00:00.00 440285 N 0 0 0
0:00:00.00 440494 N 0 0 0
0:00:00.00 440629 N 0 0 0
0:00:00.00 440912 N 0 0 0
0:00:00.00 441121 N 0 0 0
0:00:00.00 441333 N 0 0 0
0:00:00.00 441473 N 0 0 0
0:00:00.00 441757 N 0 0 0
0:00:00.00 441940 N 0 0 0
0:00:00.00 442177 N 0 0 0
0:00:00.00 442392 N 0 0 0
0:00:00.00 442600 N 0 0 0
0:00:00.00 442812 N 0 0 0
0:00:00.00 442950 N 0 0 0
0:00:00.00 443234 N 0 0 0
0:00:00.00 443447 N 0 0 0
0:00:00.00 443659 N 0 0 0
0:00:00.00 443796 N 0 0 0
0:00:00.00 444084 N 0 0 0
0:00:00.00 444301 N 0 0 0
0:00:00.00 444509 N 0 0 0
0:00:00.00 444642 N 0 0 0
0:00:00.00 444931 N 0 0 0
0:00:00.00 445369 N 0 0 0
0:00:00.00 445584 N 0 0 0
0:00:00.00 445796 N 0 0 0
0:00:00.00 445946 N 0 0 0
0:00:00.00 446138 N 0 0 0
0:00:00.00 446440 N 0 0 0
0:00:00.00 446588 N 0 0 0
0:00:00.00 446598 N 0 0 0
0:00:00.00 446721 N 0 0 0
0:00:00.00 447056 N 0 0 0
0:00:00.00 447274 N 0 0 0
0:00:00.00 447486 N 0 0 0
0:00:00.00 447701 N 0 0 0
0:00:00.00 447918 N 0 0 0
0:00:00.00 448050 N 0 0 0
0:00:00.00 448330 N 0 0 0
0:00:00.00 448545 N 0 0 0
0:00:00.00 448766 N 0 0 0
0:00:00.00 448901 N 0 0 0
0:00:00.00 449192 N 0 0 0
0:00:00.00 449409 N 0 0 0
0:00:00.00 449623 N 0 0 0
0:00:00.00 449758 N 0 0 0
0:00:00.00 450048 N 0 0 0
0:00:00.00 450272 N 0 0 0
0:00:00.00 450485 N 0 0 0
0:00:00.00 450621 N 0 0 0
0:00:00.00 450907 N 0 0 0
0:00:00.00 451110 N 0 0 0
0:00:00.00 451336 N 0 0 0
0:00:00.00 451546 N 0 0 0
0:00:00.00 451750 N 0 0 0
0:00:00.00 451958 N 0 0 0
0:00:00.00 452174 N 0 0 0
0:00:00.00 452385 N 0 0 0
0:00:00.00 452595 N 0 0 0
0:00:00.00 452737 N 0 0 0
0:00:00.00 453020 N 0 0 0
0:00:00.00 453232 N 0 0 0
0:00:00.00 453446 N 0 0 0
0:00:00.00 453587 N 0 0 0
0:00:00.00 453882 N 0 0 0
0:00:00.00 454100 N 0 0 0
0:00:00.00 454310 N 0 0 0
0:00:00.00 454440 N 0 0 0
0:00:00.00 454737 N 0 0 0
0:00:00.00 454958 N 0 0 0
0:00:00.00 455180 N 0 0 0
0:00:00.00 455393 N 0 0 0
0:00:00.00 455607 N 0 0 0
0:00:00.00 455820 N 0 0 0
0:00:00.00 456039 N 0 0 0
0:00:00.00 456174 N 0 0 0
0:00:00.00 456467 N 0 0 0
0:00:00.00 456682 N 0 0 0
0:00:00.00 456894 N 0 0 0
0:00:00.00 457027 N 0 0 0
0:00:00.00 457328 N 0 0 0
0:00:00.00 457552 N 0 0 0
0:00:00.00 457767 N 0 0 0
0:00:00.00 457901 N 0 0 0
0:00:00.00 458199 N 0 0 0
0:00:00.00 458428 N 0 0 0
0:00:00.00 458647 N 0 0 0
0:00:00.00 458782 N 0 0 0
0:00:00.00 459076 N 0 0 0
0:00:00.00 459291 N 0 0 0
0:00:00.00 459508 N 0 0 0
0:00:00.00 459641 N 0 0 0
0:00:00.00 459943 N 0 0 0
0:00:00.00 460160 N 0 0 0
0:00:00.00 460376 N 0 0 0
0:00:00.00 460506 N 0 0 0
0:00:00.00 460806 N 0 0 0
0:00:00.00 461032 N 0 0 0
0:00:00.00 461248 N 0 0 0
0:00:00.00 461381 N 0 0 0
0:00:00.00 461675 N 0 0 0
0:00:00.00 461891 N 0 0 0
0:00:00.00 462108 N 0 0 0
0:00:00.00 462242 N 0 0 0
0:00:00.00 462543 N 0 0 0
0:00:00.00 462761 N 0 0 0
0:00:00.00 462970 N 0 0 0
0:00:00.00 463109 N 0 0 0
0:00:00.00 463406 N 0 0 0
0:00:00.00 463618 N 0 0 0
0:00:00.00 463824 N 0 0 0
0:00:00.00 463959 N 0 0 0
0:00:00.00 464248 N 0 0 0
0:00:00.00 464462 N 0 0 0
0:00:00.00 464674 N 0 0 0
0:00:00.00 464815 N 0 0 0
0:00:00.00 465101 N 0 0 0
0:00:00.00 465315 N 0 0 0
0:00:00.00 465527 N 0 0 0
0:00:00.00 465668 N 0 0 0
0:00:00.00 465958 N 0 0 0
0:00:00.00 466173 N 0 0 0
0:00:00.00 466384 N 0 0 0
0:00:00.00 466517 N 0 0 0
0:00:00.00 466810 N 0 0 0
0:00:00.00 467028 N 0 0 0
0:00:00.00 467247 N 0 0 0
0:00:00.00 467378 N 0 0 0
0:00:00.00 467668 N 0 0 0
0:00:00.00 467881 N 0 0 0
0:00:00.00 468097 N 0 0 0
0:00:00.00 468239 N 0 0 0
0:00:00.00 468525 N 0 0 0
0:00:00.00 468735 N 0 0 0
0:00:00.00 468945 N 0 0 0
0:00:00.00 469087 N 0 0 0
0:00:00.00 469369 N 0 0 0
0:00:00.00 469586 N 0 0 0
0:00:00.00 469797 N 0 0 0
0:00:00.00 469935 N 0 0 0
0:00:00.00 470218 N 0 0 0
0:00:00.00 470435 N 0 0 0
0:00:00.00 470652 N 0 0 0
0:00:00.00 470788 N 0 0 0
0:00:00.00 471078 N 0 0 0
0:00:00.00 471291 N 0 0 0
0:00:00.00 471502 N 0 0 0
0:00:00.00 471637 N 0 0 0
0:00:00.00 471923 N 0 0 0
0:00:00.00 472144 N 0 0 0
0:00:00.00 472351 N 0 0 0
0:00:00.00 472490 N 0 0 0
0:00:00.00 472770 N 0 0 0
0:00:00.00 472991 N 0 0 0
0:00:00.00 473202 N 0 0 0
0:00:00.00 473345 N 0 0 0
0:00:00.00 473622 N 0 0 0
0:00:00.00 473836 N 0 0 0
0:00:00.00 474046 N 0 0 0
0:00:00.00 474238 N 0 0 0
0:00:00.00 474477 N 0 0 0
0:00:00.00 474690 N 0 0 0
0:00:00.00 474900 N 0 0 0
0:00:00.00 475076 N 0 0 0
0:00:00.00 475086 N 0 0 0
0:00:00.00 475221 N 0 0 0
0:00:00.00 475544 N 0 0 0
0:00:00.00 475678 N 0 0 0
0:00:00.00 475965 N 0 0 0
0:00:00.00 476180 N 0 0 0
0:00:00.00 476392 N 0 0 0
0:00:00.00 476566 N 0 0 0
0:00:00.00 476575 N 0 0 0
0:00:00.00 476812 N 0 0 0
0:00:00.00 477031 N 0 0 0
0:00:00.00 477240 N 0 0 0
0:00:00.00 477413 N 0 0 0
0:00:00.00 477545 N 0 0 0
0:00:00.00 477869 N 0 0 0
0:00:00.00 478036 N 0 0 0
0:00:00.00 478295 N 0 0 0
0:00:00.00 478498 N 0 0 0
0:00:00.00 478704 N 0 0 0
0:00:00.00 478912 N 0 0 0
0:00:00.00 479119 N 0 0 0
0:00:00.00 479256 N 0 0 0
0:00:00.00 479538 N 0 0 0
0:00:00.00 479750 N 0 0 0
0:00:00.00 479953 N 0 0 0
0:00:00.00 480151 N 0 0 0
0:00:00.00 480281 N 0 0 0
0:00:00.00 480582 N 0 0 0
0:00:00.00 480735 N 0 0 0
0:00:00.00 480992 N 0 0 0
0:00:00.00 481174 N 0 0 0
0:00:00.00 481183 N 0 0 0
0:00:00.00 481402 N 0 0 0
0:00:00.00 481609 N 0 0 0
0:00:00.00 481810 N 0 0 0
0:00:00.00 481985 N 0 0 0
0:00:00.00 482218 N 0 0 0
0:00:00.00 482416 N 0 0 0
0:00:00.00 482619 N 0 0 0
0:00:00.00 482803 N 0 0 0
0:00:00.00 482937 N 0 0 0
0:00:00.00 483229 N 0 0 0
0:00:00.00 483430 N 0 0 0
0:00:00.00 483630 N 0 0 0
0:00:00.00 483830 N 0 0 0
0:00:00.00 484012 N 0 0 0
0:00:00.00 484149 N 0 0 0
0:00:00.00 484446 N 0 0 0
0:00:00.00 484652 N 0 0 0
0:00:00.00 484822 N 0 0 0
0:00:00.00 485053 N 0 0 0
0:00:00.00 485261 N 0 0 0
0:00:00.00 485402 N 0 0 0
0:00:00.00 485586 N 0 0 0
0:00:00.00 485725 N 0 0 0
0:00:00.00 486056 N 0 0 0
0:00:00.00 486231 N 0 0 0
0:00:00.00 486375 N 0 0 0
0:00:00.00 486674 N 0 0 0
0:00:00.00 486812 N 0 0 0
0:00:00.00 487190 N 0 0 0
0:00:00.00 487495 N 0 0 0
0:00:00.00 487660 N 0 0 0
0:00:00.00 487671 N 0 0 0
0:00:00.00 487917 N 0 0 0
0:00:00.00 488124 N 0 0 0
0:00:00.00 488328 N 0 0 0
0:00:00.00 488531 N 0 0 0
0:00:00.00 488668 N 0 0 0
0:00:00.00 488940 N 0 0 0
0:00:00.00 489152 N 0 0 0
0:00:00.00 489323 N 0 0 0
0:00:00.00 489560 N 0 0 0
0:00:00.00 489767 N 0 0 0
0:00:00.00 489976 N 0 0 0
0:00:00.00 490169 N 0 0 0
0:00:00.00 490391 N 0 0 0
0:00:00.00 490591 N 0 0 0
0:00:00.00 490737 N 0 0 0
0:00:00.00 491000 N 0 0 0
0:00:00.00 491205 N 0 0 0
0:00:00.00 491412 N 0 0 0
0:00:00.00 491561 N 0 0 0
0:00:00.00 491826 N 0 0 0
0:00:00.00 492031 N 0 0 0
0:00:00.00 492238 N 0 0 0
0:00:00.00 492375 N 0 0 0
0:00:00.00 492583 N 0 0 0
0:00:00.00 492593 N 0 0 0
0:00:00.00 492716 N 0 0 0
0:00:00.00 493051 N 0 0 0
0:00:00.00 493266 N 0 0 0
0:00:00.00 493476 N 0 0 0
0:00:00.00 493608 N 0 0 0
0:00:00.00 493894 N 0 0 0
0:00:00.00 494066 N 0 0 0
0:00:00.00 494076 N 0 0 0
0:00:00.00 494317 N 0 0 0
0:00:00.00 494524 N 0 0 0
0:00:00.00 494731 N 0 0 0
0:00:00.00 494947 N 0 0 0
0:00:00.00 495155 N 0 0 0
0:00:00.00 495364 N 0 0 0
0:00:00.00 495569 N 0 0 0
0:00:00.00 495776 N 0 0 0
0:00:00.00 495909 N 0 0 0
0:00:00.00 495918 N 0 0 0
0:00:00.00 496193 N 0 0 0
0:00:00.00 496412 N 0 0 0
0:00:00.00 496621 N 0 0 0
0:00:00.00 496757 N 0 0 0
0:00:00.00 496766 N 0 0 0
0:00:00.00 497038 N 0 0 0
0:00:00.00 497256 N 0 0 0
0:00:00.00 497470 N 0 0 0
0:00:00.00 497607 N 0 0 0
0:00:00.00 497884 N 0 0 0
0:00:00.00 498096 N 0 0 0
0:00:00.00 498306 N 0 0 0
0:00:00.00 498442 N 0 0 0
0:00:00.00 498729 N 0 0 0
0:00:00.00 498942 N 0 0 0
0:00:00.00 499150 N 0 0 0
0:00:00.00 499283 N 0 0 0
0:00:00.00 499562 N 0 0 0
0:00:00.00 499781 N 0 0 0
0:00:00.00 499988 N 0 0 0
0:00:00.00 500126 N 0 0 0
0:00:00.00 500406 N 0 0 0
0:00:00.00 500619 N 0 0 0
0:00:00.00 500827 N 0 0 0
0:00:00.00 500968 N 0 0 0
0:00:00.00 501260 N 0 0 0
0:00:00.00 501473 N 0 0 0
0:00:00.00 501682 N 0 0 0
0:00:00.00 501818 N 0 0 0
0:00:00.00 502110 N 0 0 0
0:00:00.00 502331 N 0 0 0
0:00:00.00 502543 N 0 0 0
0:00:00.00 502675 N 0 0 0
0:00:00.00 502684 N 0 0 0
0:00:00.00 502958 N 0 0 0
0:00:00.00 503172 N 0 0 0
0:00:00.00 503385 N 0 0 0
0:00:00.00 503519 N 0 0 0
0:00:00.00 503807 N 0 0 0
0:00:00.00 504019 N 0 0 0
0:00:00.00 504225 N 0 0 0
0:00:00.00 504361 N 0 0 0
0:00:00.00 504653 N 0 0 0
0:00:00.00 504866 N 0 0 0
0:00:00.00 505075 N 0 0 0
0:00:00.00 505211 N 0 0 0
0:00:00.00 505495 N 0 0 0
0:00:00.00 505706 N 0 0 0
0:00:00.00 505918 N 0 0 0
0:00:00.00 506059 N 0 0 0
0:00:00.00 506345 N 0 0 0
0:00:00.00 506558 N 0 0 0
0:00:00.00 506767 N 0 0 0
0:00:00.00 506908 N 0 0 0
0:00:00.00 507201 N 0 0 0
0:00:00.00 507416 N 0 0 0
0:00:00.00 507621 N 0 0 0
0:00:00.00 507788 N 0 0 0
0:00:00.00 507797 N 0 0 0
0:00:00.00 508037 N 0 0 0
0:00:00.00 508247 N 0 0 0
0:00:00.00 508456 N 0 0 0
0:00:00.00 508667 N 0 0 0
0:00:00.00 508878 N 0 0 0
0:00:00.00 509084 N 0 0 0
0:00:00.00 509296 N 0 0 0
0:00:00.00 509516 N 0 0 0
0:00:00.00 509726 N 0 0 0
0:00:00.00 509937 N 0 0 0
0:00:00.00 510145 N 0 0 0
0:00:00.00 510359 N 0 0 0
0:00:00.00 510569 N 0 0 0
0:00:00.00 510782 N 0 0 0
0:00:00.00 510921 N 0 0 0
0:00:00.00 511203 N 0 0 0
0:00:00.00 511365 N 0 0 0
0:00:00.00 511628 N 0 0 0
0:00:00.00 511766 N 0 0 0
0:00:00.00 512057 N 0 0 0
0:00:00.00 512246 N 0 0 0
0:00:00.00 512487 N 0 0 0
0:00:00.00 512704 N 0 0 0
0:00:00.00 512919 N 0 0 0
0:00:00.00 513091 N 0 0 0
0:00:00.00 513100 N 0 0 0
0:00:00.00 513355 N 0 0 0
0:00:00.00 513573 N 0 0 0
0:00:00.00 513788 N 0 0 0
0:00:00.00 513954 N 0 0 0
0:00:00.00 513964 N 0 0 0
0:00:00.00 514214 N 0 0 0
0:00:00.00 514436 N 0 0 0
0:00:00.00 514650 N 0 0 0
0:00:00.00 514820 N 0 0 0
0:00:00.00 514830 N 0 0 0
0:00:00.00 515068 N 0 0 0
0:00:00.00 515283 N 0 0 0
0:00:00.00 515493 N 0 0 0
0:00:00.00 515669 N 0 0 0
0:00:00.00 515679 N 0 0 0
0:00:00.00 515926 N 0 0 0
0:00:00.00 516138 N 0 0 0
0:00:00.00 516346 N 0 0 0
0:00:00.00 516515 N 0 0 0
0:00:00.00 516525 N 0 0 0
0:00:00.00 516664 N 0 0 0
0:00:00.00 516992 N 0 0 0
0:00:00.00 517129 N 0 0 0
0:00:00.00 517423 N 0 0 0
0:00:00.00 517644 N 0 0 0
0:00:00.00 517860 N 0 0 0
0:00:00.00 517997 N 0 0 0
0:00:00.00 518304 N 0 0 0
0:00:00.00 518500 N 0 0 0
0:00:00.00 518741 N 0 0 0
0:00:00.00 518961 N 0 0 0
0:00:00.00 519185 N 0 0 0
0:00:00.00 519404 N 0 0 0
0:00:00.00 519621 N 0 0 0
0:00:00.00 519831 N 0 0 0
0:00:00.00 520048 N 0 0 0
0:00:00.00 520259 N 0 0 0
0:00:00.00 520476 N 0 0 0
0:00:00.00 520613 N 0 0 0
0:00:00.00 520906 N 0 0 0
0:00:00.00 521120 N 0 0 0
0:00:00.00 521326 N 0 0 0
0:00:00.00 521463 N 0 0 0
0:00:00.00 521759 N 0 0 0
0:00:00.00 521957 N 0 0 0
0:00:00.00 522184 N 0 0 0
0:00:00.00 522397 N 0 0 0
0:00:00.00 522612 N 0 0 0
0:00:00.00 522775 N 0 0 0
0:00:00.00 523038 N 0 0 0
0:00:00.00 523253 N 0 0 0
0:00:00.00 523464 N 0 0 0
0:00:00.00 523627 N 0 0 0
0:00:00.00 523886 N 0 0 0
0:00:00.00 524106 N 0 0 0
0:00:00.00 524317 N 0 0 0
0:00:00.00 524488 N 0 0 0
0:00:00.00 524498 N 0 0 0
0:00:00.00 524630 N 0 0 0
0:00:00.00 524944 N 0 0 0
0:00:00.00 525076 N 0 0 0
0:00:00.00 525368 N 0 0 0
0:00:00.00 525503 N 0 0 0
0:00:00.00 525794 N 0 0 0
0:00:00.00 525938 N 0 0 0
0:00:00.00 526440 N 0 0 0
0:00:00.00 526661 N 0 0 0
0:00:00.00 526878 N 0 0 0
0:00:00.00 527009 N 0 0 0
0:00:00.00 527303 N 0 0 0
0:00:00.00 527488 N 0 0 0
0:00:00.00 527497 N 0 0 0
0:00:00.00 527733 N 0 0 0
0:00:00.00 527949 N 0 0 0
0:00:00.00 528158 N 0 0 0
0:00:00.00 528326 N 0 0 0
0:00:00.00 528336 N 0 0 0
0:00:00.00 528579 N 0 0 0
0:00:00.00 528798 N 0 0 0
0:00:00.00 529013 N 0 0 0
0:00:00.00 529193 N 0 0 0
0:00:00.00 529430 N 0 0 0
0:00:00.00 529645 N 0 0 0
0:00:00.00 529856 N 0 0 0
0:00:00.00 530037 N 0 0 0
0:00:00.00 530281 N 0 0 0
0:00:00.00 530498 N 0 0 0
0:00:00.00 530708 N 0 0 0
0:00:00.00 530888 N 0 0 0
0:00:00.00 531025 N 0 0 0
0:00:00.00 531342 N 0 0 0
0:00:00.00 531480 N 0 0 0
0:00:00.00 531978 N 0 0 0
0:00:00.00 532193 N 0 0 0
0:00:00.00 532322 N 0 0 0
0:00:00.00 532608 N 0 0 0
0:00:00.00 532800 N 0 0 0
0:00:00.00 533037 N 0 0 0
0:00:00.00 533247 N 0 0 0
0:00:00.00 533454 N 0 0 0
0:00:00.00 533621 N 0 0 0
0:00:00.00 533881 N 0 0 0
0:00:00.00 534095 N 0 0 0
0:00:00.00 534220 N 0 0 0
0:00:00.00 534229 N 0 0 0
0:00:00.00 534510 N 0 0 0
0:00:00.00 534727 N 0 0 0
0:00:00.00 534944 N 0 0 0
0:00:00.00 535074 N 0 0 0
0:00:00.00 535367 N 0 0 0
0:00:00.00 535584 N 0 0 0
0:00:00.00 535796 N 0 0 0
0:00:00.00 535931 N 0 0 0
0:00:00.00 536226 N 0 0 0
0:00:00.00 536443 N 0 0 0
0:00:00.00 536653 N 0 0 0
0:00:00.00 536788 N 0 0 0
0:00:00.00 537076 N 0 0 0
0:00:00.00 537293 N 0 0 0
0:00:00.00 537508 N 0 0 0
0:00:00.00 537644 N 0 0 0
0:00:00.00 537933 N 0 0 0
0:00:00.00 538146 N 0 0 0
0:00:00.00 538357 N 0 0 0
0:00:00.00 538494 N 0 0 0
0:00:00.00 538785 N 0 0 0
0:00:00.00 539003 N 0 0 0
0:00:00.00 539212 N 0 0 0
0:00:00.00 539341 N 0 0 0
0:00:00.00 539627 N 0 0 0
0:00:00.00 539847 N 0 0 0
0:00:00.00 540062 N 0 0 0
0:00:00.00 540199 N 0 0 0
0:00:00.00 540481 N 0 0 0
0:00:00.00 540693 N 0 0 0
0:00:00.00 540905 N 0 0 0
0:00:00.00 541047 N 0 0 0
0:00:00.00 541330 N 0 0 0
0:00:00.00 541543 N 0 0 0
0:00:00.00 541753 N 0 0 0
0:00:00.00 541889 N 0 0 0
0:00:00.00 542170 N 0 0 0
0:00:00.00 542383 N 0 0 0
0:00:00.00 542599 N 0 0 0
0:00:00.00 542740 N 0 0 0
0:00:00.00 543014 N 0 0 0
0:00:00.00 543228 N 0 0 0
0:00:00.00 543446 N 0 0 0
0:00:00.00 543580 N 0 0 0
0:00:00.00 543864 N 0 0 0
0:00:00.00 544079 N 0 0 0
0:00:00.00 544289 N 0 0 0
0:00:00.00 544426 N 0 0 0
0:00:00.00 544710 N 0 0 0
0:00:00.00 544929 N 0 0 0
0:00:00.00 545140 N 0 0 0
0:00:00.00 545277 N 0 0 0
0:00:00.00 545555 N 0 0 0
0:00:00.00 545773 N 0 0 0
0:00:00.00 545993 N 0 0 0
0:00:00.00 546124 N 0 0 0
0:00:00.00 546407 N 0 0 0
0:00:00.00 546619 N 0 0 0
0:00:00.00 546834 N 0 0 0
0:00:00.00 546964 N 0 0 0
0:00:00.00 547255 N 0 0 0
0:00:00.00 547476 N 0 0 0
0:00:00.00 547680 N 0 0 0
0:00:00.00 547813 N 0 0 0
0:00:00.00 548090 N 0 0 0
0:00:00.00 548310 N 0 0 0
0:00:00.00 548522 N 0 0 0
0:00:00.00 548660 N 0 0 0
0:00:00.00 548938 N 0 0 0
0:00:00.00 549151 N 0 0 0
0:00:00.00 549362 N 0 0 0
0:00:00.00 549509 N 0 0 0
0:00:00.00 549782 N 0 0 0
0:00:00.00 549926 N 0 0 0
0:00:00.00 549945 N 0 0 0
0:00:00.00 550206 N 0 0 0
0:00:00.00 550366 N 0 0 0
0:00:00.00 550376 N 0 0 0
0:00:00.00 550622 N 0 0 0
0:00:00.00 550837 N 0 0 0
0:00:00.00 551045 N 0 0 0
0:00:00.00 551250 N 0 0 0
0:00:00.00 551456 N 0 0 0
0:00:00.00 551667 N 0 0 0
0:00:00.00 551874 N 0 0 0
0:00:00.00 552086 N 0 0 0
0:00:00.00 552226 N 0 0 0
0:00:00.00 552507 N 0 0 0
0:00:00.00 552697 N 0 0 0
0:00:00.00 552706 N 0 0 0
0:00:00.00 552840 N 0 0 0
0:00:00.00 553153 N 0 0 0
0:00:00.00 553372 N 0 0 0
0:00:00.00 553591 N 0 0 0
0:00:00.00 553723 N 0 0 0
0:00:00.00 554014 N 0 0 0
0:00:00.00 554229 N 0 0 0
0:00:00.00 554449 N 0 0 0
0:00:00.00 554585 N 0 0 0
0:00:00.00 554880 N 0 0 0
0:00:00.00 555096 N 0 0 0
0:00:00.00 555306 N 0 0 0
0:00:00.00 555445 N 0 0 0
0:00:00.00 555739 N 0 0 0
0:00:00.00 555955 N 0 0 0
0:00:00.00 556163 N 0 0 0
0:00:00.00 556297 N 0 0 0
0:00:00.00 556587 N 0 0 0
0:00:00.00 556806 N 0 0 0
0:00:00.00 557027 N 0 0 0
0:00:00.00 557164 N 0 0 0
0:00:00.00 557460 N 0 0 0
0:00:00.00 557675 N 0 0 0
0:00:00.00 557897 N 0 0 0
0:00:00.00 558037 N 0 0 0
0:00:00.00 558331 N 0 0 0
0:00:00.00 558546 N 0 0 0
0:00:00.00 558760 N 0 0 0
0:00:00.00 558897 N 0 0 0
0:00:00.00 559184 N 0 0 0
0:00:00.00 559403 N 0 0 0
0:00:00.00 559617 N 0 0 0
0:00:00.00 559748 N 0 0 0
0:00:00.00 560034 N 0 0 0
0:00:00.00 560250 N 0 0 0
0:00:00.00 560471 N 0 0 0
0:00:00.00 560603 N 0 0 0
0:00:00.00 560897 N 0 0 0
0:00:00.00 561113 N 0 0 0
0:00:00.00 561330 N 0 0 0
0:00:00.00 561463 N 0 0 0
0:00:00.00 561755 N 0 0 0
0:00:00.00 561975 N 0 0 0
0:00:00.00 562189 N 0 0 0
0:00:00.00 562323 N 0 0 0
0:00:00.00 562613 N 0 0 0
0:00:00.00 562837 N 0 0 0
0:00:00.00 563054 N 0 0 0
0:00:00.00 563191 N 0 0 0
0:00:00.00 563476 N 0 0 0
0:00:00.00 563691 N 0 0 0
0:00:00.00 563903 N 0 0 0
0:00:00.00 564040 N 0 0 0
0:00:00.00 564341 N 0 0 0
0:00:00.00 564554 N 0 0 0
0:00:00.00 564765 N 0 0 0
0:00:00.00 564897 N 0 0 0
0:00:00.00 565187 N 0 0 0
0:00:00.00 565403 N 0 0 0
0:00:00.00 565618 N 0 0 0
0:00:00.00 565748 N 0 0 0
0:00:00.00 566038 N 0 0 0
0:00:00.00 566256 N 0 0 0
0:00:00.00 566474 N 0 0 0
0:00:00.00 566610 N 0 0 0
0:00:00.00 566903 N 0 0 0
0:00:00.00 567120 N 0 0 0
0:00:00.00 567330 N 0 0 0
0:00:00.00 567466 N 0 0 0
0:00:00.00 567763 N 0 0 0
0:00:00.00 567978 N 0 0 0
0:00:00.00 568183 N 0 0 0
0:00:00.00 568319 N 0 0 0
0:00:00.00 568327 N 0 0 0
0:00:00.00 568599 N 0 0 0
0:00:00.00 568806 N 0 0 0
0:00:00.00 569021 N 0 0 0
0:00:00.00 569163 N 0 0 0
0:00:00.00 569442 N 0 0 0
0:00:00.00 569649 N 0 0 0
0:00:00.00 569858 N 0 0 0
0:00:00.00 570056 N 0 0 0
0:00:00.00 570288 N 0 0 0
0:00:00.00 570502 N 0 0 0
0:00:00.00 570631 N 0 0 0
0:00:00.00 570923 N 0 0 0
0:00:00.00 571133 N 0 0 0
0:00:00.00 571345 N 0 0 0
0:00:00.00 571479 N 0 0 0
0:00:00.00 571768 N 0 0 0
0:00:00.00 571980 N 0 0 0
0:00:00.00 572182 N 0 0 0
0:00:00.00 572315 N 0 0 0
0:00:00.00 572609 N 0 0 0
0:00:00.00 572824 N 0 0 0
0:00:00.00 573026 N 0 0 0
0:00:00.00 573159 N 0 0 0
0:00:00.00 573168 N 0 0 0
0:00:00.00 573444 N 0 0 0
0:00:00.00 573651 N 0 0 0
0:00:00.00 573865 N 0 0 0
0:00:00.00 574000 N 0 0 0
0:00:00.00 574289 N 0 0 0
0:00:00.00 574498 N 0 0 0
0:00:00.00 574710 N 0 0 0
0:00:00.00 574849 N 0 0 0
0:00:00.00 575142 N 0 0 0
0:00:00.00 575357 N 0 0 0
0:00:00.00 575563 N 0 0 0
0:00:00.00 575695 N 0 0 0
0:00:00.00 575982 N 0 0 0
0:00:00.00 576199 N 0 0 0
0:00:00.00 576411 N 0 0 0
0:00:00.00 576544 N 0 0 0
0:00:00.00 576835 N 0 0 0
0:00:00.00 577046 N 0 0 0
0:00:00.00 577254 N 0 0 0
0:00:00.00 577396 N 0 0 0
0:00:00.00 577680 N 0 0 0
0:00:00.00 577890 N 0 0 0
0:00:00.00 578099 N 0 0 0
0:00:00.00 578233 N 0 0 0
0:00:00.00 578516 N 0 0 0
0:00:00.00 578733 N 0 0 0
0:00:00.00 578947 N 0 0 0
0:00:00.00 579081 N 0 0 0
0:00:00.00 579361 N 0 0 0
0:00:00.00 579573 N 0 0 0
0:00:00.00 579783 N 0 0 0
0:00:00.00 579922 N 0 0 0
0:00:00.00 580205 N 0 0 0
0:00:00.00 580415 N 0 0 0
0:00:00.00 580622 N 0 0 0
0:00:00.00 580758 N 0 0 0
0:00:00.00 580766 N 0 0 0
0:00:00.00 581037 N 0 0 0
0:00:00.00 581250 N 0 0 0
0:00:00.00 581464 N 0 0 0
0:00:00.00 581597 N 0 0 0
0:00:00.00 581877 N 0 0 0
0:00:00.00 582090 N 0 0 0
0:00:00.00 582308 N 0 0 0
0:00:00.00 582441 N 0 0 0
0:00:00.00 582725 N 0 0 0
0:00:00.00 582938 N 0 0 0
0:00:00.00 583150 N 0 0 0
0:00:00.00 583285 N 0 0 0
0:00:00.00 583571 N 0 0 0
0:00:00.00 583791 N 0 0 0
0:00:00.00 584000 N 0 0 0
0:00:00.00 584136 N 0 0 0
0:00:00.00 584417 N 0 0 0
0:00:00.00 584636 N 0 0 0
0:00:00.00 584852 N 0 0 0
0:00:00.00 584989 N 0 0 0
0:00:00.00 585271 N 0 0 0
0:00:00.00 585488 N 0 0 0
0:00:00.00 585700 N 0 0 0
0:00:00.00 585833 N 0 0 0
0:00:00.00 586126 N 0 0 0
0:00:00.00 586345 N 0 0 0
0:00:00.00 586558 N 0 0 0
0:00:00.00 586691 N 0 0 0
0:00:00.00 586699 N 0 0 0
0:00:00.00 586983 N 0 0 0
0:00:00.00 587208 N 0 0 0
0:00:00.00 587419 N 0 0 0
0:00:00.00 587562 N 0 0 0
0:00:00.00 587836 N 0 0 0
0:00:00.00 588056 N 0 0 0
0:00:00.00 588268 N 0 0 0
0:00:00.00 588403 N 0 0 0
0:00:00.00 588701 N 0 0 0
0:00:00.00 588919 N 0 0 0
0:00:00.00 589129 N 0 0 0
0:00:00.00 589263 N 0 0 0
0:00:00.00 589557 N 0 0 0
0:00:00.00 589774 N 0 0 0
0:00:00.00 589987 N 0 0 0
0:00:00.00 590117 N 0 0 0
0:00:00.00 590407 N 0 0 0
0:00:00.00 590622 N 0 0 0
0:00:00.00 590837 N 0 0 0
0:00:00.00 590976 N 0 0 0
0:00:00.00 591262 N 0 0 0
0:00:00.00 591480 N 0 0 0
0:00:00.00 591694 N 0 0 0
0:00:00.00 591833 N 0 0 0
0:00:00.00 592126 N 0 0 0
0:00:00.00 592346 N 0 0 0
0:00:00.00 592556 N 0 0 0
0:00:00.00 592694 N 0 0 0
0:00:00.00 592980 N 0 0 0
0:00:00.00 593202 N 0 0 0
0:00:00.00 593419 N 0 0 0
0:00:00.00 593552 N 0 0 0
0:00:00.00 593561 N 0 0 0
0:00:00.00 593837 N 0 0 0
0:00:00.00 594052 N 0 0 0
0:00:00.00 594270 N 0 0 0
0:00:00.00 594409 N 0 0 0
0:00:00.00 594576 N 0 0 0
0:00:00.00 594900 N 0 0 0
0:00:00.00 595076 N 0 0 0
0:00:00.00 595086 N 0 0 0
0:00:00.00 595327 N 0 0 0
0:00:00.00 595489 N 0 0 0
0:00:00.00 595752 N 0 0 0
0:00:00.00 595970 N 0 0 0
0:00:00.00 596182 N 0 0 0
0:00:00.00 596391 N 0 0 0
0:00:00.00 596607 N 0 0 0
0:00:00.00 596829 N 0 0 0
0:00:00.00 597039 N 0 0 0
0:00:00.00 597176 N 0 0 0
0:00:00.00 597462 N 0 0 0
0:00:00.00 597662 N 0 0 0
0:00:00.00 597780 N 0 0 0
0:00:00.00 598097 N 0 0 0
0:00:00.00 598323 N 0 0 0
0:00:00.00 598533 N 0 0 0
0:00:00.00 598667 N 0 0 0
0:00:00.00 598952 N 0 0 0
0:00:00.00 599175 N 0 0 0
0:00:00.00 599387 N 0 0 0
0:00:00.00 599523 N 0 0 0
0:00:00.00 599805 N 0 0 0
0:00:00.00 600020 N 0 0 0
0:00:00.00 600234 N 0 0 0
0:00:00.00 600368 N 0 0 0
0:00:00.00 600664 N 0 0 0
0:00:00.00 600879 N 0 0 0
0:00:00.00 601094 N 0 0 0
0:00:00.00 601225 N 0 0 0
0:00:00.00 601515 N 0 0 0
0:00:00.00 601735 N 0 0 0
0:00:00.00 601950 N 0 0 0
0:00:00.00 602080 N 0 0 0
0:00:00.00 602369 N 0 0 0
0:00:00.00 602587 N 0 0 0
0:00:00.00 602801 N 0 0 0
0:00:00.00 602934 N 0 0 0
0:00:00.00 603224 N 0 0 0
0:00:00.00 603441 N 0 0 0
0:00:00.00 603653 N 0 0 0
0:00:00.00 603786 N 0 0 0
0:00:00.00 604090 N 0 0 0
0:00:00.00 604308 N 0 0 0
0:00:00.00 604522 N 0 0 0
0:00:00.00 604656 N 0 0 0
0:00:00.00 604954 N 0 0 0
0:00:00.00 605171 N 0 0 0
0:00:00.00 605394 N 0 0 0
0:00:00.00 605590 N 0 0 0
0:00:00.00 605826 N 0 0 0
0:00:00.00 605971 N 0 0 0
0:00:00.00 606257 N 0 0 0
0:00:00.00 606436 N 0 0 0
0:00:00.00 606446 N 0 0 0
0:00:00.00 606695 N 0 0 0
0:00:00.00 606843 N 0 0 0
0:00:00.00 607124 N 0 0 0
0:00:00.00 607296 N 0 0 0
0:00:00.00 607306 N 0 0 0
0:00:00.00 607552 N 0 0 0
0:00:00.00 607775 N 0 0 0
0:00:00.00 607999 N 0 0 0
0:00:00.00 608213 N 0 0 0
0:00:00.00 608427 N 0 0 0
0:00:00.00 608557 N 0 0 0
0:00:00.00 608741 N 0 0 0
0:00:00.00 609081 N 0 0 0
0:00:00.00 609305 N 0 0 0
0:00:00.00 609521 N 0 0 0
0:00:00.00 609653 N 0 0 0
0:00:00.00 609954 N 0 0 0
0:00:00.00 610126 N 0 0 0
0:00:00.00 610137 N 0 0 0
0:00:00.00 610399 N 0 0 0
0:00:00.00 610619 N 0 0 0
0:00:00.00 610834 N 0 0 0
0:00:00.00 611004 N 0 0 0
0:00:00.00 611013 N 0 0 0
0:00:00.00 611267 N 0 0 0
0:00:00.00 611487 N 0 0 0
0:00:00.00 611665 N 0 0 0
0:00:00.00 611912 N 0 0 0
0:00:00.00 612129 N 0 0 0
0:00:00.00 612274 N 0 0 0
0:00:00.00 612563 N 0 0 0
0:00:00.00 612727 N 0 0 0
0:00:00.00 612737 N 0 0 0
0:00:00.00 613001 N 0 0 0
0:00:00.00 613221 N 0 0 0
0:00:00.00 613360 N 0 0 0
0:00:00.00 613654 N 0 0 0
0:00:00.00 613879 N 0 0 0
0:00:00.00 614099 N 0 0 0
0:00:00.00 614230 N 0 0 0
0:00:00.00 614525 N 0 0 0
0:00:00.00 614744 N 0 0 0
0:00:00.00 614961 N 0 0 0
0:00:00.00 615098 N 0 0 0
0:00:00.00 615397 N 0 0 0
0:00:00.00 615575 N 0 0 0
0:00:00.00 615818 N 0 0 0
0:00:00.00 616035 N 0 0 0
0:00:00.00 616252 N 0 0 0
0:00:00.00 616468 N 0 0 0
0:00:00.00 616678 N 0 0 0
0:00:00.00 616812 N 0 0 0
0:00:00.00 617102 N 0 0 0
0:00:00.00 617319 N 0 0 0
0:00:00.00 617537 N 0 0 0
0:00:00.00 617675 N 0 0 0
0:00:00.00 617970 N 0 0 0
0:00:00.00 618189 N 0 0 0
0:00:00.00 618405 N 0 0 0
0:00:00.00 618545 N 0 0 0
0:00:00.00 618835 N 0 0 0
0:00:00.00 619055 N 0 0 0
0:00:00.00 619268 N 0 0 0
0:00:00.00 619442 N 0 0 0
0:00:00.00 619451 N 0 0 0
0:00:00.00 619688 N 0 0 0
0:00:00.00 619906 N 0 0 0
0:00:00.00 620124 N 0 0 0
0:00:00.00 620297 N 0 0 0
0:00:00.00 620306 N 0 0 0
0:00:00.00 620544 N 0 0 0
0:00:00.00 620757 N 0 0 0
0:00:00.00 620974 N 0 0 0
0:00:00.00 621157 N 0 0 0
0:00:00.00 621167 N 0 0 0
0:00:00.00 621294 N 0 0 0
0:00:00.00 621610 N 0 0 0
0:00:00.00 621751 N 0 0 0
0:00:00.00 622040 N 0 0 0
0:00:00.00 622264 N 0 0 0
0:00:00.00 622483 N 0 0 0
0:00:00.00 622664 N 0 0 0
0:00:00.00 622674 N 0 0 0
0:00:00.00 622912 N 0 0 0
0:00:00.00 623124 N 0 0 0
0:00:00.00 623346 N 0 0 0
0:00:00.00 623531 N 0 0 0
0:00:00.00 623540 N 0 0 0
0:00:00.00 623668 N 0 0 0
0:00:00.00 623981 N 0 0 0
0:00:00.00 624121 N 0 0 0
0:00:00.00 624131 N 0 0 0
0:00:00.00 624412 N 0 0 0
0:00:00.00 624632 N 0 0 0
0:00:00.00 624848 N 0 0 0
0:00:00.00 625029 N 0 0 0
0:00:00.00 625039 N 0 0 0
0:00:00.00 625276 N 0 0 0
0:00:00.00 625487 N 0 0 0
0:00:00.00 625705 N 0 0 0
0:00:00.00 625893 N 0 0 0
0:00:00.00 625902 N 0 0 0
0:00:00.00 626024 N 0 0 0
0:00:00.00 626347 N 0 0 0
0:00:00.00 626486 N 0 0 0
0:00:00.00 626494 N 0 0 0
0:00:00.00 626780 N 0 0 0
0:00:00.00 626997 N 0 0 0
0:00:00.00 627213 N 0 0 0
0:00:00.00 627401 N 0 0 0
0:00:00.00 627643 N 0 0 0
0:00:00.00 627857 N 0 0 0
0:00:00.00 628072 N 0 0 0
0:00:00.00 628255 N 0 0 0
0:00:00.00 628265 N 0 0 0
0:00:00.00 628389 N 0 0 0
0:00:00.00 628707 N 0 0 0
0:00:00.00 628857 N 0 0 0
0:00:00.00 628867 N 0 0 0
0:00:00.00 629132 N 0 0 0
0:00:00.00 629349 N 0 0 0
0:00:00.00 629567 N 0 0 0
0:00:00.00 629701 N 0 0 0
0:00:00.00 629994 N 0 0 0
0:00:00.00 630130 N 0 0 0
0:00:00.00 630428 N 0 0 0
0:00:00.00 630604 N 0 0 0
0:00:00.00 630874 N 0 0 0
0:00:00.00 631097 N 0 0 0
0:00:00.00 631310 N 0 0 0
0:00:00.00 631491 N 0 0 0
0:00:00.00 631500 N 0 0 0
0:00:00.00 631619 N 0 0 0
0:00:00.00 631789 N 0 0 0
0:00:00.00 632138 N 0 0 0
0:00:00.00 632313 N 0 0 0
0:00:00.00 632323 N 0 0 0
0:00:00.00 632571 N 0 0 0
0:00:00.00 632786 N 0 0 0
0:00:00.00 633003 N 0 0 0
0:00:00.00 633219 N 0 0 0
0:00:00.00 633431 N 0 0 0
0:00:00.00 633561 N 0 0 0
0:00:00.00 633851 N 0 0 0
0:00:00.00 634010 N 0 0 0
0:00:00.00 634020 N 0 0 0
0:00:00.00 634276 N 0 0 0
0:00:00.00 634492 N 0 0 0
0:00:00.00 634711 N 0 0 0
0:00:00.00 634883 N 0 0 0
0:00:00.00 634893 N 0 0 0
0:00:00.00 635132 N 0 0 0
0:00:00.00 635349 N 0 0 0
0:00:00.00 635571 N 0 0 0
0:00:00.00 635748 N 0 0 0
0:00:00.00 635757 N 0 0 0
0:00:00.00 635991 N 0 0 0
0:00:00.00 636198 N 0 0 0
0:00:00.00 636415 N 0 0 0
0:00:00.00 636600 N 0 0 0
0:00:00.00 636720 N 0 0 0
0:00:00.00 636728 N 0 0 0
0:00:00.00 637046 N 0 0 0
0:00:00.00 637204 N 0 0 0
0:00:00.00 637214 N 0 0 0
0:00:00.00 637466 N 0 0 0
0:00:00.00 637641 N 0 0 0
0:00:00.00 637897 N 0 0 0
0:00:00.00 638113 N 0 0 0
0:00:00.00 638258 N 0 0 0
0:00:00.00 638530 N 0 0 0
0:00:00.00 638674 N 0 0 0
0:00:00.00 638694 N 0 0 0
0:00:00.00 638954 N 0 0 0
0:00:00.00 639174 N 0 0 0
0:00:00.00 639310 N 0 0 0
0:00:00.00 639318 N 0 0 0
0:00:00.00 639605 N 0 0 0
0:00:00.00 639810 N 0 0 0
0:00:00.00 640023 N 0 0 0
0:00:00.00 640235 N 0 0 0
0:00:00.00 640454 N 0 0 0
0:00:00.00 640666 N 0 0 0
0:00:00.00 640798 N 0 0 0
0:00:00.00 640807 N 0 0 0
0:00:00.00 641079 N 0 0 0
0:00:00.00 641291 N 0 0 0
0:00:00.00 641498 N 0 0 0
0:00:00.00 641706 N 0 0 0
0:00:00.00 641917 N 0 0 0
0:00:00.00 642121 N 0 0 0
0:00:00.00 642326 N 0 0 0
0:00:00.00 642507 N 0 0 0
0:00:00.00 642742 N 0 0 0
0:00:00.00 642952 N 0 0 0
0:00:00.00 643160 N 0 0 0
0:00:00.00 643332 N 0 0 0
0:00:00.00 643457 N 0 0 0
0:00:00.00 643466 N 0 0 0
0:00:00.00 643777 N 0 0 0
0:00:00.00 643940 N 0 0 0
0:00:00.00 643950 N 0 0 0
0:00:00.00 644201 N 0 0 0
0:00:00.00 644410 N 0 0 0
0:00:00.00 644537 N 0 0 0
0:00:00.00 644546 N 0 0 0
0:00:00.00 644816 N 0 0 0
0:00:00.00 644953 N 0 0 0
0:00:00.00 645245 N 0 0 0
0:00:00.00 645377 N 0 0 0
0:00:00.00 645662 N 0 0 0
0:00:00.00 645792 N 0 0 0
0:00:00.00 646079 N 0 0 0
0:00:00.00 646243 N 0 0 0
0:00:00.00 646253 N 0 0 0
0:00:00.00 646505 N 0 0 0
0:00:00.00 646728 N 0 0 0
0:00:00.00 646940 N 0 0 0
0:00:00.00 647154 N 0 0 0
0:00:00.00 647367 N 0 0 0
0:00:00.00 647503 N 0 0 0
0:00:00.00 647808 N 0 0 0
0:00:00.00 648026 N 0 0 0
0:00:00.00 648241 N 0 0 0
0:00:00.00 648370 N 0 0 0
0:00:00.00 648380 N 0 0 0
0:00:00.00 648653 N 0 0 0
0:00:00.00 648873 N 0 0 0
0:00:00.00 649090 N 0 0 0
0:00:00.00 649235 N 0 0 0
0:00:00.00 649518 N 0 0 0
0:00:00.00 649730 N 0 0 0
0:00:00.00 649947 N 0 0 0
