0:00:00.00 14 N 0 0 0
0:00:00.00 95 N 0 0 0
0:00:00.00 367 N 0 0 0
0:00:00.00 608 N 0 0 0
0:00:00.00 842 N 0 0 0
0:00:00.00 1084 N 0 0 0
0:00:00.00 1328 N 0 0 0
0:00:00.00 1564 N 0 0 0
0:00:00.00 1796 N 0 0 0
0:00:00.00 2045 N 0 0 0
0:00:00.00 2291 N 0 0 0
0:00:00.00 2529 N 0 0 0
0:00:00.00 2761 N 0 0 0
0:00:00.00 2995 N 0 0 0
0:00:00.00 3229 N 0 0 0
0:00:00.00 3465 N 0 0 0
0:00:00.00 3706 N 0 0 0
0:00:00.00 3940 N 0 0 0
0:00:00.00 4167 N 0 0 0
0:00:00.00 4403 N 0 0 0
0:00:00.00 4646 N 0 0 0
0:00:00.00 4882 N 0 0 0
0:00:00.00 5110 N 0 0 0
0:00:00.00 5341 N 0 0 0
0:00:00.00 5575 N 0 0 0
0:00:00.00 5807 N 0 0 0
0:00:00.00 6039 N 0 0 0
0:00:00.00 6273 N 0 0 0
0:00:00.00 6507 N 0 0 0
0:00:00.00 6737 N 0 0 0
0:00:00.00 6975 N 0 0 0
0:00:00.00 7213 N 0 0 0
0:00:00.00 7447 N 0 0 0
0:00:00.00 7679 N 0 0 0
0:00:00.00 7911 N 0 0 0
0:00:00.00 8143 N 0 0 0
0:00:00.00 8383 N 0 0 0
0:00:00.00 8622 N 0 0 0
0:00:00.00 8854 N 0 0 0
0:00:00.00 9086 N 0 0 0
0:00:00.00 9324 N 0 0 0
0:00:00.00 9569 N 0 0 0
0:00:00.00 9806 N 0 0 0
0:00:00.00 10035 N 0 0 0
0:00:00.00 10267 N 0 0 0
0:00:00.00 10505 N 0 0 0
0:00:00.00 10742 N 0 0 0
0:00:00.00 10982 N 0 0 0
0:00:00.00 11212 N 0 0 0
0:00:00.00 11443 N 0 0 0
0:00:00.00 11675 N 0 0 0
0:00:00.00 11918 N 0 0 0
0:00:00.00 12148 N 0 0 0
0:00:00.00 12380 N 0 0 0
0:00:00.00 12611 N 0 0 0
0:00:00.00 12845 N 0 0 0
0:00:00.00 13075 N 0 0 0
0:00:00.00 13313 N 0 0 0
0:00:00.00 13549 N 0 0 0
0:00:00.00 13783 N 0 0 0
0:00:00.00 14011 N 0 0 0
0:00:00.00 14251 N 0 0 0
0:00:00.00 14490 N 0 0 0
0:00:00.00 14724 N 0 0 0
0:00:00.00 14953 N 0 0 0
0:00:00.00 15187 N 0 0 0
0:00:00.00 15417 N 0 0 0
0:00:00.00 15653 N 0 0 0
0:00:00.00 15894 N 0 0 0
0:00:00.00 16123 N 0 0 0
0:00:00.00 16349 N 0 0 0
0:00:00.00 16583 N 0 0 0
0:00:00.00 16830 N 0 0 0
0:00:00.00 17060 N 0 0 0
0:00:00.00 17291 N 0 0 0
0:00:00.00 17519 N 0 0 0
0:00:00.00 17757 N 0 0 0
0:00:00.00 17993 N 0 0 0
0:00:00.00 18232 N 0 0 0
0:00:00.00 18464 N 0 0 0
0:00:00.00 18698 N 0 0 0
0:00:00.00 18927 N 0 0 0
0:00:00.00 19172 N 0 0 0
0:00:00.00 19406 N 0 0 0
0:00:00.00 19638 N 0 0 0
0:00:00.00 19865 N 0 0 0
0:00:00.00 20095 N 0 0 0
0:00:00.00 20322 N 0 0 0
0:00:00.00 20554 N 0 0 0
0:00:00.00 20786 N 0 0 0
0:00:00.00 21015 N 0 0 0
0:00:00.00 21240 N 0 0 0
0:00:00.00 21472 N 0 0 0
0:00:00.00 21706 N 0 0 0
0:00:00.00 21937 N 0 0 0
0:00:00.00 22163 N 0 0 0
0:00:00.00 22394 N 0 0 0
0:00:00.00 22626 N 0 0 0
0:00:00.00 22860 N 0 0 0
0:00:00.00 23099 N 0 0 0
0:00:00.00 23326 N 0 0 0
0:00:00.00 23558 N 0 0 0
0:00:00.00 23787 N 0 0 0
0:00:00.00 24028 N 0 0 0
0:00:00.00 24255 N 0 0 0
0:00:00.00 24485 N 0 0 0
0:00:00.00 24714 N 0 0 0
0:00:00.00 24943 N 0 0 0
0:00:00.00 25169 N 0 0 0
0:00:00.00 25405 N 0 0 0
0:00:00.00 25637 N 0 0 0
0:00:00.00 25868 N 0 0 0
0:00:00.00 26091 N 0 0 0
0:00:00.00 26330 N 0 0 0
0:00:00.00 26570 N 0 0 0
0:00:00.00 26806 N 0 0 0
0:00:00.00 27031 N 0 0 0
0:00:00.00 27259 N 0 0 0
0:00:00.00 27491 N 0 0 0
0:00:00.00 27725 N 0 0 0
0:00:00.00 27965 N 0 0 0
0:00:00.00 28197 N 0 0 0
0:00:00.00 28424 N 0 0 0
0:00:00.00 28656 N 0 0 0
0:00:00.00 28897 N 0 0 0
0:00:00.00 29129 N 0 0 0
0:00:00.00 29358 N 0 0 0
0:00:00.00 29588 N 0 0 0
0:00:00.00 29826 N 0 0 0
0:00:00.00 30058 N 0 0 0
0:00:00.00 30292 N 0 0 0
0:00:00.00 30524 N 0 0 0
0:00:00.00 30755 N 0 0 0
0:00:00.00 30982 N 0 0 0
0:00:00.00 31219 N 0 0 0
0:00:00.00 31455 N 0 0 0
0:00:00.00 31685 N 0 0 0
0:00:00.00 31910 N 0 0 0
0:00:00.00 32141 N 0 0 0
0:00:00.00 32368 N 0 0 0
0:00:00.00 32603 N 0 0 0
0:00:00.00 32839 N 0 0 0
0:00:00.00 33068 N 0 0 0
0:00:00.00 33291 N 0 0 0
0:00:00.00 33521 N 0 0 0
0:00:00.00 33759 N 0 0 0
0:00:00.00 33989 N 0 0 0
0:00:00.00 34216 N 0 0 0
0:00:00.00 34441 N 0 0 0
0:00:00.00 34675 N 0 0 0
0:00:00.00 34906 N 0 0 0
0:00:00.00 35141 N 0 0 0
0:00:00.00 35375 N 0 0 0
0:00:00.00 35606 N 0 0 0
0:00:00.00 35834 N 0 0 0
0:00:00.00 36072 N 0 0 0
0:00:00.00 36310 N 0 0 0
0:00:00.00 36544 N 0 0 0
0:00:00.00 36769 N 0 0 0
0:00:00.00 36999 N 0 0 0
0:00:00.00 37226 N 0 0 0
0:00:00.00 37462 N 0 0 0
0:00:00.00 37696 N 0 0 0
0:00:00.00 37924 N 0 0 0
0:00:00.00 38153 N 0 0 0
0:00:00.00 38387 N 0 0 0
0:00:00.00 38630 N 0 0 0
0:00:00.00 38862 N 0 0 0
0:00:00.00 39091 N 0 0 0
0:00:00.00 39325 N 0 0 0
0:00:00.00 39559 N 0 0 0
0:00:00.00 39791 N 0 0 0
0:00:00.00 40027 N 0 0 0
0:00:00.00 40262 N 0 0 0
0:00:00.00 40496 N 0 0 0
0:00:00.00 40725 N 0 0 0
0:00:00.00 40963 N 0 0 0
0:00:00.00 41206 N 0 0 0
0:00:00.00 41441 N 0 0 0
0:00:00.00 41672 N 0 0 0
0:00:00.00 41902 N 0 0 0
0:00:00.00 42133 N 0 0 0
0:00:00.00 42370 N 0 0 0
0:00:00.00 42615 N 0 0 0
0:00:00.00 42845 N 0 0 0
0:00:00.00 43070 N 0 0 0
0:00:00.00 43304 N 0 0 0
0:00:00.00 43547 N 0 0 0
0:00:00.00 43783 N 0 0 0
0:00:00.00 44008 N 0 0 0
0:00:00.00 44237 N 0 0 0
0:00:00.00 44471 N 0 0 0
0:00:00.00 44703 N 0 0 0
0:00:00.00 44933 N 0 0 0
0:00:00.00 45164 N 0 0 0
0:00:00.00 45392 N 0 0 0
0:00:00.00 45612 N 0 0 0
0:00:00.00 45841 N 0 0 0
0:00:00.00 46080 N 0 0 0
0:00:00.00 46314 N 0 0 0
0:00:00.00 46544 N 0 0 0
0:00:00.00 46778 N 0 0 0
0:00:00.00 47011 N 0 0 0
0:00:00.00 47248 N 0 0 0
0:00:00.00 47488 N 0 0 0
0:00:00.00 47716 N 0 0 0
0:00:00.00 47947 N 0 0 0
0:00:00.00 48181 N 0 0 0
0:00:00.00 48427 N 0 0 0
0:00:00.00 48663 N 0 0 0
0:00:00.00 48895 N 0 0 0
0:00:00.00 49127 N 0 0 0
0:00:00.00 49365 N 0 0 0
0:00:00.00 49606 N 0 0 0
0:00:00.00 49849 N 0 0 0
0:00:00.00 50081 N 0 0 0
0:00:00.00 50314 N 0 0 0
0:00:00.00 50546 N 0 0 0
0:00:00.00 50789 N 0 0 0
0:00:00.00 51025 N 0 0 0
0:00:00.00 51259 N 0 0 0
0:00:00.00 51489 N 0 0 0
0:00:00.00 51727 N 0 0 0
0:00:00.00 51959 N 0 0 0
0:00:00.00 52200 N 0 0 0
0:00:00.00 52434 N 0 0 0
0:00:00.00 52666 N 0 0 0
0:00:00.00 52897 N 0 0 0
0:00:00.00 53140 N 0 0 0
0:00:00.00 53375 N 0 0 0
0:00:00.00 53611 N 0 0 0
0:00:00.00 53840 N 0 0 0
0:00:00.00 54072 N 0 0 0
0:00:00.00 54301 N 0 0 0
0:00:00.00 54535 N 0 0 0
0:00:00.00 54774 N 0 0 0
0:00:00.00 55003 N 0 0 0
0:00:00.00 55229 N 0 0 0
0:00:00.00 55463 N 0 0 0
0:00:00.00 55706 N 0 0 0
0:00:00.00 55935 N 0 0 0
0:00:00.00 56162 N 0 0 0
0:00:00.00 56392 N 0 0 0
0:00:00.00 56626 N 0 0 0
0:00:00.00 56860 N 0 0 0
0:00:00.00 57101 N 0 0 0
0:00:00.00 57334 N 0 0 0
0:00:00.00 57566 N 0 0 0
0:00:00.00 57794 N 0 0 0
0:00:00.00 58036 N 0 0 0
0:00:00.00 58268 N 0 0 0
0:00:00.00 58498 N 0 0 0
0:00:00.00 58725 N 0 0 0
0:00:00.00 58957 N 0 0 0
0:00:00.00 59186 N 0 0 0
0:00:00.00 59416 N 0 0 0
0:00:00.00 59652 N 0 0 0
0:00:00.00 59884 N 0 0 0
0:00:00.00 60109 N 0 0 0
0:00:00.00 60347 N 0 0 0
0:00:00.00 60586 N 0 0 0
0:00:00.00 60822 N 0 0 0
0:00:00.00 61051 N 0 0 0
0:00:00.00 61281 N 0 0 0
0:00:00.00 61517 N 0 0 0
0:00:00.00 61753 N 0 0 0
0:00:00.00 61994 N 0 0 0
0:00:00.00 62224 N 0 0 0
0:00:00.00 62458 N 0 0 0
0:00:00.00 62696 N 0 0 0
0:00:00.00 62941 N 0 0 0
0:00:00.00 63173 N 0 0 0
0:00:00.00 63400 N 0 0 0
0:00:00.00 63630 N 0 0 0
0:00:00.00 63864 N 0 0 0
0:00:00.00 64096 N 0 0 0
0:00:00.00 64336 N 0 0 0
0:00:00.00 64564 N 0 0 0
0:00:00.00 64796 N 0 0 0
0:00:00.00 65025 N 0 0 0
0:00:00.00 65266 N 0 0 0
0:00:00.00 65502 N 0 0 0
0:00:00.00 65736 N 0 0 0
0:00:00.00 65966 N 0 0 0
0:00:00.00 66202 N 0 0 0
0:00:00.00 66431 N 0 0 0
0:00:00.00 66672 N 0 0 0
0:00:00.00 66910 N 0 0 0
0:00:00.00 67142 N 0 0 0
0:00:00.00 67367 N 0 0 0
0:00:00.00 67604 N 0 0 0
0:00:00.00 67842 N 0 0 0
0:00:00.00 68074 N 0 0 0
0:00:00.00 68301 N 0 0 0
0:00:00.00 68530 N 0 0 0
0:00:00.00 68760 N 0 0 0
0:00:00.00 68992 N 0 0 0
0:00:00.00 69228 N 0 0 0
0:00:00.00 69455 N 0 0 0
0:00:00.00 69682 N 0 0 0
0:00:00.00 69912 N 0 0 0
0:00:00.00 70153 N 0 0 0
0:00:00.00 70387 N 0 0 0
0:00:00.00 70616 N 0 0 0
0:00:00.00 70844 N 0 0 0
0:00:00.00 71080 N 0 0 0
0:00:00.00 71309 N 0 0 0
0:00:00.00 71545 N 0 0 0
0:00:00.00 71777 N 0 0 0
0:00:00.00 72009 N 0 0 0
0:00:00.00 72234 N 0 0 0
0:00:00.00 72486 N 0 0 0
0:00:00.00 72707 N 0 0 0
0:00:00.00 72940 N 0 0 0
0:00:00.00 73166 N 0 0 0
0:00:00.00 73399 N 0 0 0
0:00:00.00 73631 N 0 0 0
0:00:00.00 73870 N 0 0 0
0:00:00.00 74097 N 0 0 0
0:00:00.00 74345 N 0 0 0
0:00:00.00 74581 N 0 0 0
0:00:00.00 74815 N 0 0 0
0:00:00.00 75056 N 0 0 0
0:00:00.00 75290 N 0 0 0
0:00:00.00 75524 N 0 0 0
0:00:00.00 75753 N 0 0 0
0:00:00.00 75989 N 0 0 0
0:00:00.00 76219 N 0 0 0
0:00:00.00 76453 N 0 0 0
0:00:00.00 76685 N 0 0 0
0:00:00.00 76916 N 0 0 0
0:00:00.00 77143 N 0 0 0
0:00:00.00 77380 N 0 0 0
0:00:00.00 77616 N 0 0 0
0:00:00.00 77850 N 0 0 0
0:00:00.00 78075 N 0 0 0
0:00:00.00 78311 N 0 0 0
0:00:00.00 78543 N 0 0 0
0:00:00.00 78784 N 0 0 0
0:00:00.00 79024 N 0 0 0
0:00:00.00 79256 N 0 0 0
0:00:00.00 79484 N 0 0 0
0:00:00.00 79722 N 0 0 0
0:00:00.00 79963 N 0 0 0
0:00:00.00 80197 N 0 0 0
0:00:00.00 80426 N 0 0 0
0:00:00.00 80658 N 0 0 0
0:00:00.00 80892 N 0 0 0
0:00:00.00 81128 N 0 0 0
0:00:00.00 81365 N 0 0 0
0:00:00.00 81598 N 0 0 0
0:00:00.00 81826 N 0 0 0
0:00:00.00 82057 N 0 0 0
0:00:00.00 82296 N 0 0 0
0:00:00.00 82532 N 0 0 0
0:00:00.00 82766 N 0 0 0
0:00:00.00 83000 N 0 0 0
0:00:00.00 83237 N 0 0 0
0:00:00.00 83468 N 0 0 0
0:00:00.00 83704 N 0 0 0
0:00:00.00 83945 N 0 0 0
0:00:00.00 84179 N 0 0 0
0:00:00.00 84409 N 0 0 0
0:00:00.00 84647 N 0 0 0
0:00:00.00 84888 N 0 0 0
0:00:00.00 85122 N 0 0 0
0:00:00.00 85347 N 0 0 0
0:00:00.00 85579 N 0 0 0
0:00:00.00 85811 N 0 0 0
0:00:00.00 86049 N 0 0 0
0:00:00.00 86290 N 0 0 0
0:00:00.00 86522 N 0 0 0
0:00:00.00 86755 N 0 0 0
0:00:00.00 86994 N 0 0 0
0:00:00.00 87241 N 0 0 0
0:00:00.00 87482 N 0 0 0
0:00:00.00 87714 N 0 0 0
0:00:00.00 87950 N 0 0 0
0:00:00.00 88189 N 0 0 0
0:00:00.00 88434 N 0 0 0
0:00:00.00 88677 N 0 0 0
0:00:00.00 88913 N 0 0 0
0:00:00.00 89147 N 0 0 0
0:00:00.00 89386 N 0 0 0
0:00:00.00 89635 N 0 0 0
0:00:00.00 89870 N 0 0 0
0:00:00.00 90104 N 0 0 0
0:00:00.00 90342 N 0 0 0
0:00:00.00 90581 N 0 0 0
0:00:00.00 90826 N 0 0 0
0:00:00.00 91071 N 0 0 0
0:00:00.00 91309 N 0 0 0
0:00:00.00 91548 N 0 0 0
0:00:00.00 91787 N 0 0 0
0:00:00.00 92038 N 0 0 0
0:00:00.00 92275 N 0 0 0
0:00:00.00 92513 N 0 0 0
0:00:00.00 92750 N 0 0 0
0:00:00.00 92990 N 0 0 0
0:00:00.00 93229 N 0 0 0
0:00:00.00 93472 N 0 0 0
0:00:00.00 93708 N 0 0 0
0:00:00.00 93942 N 0 0 0
0:00:00.00 94176 N 0 0 0
0:00:00.00 94423 N 0 0 0
0:00:00.00 94664 N 0 0 0
0:00:00.00 94898 N 0 0 0
0:00:00.00 95132 N 0 0 0
0:00:00.00 95371 N 0 0 0
0:00:00.00 95611 N 0 0 0
0:00:00.00 95850 N 0 0 0
0:00:00.00 96091 N 0 0 0
0:00:00.00 96327 N 0 0 0
0:00:00.00 96557 N 0 0 0
0:00:00.00 96800 N 0 0 0
0:00:00.00 97038 N 0 0 0
0:00:00.00 97268 N 0 0 0
0:00:00.00 97497 N 0 0 0
0:00:00.00 97729 N 0 0 0
0:00:00.00 97956 N 0 0 0
0:00:00.00 98186 N 0 0 0
0:00:00.00 98420 N 0 0 0
0:00:00.00 98645 N 0 0 0
0:00:00.00 98870 N 0 0 0
0:00:00.00 99099 N 0 0 0
0:00:00.00 99335 N 0 0 0
0:00:00.00 99563 N 0 0 0
0:00:00.00 99788 N 0 0 0
0:00:00.00 100015 N 0 0 0
0:00:00.00 100247 N 0 0 0
0:00:00.00 100480 N 0 0 0
0:00:00.00 100714 N 0 0 0
0:00:00.00 100942 N 0 0 0
0:00:00.00 101169 N 0 0 0
0:00:00.00 101394 N 0 0 0
0:00:00.00 101628 N 0 0 0
0:00:00.00 101862 N 0 0 0
0:00:00.00 102094 N 0 0 0
0:00:00.00 102316 N 0 0 0
0:00:00.00 102541 N 0 0 0
0:00:00.00 102769 N 0 0 0
0:00:00.00 103007 N 0 0 0
0:00:00.00 103246 N 0 0 0
0:00:00.00 103471 N 0 0 0
0:00:00.00 103700 N 0 0 0
0:00:00.00 103934 N 0 0 0
0:00:00.00 104175 N 0 0 0
0:00:00.00 104407 N 0 0 0
0:00:00.00 104636 N 0 0 0
0:00:00.00 104864 N 0 0 0
0:00:00.00 105097 N 0 0 0
0:00:00.00 105325 N 0 0 0
0:00:00.00 105561 N 0 0 0
0:00:00.00 105791 N 0 0 0
0:00:00.00 106020 N 0 0 0
0:00:00.00 106243 N 0 0 0
0:00:00.00 106479 N 0 0 0
0:00:00.00 106711 N 0 0 0
0:00:00.00 106942 N 0 0 0
0:00:00.00 107168 N 0 0 0
0:00:00.00 107399 N 0 0 0
0:00:00.00 107626 N 0 0 0
0:00:00.00 107860 N 0 0 0
0:00:00.00 108097 N 0 0 0
0:00:00.00 108326 N 0 0 0
0:00:00.00 108556 N 0 0 0
0:00:00.00 108785 N 0 0 0
0:00:00.00 109030 N 0 0 0
0:00:00.00 109258 N 0 0 0
0:00:00.00 109487 N 0 0 0
0:00:00.00 109717 N 0 0 0
0:00:00.00 109953 N 0 0 0
0:00:00.00 110182 N 0 0 0
0:00:00.00 110419 N 0 0 0
0:00:00.00 110653 N 0 0 0
0:00:00.00 110887 N 0 0 0
0:00:00.00 111110 N 0 0 0
0:00:00.00 111350 N 0 0 0
0:00:00.00 111589 N 0 0 0
0:00:00.00 111825 N 0 0 0
0:00:00.00 112052 N 0 0 0
0:00:00.00 112286 N 0 0 0
0:00:00.00 112522 N 0 0 0
0:00:00.00 112761 N 0 0 0
0:00:00.00 113002 N 0 0 0
0:00:00.00 113242 N 0 0 0
0:00:00.00 113474 N 0 0 0
0:00:00.00 113713 N 0 0 0
0:00:00.00 113956 N 0 0 0
0:00:00.00 114194 N 0 0 0
0:00:00.00 114424 N 0 0 0
0:00:00.00 114660 N 0 0 0
0:00:00.00 114896 N 0 0 0
0:00:00.00 115137 N 0 0 0
0:00:00.00 115375 N 0 0 0
0:00:00.00 115605 N 0 0 0
0:00:00.00 115839 N 0 0 0
0:00:00.00 116077 N 0 0 0
0:00:00.00 116320 N 0 0 0
0:00:00.00 116555 N 0 0 0
0:00:00.00 116789 N 0 0 0
0:00:00.00 117023 N 0 0 0
0:00:00.00 117263 N 0 0 0
0:00:00.00 117500 N 0 0 0
0:00:00.00 117745 N 0 0 0
0:00:00.00 117981 N 0 0 0
0:00:00.00 118217 N 0 0 0
0:00:00.00 118451 N 0 0 0
0:00:00.00 118697 N 0 0 0
0:00:00.00 118939 N 0 0 0
0:00:00.00 119176 N 0 0 0
0:00:00.00 119407 N 0 0 0
0:00:00.00 119642 N 0 0 0
0:00:00.00 119873 N 0 0 0
0:00:00.00 120112 N 0 0 0
0:00:00.00 120346 N 0 0 0
0:00:00.00 120584 N 0 0 0
0:00:00.00 120816 N 0 0 0
0:00:00.00 121064 N 0 0 0
0:00:00.00 121306 N 0 0 0
0:00:00.00 121545 N 0 0 0
0:00:00.00 121779 N 0 0 0
0:00:00.00 122020 N 0 0 0
0:00:00.00 122254 N 0 0 0
0:00:00.00 122494 N 0 0 0
0:00:00.00 122733 N 0 0 0
0:00:00.00 122971 N 0 0 0
0:00:00.00 123201 N 0 0 0
0:00:00.00 123442 N 0 0 0
0:00:00.00 123682 N 0 0 0
0:00:00.00 123919 N 0 0 0
0:00:00.00 124148 N 0 0 0
0:00:00.00 124385 N 0 0 0
0:00:00.00 124621 N 0 0 0
0:00:00.00 124864 N 0 0 0
0:00:00.00 125109 N 0 0 0
0:00:00.00 125348 N 0 0 0
0:00:00.00 125582 N 0 0 0
0:00:00.00 125827 N 0 0 0
0:00:00.00 126076 N 0 0 0
0:00:00.00 126317 N 0 0 0
0:00:00.00 126551 N 0 0 0
0:00:00.00 126790 N 0 0 0
0:00:00.00 127028 N 0 0 0
0:00:00.00 127276 N 0 0 0
0:00:00.00 127526 N 0 0 0
0:00:00.00 127766 N 0 0 0
0:00:00.00 128003 N 0 0 0
0:00:00.00 128246 N 0 0 0
0:00:00.00 128491 N 0 0 0
0:00:00.00 128736 N 0 0 0
0:00:00.00 128970 N 0 0 0
0:00:00.00 129208 N 0 0 0
0:00:00.00 129445 N 0 0 0
0:00:00.00 129688 N 0 0 0
0:00:00.00 129935 N 0 0 0
0:00:00.00 130176 N 0 0 0
0:00:00.00 130412 N 0 0 0
0:00:00.00 130660 N 0 0 0
0:00:00.00 130909 N 0 0 0
0:00:00.00 131152 N 0 0 0
0:00:00.00 131391 N 0 0 0
0:00:00.00 131634 N 0 0 0
0:00:00.00 131875 N 0 0 0
0:00:00.00 132124 N 0 0 0
0:00:00.00 132372 N 0 0 0
0:00:00.00 132611 N 0 0 0
0:00:00.00 132849 N 0 0 0
0:00:00.00 133096 N 0 0 0
0:00:00.00 133342 N 0 0 0
0:00:00.00 133585 N 0 0 0
0:00:00.00 133819 N 0 0 0
0:00:00.00 134059 N 0 0 0
0:00:00.00 134294 N 0 0 0
0:00:00.00 134539 N 0 0 0
0:00:00.00 134786 N 0 0 0
0:00:00.00 135025 N 0 0 0
0:00:00.00 135257 N 0 0 0
0:00:00.00 135497 N 0 0 0
0:00:00.00 135742 N 0 0 0
0:00:00.00 135979 N 0 0 0
0:00:00.00 136206 N 0 0 0
0:00:00.00 136436 N 0 0 0
0:00:00.00 136669 N 0 0 0
0:00:00.00 136904 N 0 0 0
0:00:00.00 137142 N 0 0 0
0:00:00.00 137372 N 0 0 0
0:00:00.00 137601 N 0 0 0
0:00:00.00 137833 N 0 0 0
0:00:00.00 138074 N 0 0 0
0:00:00.00 138310 N 0 0 0
0:00:00.00 138542 N 0 0 0
0:00:00.00 138776 N 0 0 0
0:00:00.00 139016 N 0 0 0
0:00:00.00 139255 N 0 0 0
0:00:00.00 139495 N 0 0 0
0:00:00.00 139732 N 0 0 0
0:00:00.00 139966 N 0 0 0
0:00:00.00 140200 N 0 0 0
0:00:00.00 140441 N 0 0 0
0:00:00.00 140683 N 0 0 0
0:00:00.00 140920 N 0 0 0
0:00:00.00 141152 N 0 0 0
0:00:00.00 141383 N 0 0 0
0:00:00.00 141615 N 0 0 0
0:00:00.00 141851 N 0 0 0
0:00:00.00 142092 N 0 0 0
0:00:00.00 142322 N 0 0 0
0:00:00.00 142551 N 0 0 0
0:00:00.00 142787 N 0 0 0
0:00:00.00 143030 N 0 0 0
0:00:00.00 143264 N 0 0 0
0:00:00.00 143496 N 0 0 0
0:00:00.00 143728 N 0 0 0
0:00:00.00 143966 N 0 0 0
0:00:00.00 144207 N 0 0 0
0:00:00.00 144452 N 0 0 0
0:00:00.00 144686 N 0 0 0
0:00:00.00 144920 N 0 0 0
0:00:00.00 145156 N 0 0 0
0:00:00.00 145402 N 0 0 0
0:00:00.00 145636 N 0 0 0
0:00:00.00 145868 N 0 0 0
0:00:00.00 146102 N 0 0 0
0:00:00.00 146344 N 0 0 0
0:00:00.00 146581 N 0 0 0
0:00:00.00 146826 N 0 0 0
0:00:00.00 147065 N 0 0 0
0:00:00.00 147305 N 0 0 0
0:00:00.00 147542 N 0 0 0
0:00:00.00 147794 N 0 0 0
0:00:00.00 148034 N 0 0 0
0:00:00.00 148270 N 0 0 0
0:00:00.00 148505 N 0 0 0
0:00:00.00 148747 N 0 0 0
0:00:00.00 148982 N 0 0 0
0:00:00.00 149222 N 0 0 0
0:00:00.00 149458 N 0 0 0
0:00:00.00 149693 N 0 0 0
0:00:00.00 149924 N 0 0 0
0:00:00.00 150165 N 0 0 0
0:00:00.00 150406 N 0 0 0
0:00:00.00 150642 N 0 0 0
0:00:00.00 150876 N 0 0 0
0:00:00.00 151117 N 0 0 0
0:00:00.00 151353 N 0 0 0
0:00:00.00 151592 N 0 0 0
0:00:00.00 151837 N 0 0 0
0:00:00.00 152077 N 0 0 0
0:00:00.00 152311 N 0 0 0
0:00:00.00 152555 N 0 0 0
0:00:00.00 152798 N 0 0 0
0:00:00.00 153040 N 0 0 0
0:00:00.00 153270 N 0 0 0
0:00:00.00 153508 N 0 0 0
0:00:00.00 153743 N 0 0 0
0:00:00.00 153985 N 0 0 0
0:00:00.00 154229 N 0 0 0
0:00:00.00 154469 N 0 0 0
0:00:00.00 154706 N 0 0 0
0:00:00.00 154957 N 0 0 0
0:00:00.00 155205 N 0 0 0
0:00:00.00 155453 N 0 0 0
0:00:00.00 155693 N 0 0 0
0:00:00.00 155936 N 0 0 0
0:00:00.00 156175 N 0 0 0
0:00:00.00 156424 N 0 0 0
0:00:00.00 156668 N 0 0 0
0:00:00.00 156908 N 0 0 0
0:00:00.00 157145 N 0 0 0
0:00:00.00 157392 N 0 0 0
0:00:00.00 157633 N 0 0 0
0:00:00.00 157874 N 0 0 0
0:00:00.00 158108 N 0 0 0
0:00:00.00 158346 N 0 0 0
0:00:00.00 158578 N 0 0 0
0:00:00.00 158818 N 0 0 0
0:00:00.00 159059 N 0 0 0
0:00:00.00 159295 N 0 0 0
0:00:00.00 159525 N 0 0 0
0:00:00.00 159766 N 0 0 0
0:00:00.00 160009 N 0 0 0
0:00:00.00 160247 N 0 0 0
0:00:00.00 160479 N 0 0 0
0:00:00.00 160715 N 0 0 0
0:00:00.00 160949 N 0 0 0
0:00:00.00 161188 N 0 0 0
0:00:00.00 161433 N 0 0 0
0:00:00.00 161667 N 0 0 0
0:00:00.00 161899 N 0 0 0
0:00:00.00 162137 N 0 0 0
0:00:00.00 162383 N 0 0 0
0:00:00.00 162617 N 0 0 0
0:00:00.00 162848 N 0 0 0
0:00:00.00 163078 N 0 0 0
0:00:00.00 163316 N 0 0 0
0:00:00.00 163555 N 0 0 0
0:00:00.00 163795 N 0 0 0
0:00:00.00 164027 N 0 0 0
0:00:00.00 164261 N 0 0 0
0:00:00.00 164495 N 0 0 0
0:00:00.00 164741 N 0 0 0
0:00:00.00 164977 N 0 0 0
0:00:00.00 165209 N 0 0 0
0:00:00.00 165443 N 0 0 0
0:00:00.00 165683 N 0 0 0
0:00:00.00 165919 N 0 0 0
0:00:00.00 166158 N 0 0 0
0:00:00.00 166390 N 0 0 0
0:00:00.00 166624 N 0 0 0
0:00:00.00 166853 N 0 0 0
0:00:00.00 167096 N 0 0 0
0:00:00.00 167328 N 0 0 0
0:00:00.00 167562 N 0 0 0
0:00:00.00 167789 N 0 0 0
0:00:00.00 168023 N 0 0 0
0:00:00.00 168253 N 0 0 0
0:00:00.00 168489 N 0 0 0
0:00:00.00 168725 N 0 0 0
0:00:00.00 168959 N 0 0 0
0:00:00.00 169186 N 0 0 0
0:00:00.00 169423 N 0 0 0
0:00:00.00 169663 N 0 0 0
0:00:00.00 169897 N 0 0 0
0:00:00.00 170122 N 0 0 0
0:00:00.00 170352 N 0 0 0
0:00:00.00 170581 N 0 0 0
0:00:00.00 170815 N 0 0 0
0:00:00.00 171054 N 0 0 0
0:00:00.00 171281 N 0 0 0
0:00:00.00 171506 N 0 0 0
0:00:00.00 171734 N 0 0 0
0:00:00.00 171974 N 0 0 0
0:00:00.00 172204 N 0 0 0
0:00:00.00 172433 N 0 0 0
0:00:00.00 172661 N 0 0 0
0:00:00.00 172894 N 0 0 0
0:00:00.00 173120 N 0 0 0
0:00:00.00 173354 N 0 0 0
0:00:00.00 173588 N 0 0 0
0:00:00.00 173821 N 0 0 0
0:00:00.00 174046 N 0 0 0
0:00:00.00 174281 N 0 0 0
0:00:00.00 174521 N 0 0 0
0:00:00.00 174755 N 0 0 0
0:00:00.00 174982 N 0 0 0
0:00:00.00 175214 N 0 0 0
0:00:00.00 175446 N 0 0 0
0:00:00.00 175682 N 0 0 0
0:00:00.00 175918 N 0 0 0
0:00:00.00 176148 N 0 0 0
0:00:00.00 176378 N 0 0 0
0:00:00.00 176609 N 0 0 0
0:00:00.00 176848 N 0 0 0
0:00:00.00 177080 N 0 0 0
0:00:00.00 177313 N 0 0 0
0:00:00.00 177541 N 0 0 0
0:00:00.00 177777 N 0 0 0
0:00:00.00 178009 N 0 0 0
0:00:00.00 178245 N 0 0 0
0:00:00.00 178483 N 0 0 0
0:00:00.00 178715 N 0 0 0
0:00:00.00 178942 N 0 0 0
0:00:00.00 179177 N 0 0 0
0:00:00.00 179417 N 0 0 0
0:00:00.00 179654 N 0 0 0
0:00:00.00 179878 N 0 0 0
0:00:00.00 180108 N 0 0 0
0:00:00.00 180338 N 0 0 0
0:00:00.00 180574 N 0 0 0
0:00:00.00 180812 N 0 0 0
0:00:00.00 181042 N 0 0 0
0:00:00.00 181271 N 0 0 0
0:00:00.00 181503 N 0 0 0
0:00:00.00 181742 N 0 0 0
0:00:00.00 181975 N 0 0 0
0:00:00.00 182203 N 0 0 0
0:00:00.00 182434 N 0 0 0
0:00:00.00 182668 N 0 0 0
0:00:00.00 182900 N 0 0 0
0:00:00.00 183136 N 0 0 0
0:00:00.00 183368 N 0 0 0
0:00:00.00 183596 N 0 0 0
0:00:00.00 183825 N 0 0 0
0:00:00.00 184061 N 0 0 0
0:00:00.00 184291 N 0 0 0
0:00:00.00 184520 N 0 0 0
0:00:00.00 184745 N 0 0 0
0:00:00.00 184973 N 0 0 0
0:00:00.00 185198 N 0 0 0
0:00:00.00 185432 N 0 0 0
0:00:00.00 185668 N 0 0 0
0:00:00.00 185895 N 0 0 0
0:00:00.00 186120 N 0 0 0
0:00:00.00 186350 N 0 0 0
0:00:00.00 186592 N 0 0 0
0:00:00.00 186824 N 0 0 0
0:00:00.00 187049 N 0 0 0
0:00:00.00 187277 N 0 0 0
0:00:00.00 187510 N 0 0 0
0:00:00.00 187738 N 0 0 0
0:00:00.00 187969 N 0 0 0
0:00:00.00 188199 N 0 0 0
0:00:00.00 188424 N 0 0 0
0:00:00.00 188644 N 0 0 0
0:00:00.00 188878 N 0 0 0
0:00:00.00 189113 N 0 0 0
0:00:00.00 189342 N 0 0 0
0:00:00.00 189565 N 0 0 0
0:00:00.00 189794 N 0 0 0
0:00:00.00 190022 N 0 0 0
0:00:00.00 190255 N 0 0 0
0:00:00.00 190492 N 0 0 0
0:00:00.00 190721 N 0 0 0
0:00:00.00 190948 N 0 0 0
0:00:00.00 191183 N 0 0 0
0:00:00.00 191423 N 0 0 0
0:00:00.00 191655 N 0 0 0
0:00:00.00 191882 N 0 0 0
0:00:00.00 192112 N 0 0 0
0:00:00.00 192343 N 0 0 0
0:00:00.00 192577 N 0 0 0
0:00:00.00 192809 N 0 0 0
0:00:00.00 193037 N 0 0 0
0:00:00.00 193264 N 0 0 0
0:00:00.00 193491 N 0 0 0
0:00:00.00 193725 N 0 0 0
0:00:00.00 193959 N 0 0 0
0:00:00.00 194189 N 0 0 0
0:00:00.00 194418 N 0 0 0
0:00:00.00 194645 N 0 0 0
0:00:00.00 194872 N 0 0 0
0:00:00.00 195107 N 0 0 0
0:00:00.00 195347 N 0 0 0
0:00:00.00 195577 N 0 0 0
0:00:00.00 195802 N 0 0 0
0:00:00.00 196038 N 0 0 0
0:00:00.00 196277 N 0 0 0
0:00:00.00 196510 N 0 0 0
0:00:00.00 196735 N 0 0 0
0:00:00.00 196965 N 0 0 0
0:00:00.00 197194 N 0 0 0
0:00:00.00 197428 N 0 0 0
0:00:00.00 197665 N 0 0 0
0:00:00.00 197894 N 0 0 0
0:00:00.00 198119 N 0 0 0
0:00:00.00 198349 N 0 0 0
0:00:00.00 198587 N 0 0 0
0:00:00.00 198817 N 0 0 0
0:00:00.00 199044 N 0 0 0
0:00:00.00 199273 N 0 0 0
0:00:00.00 199505 N 0 0 0
0:00:00.00 199735 N 0 0 0
0:00:00.00 199966 N 0 0 0
0:00:00.00 200200 N 0 0 0
0:00:00.00 200428 N 0 0 0
0:00:00.00 200651 N 0 0 0
0:00:00.00 200882 N 0 0 0
0:00:00.00 201118 N 0 0 0
0:00:00.00 201348 N 0 0 0
0:00:00.00 201569 N 0 0 0
0:00:00.00 201794 N 0 0 0
0:00:00.00 202021 N 0 0 0
0:00:00.00 202252 N 0 0 0
0:00:00.00 202484 N 0 0 0
0:00:00.00 202711 N 0 0 0
0:00:00.00 202937 N 0 0 0
0:00:00.00 203162 N 0 0 0
0:00:00.00 203398 N 0 0 0
0:00:00.00 203634 N 0 0 0
0:00:00.00 203864 N 0 0 0
0:00:00.00 204091 N 0 0 0
0:00:00.00 204318 N 0 0 0
0:00:00.00 204545 N 0 0 0
0:00:00.00 204777 N 0 0 0
0:00:00.00 205011 N 0 0 0
0:00:00.00 205236 N 0 0 0
0:00:00.00 205459 N 0 0 0
0:00:00.00 205691 N 0 0 0
0:00:00.00 205925 N 0 0 0
0:00:00.00 206154 N 0 0 0
0:00:00.00 206379 N 0 0 0
0:00:00.00 206608 N 0 0 0
0:00:00.00 206842 N 0 0 0
0:00:00.00 207074 N 0 0 0
0:00:00.00 207313 N 0 0 0
0:00:00.00 207545 N 0 0 0
0:00:00.00 207779 N 0 0 0
0:00:00.00 208015 N 0 0 0
0:00:00.00 208260 N 0 0 0
0:00:00.00 208498 N 0 0 0
0:00:00.00 208737 N 0 0 0
0:00:00.00 208971 N 0 0 0
0:00:00.00 209209 N 0 0 0
0:00:00.00 209441 N 0 0 0
0:00:00.00 209684 N 0 0 0
0:00:00.00 209925 N 0 0 0
0:00:00.00 210161 N 0 0 0
0:00:00.00 210391 N 0 0 0
0:00:00.00 210629 N 0 0 0
0:00:00.00 210874 N 0 0 0
0:00:00.00 211111 N 0 0 0
0:00:00.00 211345 N 0 0 0
0:00:00.00 211581 N 0 0 0
0:00:00.00 211817 N 0 0 0
0:00:00.00 212058 N 0 0 0
0:00:00.00 212303 N 0 0 0
0:00:00.00 212537 N 0 0 0
0:00:00.00 212767 N 0 0 0
0:00:00.00 213007 N 0 0 0
0:00:00.00 213251 N 0 0 0
0:00:00.00 213485 N 0 0 0
0:00:00.00 213712 N 0 0 0
0:00:00.00 213944 N 0 0 0
0:00:00.00 214180 N 0 0 0
0:00:00.00 214414 N 0 0 0
0:00:00.00 214652 N 0 0 0
0:00:00.00 214880 N 0 0 0
0:00:00.00 215113 N 0 0 0
0:00:00.00 215348 N 0 0 0
0:00:00.00 215593 N 0 0 0
0:00:00.00 215827 N 0 0 0
0:00:00.00 216065 N 0 0 0
0:00:00.00 216297 N 0 0 0
0:00:00.00 216540 N 0 0 0
0:00:00.00 216779 N 0 0 0
0:00:00.00 217022 N 0 0 0
0:00:00.00 217260 N 0 0 0
0:00:00.00 217498 N 0 0 0
0:00:00.00 217732 N 0 0 0
0:00:00.00 217978 N 0 0 0
0:00:00.00 218216 N 0 0 0
0:00:00.00 218457 N 0 0 0
0:00:00.00 218689 N 0 0 0
0:00:00.00 218929 N 0 0 0
0:00:00.00 219161 N 0 0 0
0:00:00.00 219404 N 0 0 0
0:00:00.00 219643 N 0 0 0
0:00:00.00 219879 N 0 0 0
0:00:00.00 220111 N 0 0 0
0:00:00.00 220354 N 0 0 0
0:00:00.00 220594 N 0 0 0
0:00:00.00 220831 N 0 0 0
0:00:00.00 221063 N 0 0 0
0:00:00.00 221301 N 0 0 0
0:00:00.00 221533 N 0 0 0
0:00:00.00 221774 N 0 0 0
0:00:00.00 222012 N 0 0 0
0:00:00.00 222248 N 0 0 0
0:00:00.00 222476 N 0 0 0
0:00:00.00 222719 N 0 0 0
0:00:00.00 222962 N 0 0 0
0:00:00.00 223198 N 0 0 0
0:00:00.00 223427 N 0 0 0
0:00:00.00 223663 N 0 0 0
0:00:00.00 223895 N 0 0 0
0:00:00.00 224134 N 0 0 0
0:00:00.00 224375 N 0 0 0
0:00:00.00 224608 N 0 0 0
0:00:00.00 224836 N 0 0 0
0:00:00.00 225076 N 0 0 0
0:00:00.00 225322 N 0 0 0
0:00:00.00 225558 N 0 0 0
0:00:00.00 225788 N 0 0 0
0:00:00.00 226024 N 0 0 0
0:00:00.00 226262 N 0 0 0
0:00:00.00 226501 N 0 0 0
0:00:00.00 226742 N 0 0 0
0:00:00.00 226976 N 0 0 0
0:00:00.00 227212 N 0 0 0
0:00:00.00 227446 N 0 0 0
0:00:00.00 227691 N 0 0 0
0:00:00.00 227929 N 0 0 0
0:00:00.00 228161 N 0 0 0
0:00:00.00 228395 N 0 0 0
0:00:00.00 228632 N 0 0 0
0:00:00.00 228870 N 0 0 0
0:00:00.00 229113 N 0 0 0
0:00:00.00 229345 N 0 0 0
0:00:00.00 229581 N 0 0 0
0:00:00.00 229817 N 0 0 0
0:00:00.00 230062 N 0 0 0
0:00:00.00 230297 N 0 0 0
0:00:00.00 230530 N 0 0 0
0:00:00.00 230760 N 0 0 0
0:00:00.00 230994 N 0 0 0
0:00:00.00 231226 N 0 0 0
0:00:00.00 231462 N 0 0 0
0:00:00.00 231692 N 0 0 0
0:00:00.00 231921 N 0 0 0
0:00:00.00 232148 N 0 0 0
0:00:00.00 232385 N 0 0 0
0:00:00.00 232619 N 0 0 0
0:00:00.00 232853 N 0 0 0
0:00:00.00 233080 N 0 0 0
0:00:00.00 233312 N 0 0 0
0:00:00.00 233541 N 0 0 0
0:00:00.00 233782 N 0 0 0
0:00:00.00 234022 N 0 0 0
0:00:00.00 234257 N 0 0 0
0:00:00.00 234490 N 0 0 0
0:00:00.00 234731 N 0 0 0
0:00:00.00 234974 N 0 0 0
0:00:00.00 235210 N 0 0 0
0:00:00.00 235438 N 0 0 0
0:00:00.00 235676 N 0 0 0
0:00:00.00 235904 N 0 0 0
0:00:00.00 236142 N 0 0 0
0:00:00.00 236380 N 0 0 0
0:00:00.00 236610 N 0 0 0
0:00:00.00 236839 N 0 0 0
0:00:00.00 237067 N 0 0 0
0:00:00.00 237310 N 0 0 0
0:00:00.00 237544 N 0 0 0
0:00:00.00 237775 N 0 0 0
0:00:00.00 238001 N 0 0 0
0:00:00.00 238239 N 0 0 0
0:00:00.00 238471 N 0 0 0
0:00:00.00 238709 N 0 0 0
0:00:00.00 238945 N 0 0 0
0:00:00.00 239180 N 0 0 0
0:00:00.00 239407 N 0 0 0
0:00:00.00 239650 N 0 0 0
0:00:00.00 239891 N 0 0 0
0:00:00.00 240129 N 0 0 0
0:00:00.00 240358 N 0 0 0
0:00:00.00 240588 N 0 0 0
0:00:00.00 240818 N 0 0 0
0:00:00.00 241056 N 0 0 0
0:00:00.00 241294 N 0 0 0
0:00:00.00 241526 N 0 0 0
0:00:00.00 241754 N 0 0 0
0:00:00.00 241990 N 0 0 0
0:00:00.00 242230 N 0 0 0
0:00:00.00 242465 N 0 0 0
0:00:00.00 242694 N 0 0 0
0:00:00.00 242928 N 0 0 0
0:00:00.00 243160 N 0 0 0
0:00:00.00 243400 N 0 0 0
0:00:00.00 243634 N 0 0 0
0:00:00.00 243868 N 0 0 0
0:00:00.00 244102 N 0 0 0
0:00:00.00 244334 N 0 0 0
0:00:00.00 244570 N 0 0 0
0:00:00.00 244800 N 0 0 0
0:00:00.00 245029 N 0 0 0
0:00:00.00 245255 N 0 0 0
0:00:00.00 245484 N 0 0 0
0:00:00.00 245709 N 0 0 0
0:00:00.00 245945 N 0 0 0
0:00:00.00 246182 N 0 0 0
0:00:00.00 246413 N 0 0 0
0:00:00.00 246640 N 0 0 0
0:00:00.00 246877 N 0 0 0
0:00:00.00 247122 N 0 0 0
0:00:00.00 247356 N 0 0 0
0:00:00.00 247583 N 0 0 0
0:00:00.00 247815 N 0 0 0
0:00:00.00 248047 N 0 0 0
0:00:00.00 248285 N 0 0 0
0:00:00.00 248522 N 0 0 0
0:00:00.00 248755 N 0 0 0
0:00:00.00 248983 N 0 0 0
0:00:00.00 249217 N 0 0 0
0:00:00.00 249458 N 0 0 0
0:00:00.00 249692 N 0 0 0
0:00:00.00 249923 N 0 0 0
0:00:00.00 250157 N 0 0 0
0:00:00.00 250396 N 0 0 0
0:00:00.00 250634 N 0 0 0
0:00:00.00 250871 N 0 0 0
0:00:00.00 251109 N 0 0 0
0:00:00.00 251347 N 0 0 0
0:00:00.00 251582 N 0 0 0
0:00:00.00 251825 N 0 0 0
0:00:00.00 252067 N 0 0 0
0:00:00.00 252304 N 0 0 0
0:00:00.00 252536 N 0 0 0
0:00:00.00 252776 N 0 0 0
0:00:00.00 253012 N 0 0 0
0:00:00.00 253251 N 0 0 0
0:00:00.00 253487 N 0 0 0
0:00:00.00 253721 N 0 0 0
0:00:00.00 253953 N 0 0 0
0:00:00.00 254192 N 0 0 0
0:00:00.00 254434 N 0 0 0
0:00:00.00 254673 N 0 0 0
0:00:00.00 254902 N 0 0 0
0:00:00.00 255137 N 0 0 0
0:00:00.00 255370 N 0 0 0
0:00:00.00 255614 N 0 0 0
0:00:00.00 255856 N 0 0 0
0:00:00.00 256088 N 0 0 0
0:00:00.00 256322 N 0 0 0
0:00:00.00 256559 N 0 0 0
0:00:00.00 256802 N 0 0 0
0:00:00.00 257036 N 0 0 0
0:00:00.00 257265 N 0 0 0
0:00:00.00 257499 N 0 0 0
0:00:00.00 257728 N 0 0 0
0:00:00.00 257965 N 0 0 0
0:00:00.00 258206 N 0 0 0
0:00:00.00 258433 N 0 0 0
0:00:00.00 258662 N 0 0 0
0:00:00.00 258896 N 0 0 0
0:00:00.00 259137 N 0 0 0
0:00:00.00 259367 N 0 0 0
0:00:00.00 259596 N 0 0 0
0:00:00.00 259832 N 0 0 0
0:00:00.00 260068 N 0 0 0
0:00:00.00 260305 N 0 0 0
0:00:00.00 260546 N 0 0 0
0:00:00.00 260782 N 0 0 0
0:00:00.00 261016 N 0 0 0
0:00:00.00 261250 N 0 0 0
0:00:00.00 261497 N 0 0 0
0:00:00.00 261734 N 0 0 0
0:00:00.00 261965 N 0 0 0
0:00:00.00 262197 N 0 0 0
0:00:00.00 262431 N 0 0 0
0:00:00.00 262665 N 0 0 0
0:00:00.00 262901 N 0 0 0
0:00:00.00 263138 N 0 0 0
0:00:00.00 263372 N 0 0 0
0:00:00.00 263603 N 0 0 0
0:00:00.00 263840 N 0 0 0
0:00:00.00 264080 N 0 0 0
0:00:00.00 264316 N 0 0 0
0:00:00.00 264544 N 0 0 0
0:00:00.00 264775 N 0 0 0
0:00:00.00 265005 N 0 0 0
0:00:00.00 265241 N 0 0 0
0:00:00.00 265478 N 0 0 0
0:00:00.00 265709 N 0 0 0
0:00:00.00 265936 N 0 0 0
0:00:00.00 266170 N 0 0 0
0:00:00.00 266407 N 0 0 0
0:00:00.00 266638 N 0 0 0
0:00:00.00 266864 N 0 0 0
0:00:00.00 267095 N 0 0 0
0:00:00.00 267325 N 0 0 0
0:00:00.00 267565 N 0 0 0
0:00:00.00 267804 N 0 0 0
0:00:00.00 268034 N 0 0 0
0:00:00.00 268265 N 0 0 0
0:00:00.00 268499 N 0 0 0
0:00:00.00 268740 N 0 0 0
0:00:00.00 268974 N 0 0 0
0:00:00.00 269208 N 0 0 0
0:00:00.00 269437 N 0 0 0
0:00:00.00 269672 N 0 0 0
0:00:00.00 269905 N 0 0 0
0:00:00.00 270140 N 0 0 0
0:00:00.00 270376 N 0 0 0
0:00:00.00 270605 N 0 0 0
0:00:00.00 270830 N 0 0 0
0:00:00.00 271064 N 0 0 0
0:00:00.00 271301 N 0 0 0
0:00:00.00 271534 N 0 0 0
0:00:00.00 271759 N 0 0 0
0:00:00.00 271989 N 0 0 0
0:00:00.00 272219 N 0 0 0
0:00:00.00 272452 N 0 0 0
0:00:00.00 272695 N 0 0 0
0:00:00.00 272925 N 0 0 0
0:00:00.00 273154 N 0 0 0
0:00:00.00 273389 N 0 0 0
0:00:00.00 273636 N 0 0 0
0:00:00.00 273870 N 0 0 0
0:00:00.00 274100 N 0 0 0
0:00:00.00 274333 N 0 0 0
0:00:00.00 274572 N 0 0 0
0:00:00.00 274810 N 0 0 0
0:00:00.00 275049 N 0 0 0
0:00:00.00 275281 N 0 0 0
0:00:00.00 275517 N 0 0 0
0:00:00.00 275751 N 0 0 0
0:00:00.00 275999 N 0 0 0
0:00:00.00 276239 N 0 0 0
0:00:00.00 276476 N 0 0 0
0:00:00.00 276710 N 0 0 0
0:00:00.00 276953 N 0 0 0
0:00:00.00 277193 N 0 0 0
0:00:00.00 277436 N 0 0 0
0:00:00.00 277677 N 0 0 0
0:00:00.00 277916 N 0 0 0
0:00:00.00 278150 N 0 0 0
0:00:00.00 278395 N 0 0 0
0:00:00.00 278636 N 0 0 0
0:00:00.00 278876 N 0 0 0
0:00:00.00 279108 N 0 0 0
0:00:00.00 279344 N 0 0 0
0:00:00.00 279578 N 0 0 0
0:00:00.00 279821 N 0 0 0
0:00:00.00 280062 N 0 0 0
0:00:00.00 280300 N 0 0 0
0:00:00.00 280530 N 0 0 0
0:00:00.00 280769 N 0 0 0
0:00:00.00 281012 N 0 0 0
0:00:00.00 281250 N 0 0 0
0:00:00.00 281482 N 0 0 0
0:00:00.00 281718 N 0 0 0
0:00:00.00 281952 N 0 0 0
0:00:00.00 282191 N 0 0 0
0:00:00.00 282433 N 0 0 0
0:00:00.00 282667 N 0 0 0
0:00:00.00 282895 N 0 0 0
0:00:00.00 283133 N 0 0 0
0:00:00.00 283376 N 0 0 0
0:00:00.00 283608 N 0 0 0
0:00:00.00 283837 N 0 0 0
0:00:00.00 284069 N 0 0 0
0:00:00.00 284303 N 0 0 0
0:00:00.00 284539 N 0 0 0
0:00:00.00 284780 N 0 0 0
0:00:00.00 285010 N 0 0 0
0:00:00.00 285239 N 0 0 0
0:00:00.00 285471 N 0 0 0
0:00:00.00 285714 N 0 0 0
0:00:00.00 285946 N 0 0 0
0:00:00.00 286178 N 0 0 0
0:00:00.00 286407 N 0 0 0
0:00:00.00 286643 N 0 0 0
0:00:00.00 286871 N 0 0 0
0:00:00.00 287105 N 0 0 0
0:00:00.00 287339 N 0 0 0
0:00:00.00 287570 N 0 0 0
0:00:00.00 287793 N 0 0 0
0:00:00.00 288027 N 0 0 0
0:00:00.00 288265 N 0 0 0
0:00:00.00 288497 N 0 0 0
0:00:00.00 288720 N 0 0 0
0:00:00.00 288950 N 0 0 0
0:00:00.00 289181 N 0 0 0
0:00:00.00 289420 N 0 0 0
0:00:00.00 289658 N 0 0 0
0:00:00.00 289886 N 0 0 0
0:00:00.00 290117 N 0 0 0
0:00:00.00 290354 N 0 0 0
0:00:00.00 290597 N 0 0 0
0:00:00.00 290831 N 0 0 0
0:00:00.00 291056 N 0 0 0
0:00:00.00 291290 N 0 0 0
0:00:00.00 291524 N 0 0 0
0:00:00.00 291760 N 0 0 0
0:00:00.00 292000 N 0 0 0
0:00:00.00 292226 N 0 0 0
0:00:00.00 292457 N 0 0 0
0:00:00.00 292685 N 0 0 0
0:00:00.00 292928 N 0 0 0
0:00:00.00 293157 N 0 0 0
0:00:00.00 293391 N 0 0 0
0:00:00.00 293620 N 0 0 0
0:00:00.00 293854 N 0 0 0
0:00:00.00 294084 N 0 0 0
0:00:00.00 294323 N 0 0 0
0:00:00.00 294559 N 0 0 0
0:00:00.00 294795 N 0 0 0
0:00:00.00 295024 N 0 0 0
0:00:00.00 295265 N 0 0 0
0:00:00.00 295501 N 0 0 0
0:00:00.00 295738 N 0 0 0
0:00:00.00 295970 N 0 0 0
0:00:00.00 296206 N 0 0 0
0:00:00.00 296437 N 0 0 0
0:00:00.00 296676 N 0 0 0
0:00:00.00 296917 N 0 0 0
0:00:00.00 297153 N 0 0 0
0:00:00.00 297383 N 0 0 0
0:00:00.00 297625 N 0 0 0
0:00:00.00 297873 N 0 0 0
0:00:00.00 298114 N 0 0 0
0:00:00.00 298346 N 0 0 0
0:00:00.00 298586 N 0 0 0
0:00:00.00 298825 N 0 0 0
0:00:00.00 299070 N 0 0 0
0:00:00.00 299317 N 0 0 0
0:00:00.00 299558 N 0 0 0
0:00:00.00 299792 N 0 0 0
0:00:00.00 300037 N 0 0 0
0:00:00.00 300285 N 0 0 0
0:00:00.00 300526 N 0 0 0
0:00:00.00 300757 N 0 0 0
0:00:00.00 300994 N 0 0 0
0:00:00.00 301228 N 0 0 0
0:00:00.00 301469 N 0 0 0
0:00:00.00 301712 N 0 0 0
0:00:00.00 301948 N 0 0 0
0:00:00.00 302179 N 0 0 0
0:00:00.00 302420 N 0 0 0
0:00:00.00 302665 N 0 0 0
0:00:00.00 302904 N 0 0 0
0:00:00.00 303136 N 0 0 0
0:00:00.00 303374 N 0 0 0
0:00:00.00 303608 N 0 0 0
0:00:00.00 303853 N 0 0 0
0:00:00.00 304094 N 0 0 0
0:00:00.00 304312 N 0 0 0
0:00:00.00 304526 N 0 0 0
0:00:00.00 304699 N 0 0 0
0:00:00.00 304891 N 0 0 0
0:00:00.00 305066 N 0 0 0
0:00:00.00 305231 N 0 0 0
0:00:00.00 305428 N 0 0 0
0:00:00.00 305624 N 0 0 0
0:00:00.00 305834 N 0 0 0
0:00:00.00 306056 N 0 0 0
0:00:00.00 306268 N 0 0 0
0:00:00.00 306499 N 0 0 0
0:00:00.00 306729 N 0 0 0
0:00:00.00 306927 N 0 0 0
0:00:00.00 307120 N 0 0 0
0:00:00.00 307339 N 0 0 0
0:00:00.00 307575 N 0 0 0
0:00:00.00 307818 N 0 0 0
0:00:00.00 308056 N 0 0 0
0:00:00.00 308288 N 0 0 0
0:00:00.00 308482 N 0 0 0
0:00:00.00 308684 N 0 0 0
0:00:00.00 308912 N 0 0 0
0:00:00.00 309103 N 0 0 0
0:00:00.00 309294 N 0 0 0
0:00:00.00 309499 N 0 0 0
0:00:00.00 309695 N 0 0 0
0:00:00.00 309886 N 0 0 0
0:00:00.00 310061 N 0 0 0
0:00:00.00 310223 N 0 0 0
0:00:00.00 310374 N 0 0 0
0:00:00.00 310527 N 0 0 0
0:00:00.00 310685 N 0 0 0
0:00:00.00 310855 N 0 0 0
0:00:00.00 311036 N 0 0 0
0:00:00.00 311191 N 0 0 0
0:00:00.00 311355 N 0 0 0
0:00:00.00 311521 N 0 0 0
0:00:00.00 311681 N 0 0 0
0:00:00.00 311836 N 0 0 0
0:00:00.00 311987 N 0 0 0
0:00:00.00 312147 N 0 0 0
0:00:00.00 312305 N 0 0 0
0:00:00.00 312458 N 0 0 0
0:00:00.00 312608 N 0 0 0
0:00:00.00 312764 N 0 0 0
0:00:00.00 312928 N 0 0 0
0:00:00.00 313079 N 0 0 0
0:00:00.00 313229 N 0 0 0
0:00:00.00 313369 N 0 0 0
0:00:00.00 313519 N 0 0 0
0:00:00.00 313877 N 0 0 0
0:00:00.00 314140 N 0 0 0
0:00:00.00 314388 N 0 0 0
0:00:00.00 314644 N 0 0 0
0:00:00.00 314896 N 0 0 0
0:00:00.00 315142 N 0 0 0
0:00:00.00 315382 N 0 0 0
0:00:00.00 315626 N 0 0 0
0:00:00.00 315871 N 0 0 0
0:00:00.00 316120 N 0 0 0
0:00:00.00 316364 N 0 0 0
0:00:00.00 316607 N 0 0 0
0:00:00.00 316850 N 0 0 0
0:00:00.00 317101 N 0 0 0
0:00:00.00 317344 N 0 0 0
0:00:00.00 317583 N 0 0 0
0:00:00.00 317824 N 0 0 0
0:00:00.00 318069 N 0 0 0
0:00:00.00 318310 N 0 0 0
0:00:00.00 318553 N 0 0 0
0:00:00.00 318796 N 0 0 0
0:00:00.00 319034 N 0 0 0
0:00:00.00 319275 N 0 0 0
0:00:00.00 319525 N 0 0 0
0:00:00.00 319768 N 0 0 0
0:00:00.00 320006 N 0 0 0
0:00:00.00 320247 N 0 0 0
0:00:00.00 320492 N 0 0 0
0:00:00.00 320733 N 0 0 0
0:00:00.00 320980 N 0 0 0
0:00:00.00 321221 N 0 0 0
0:00:00.00 321455 N 0 0 0
0:00:00.00 321692 N 0 0 0
0:00:00.00 321941 N 0 0 0
0:00:00.00 322182 N 0 0 0
0:00:00.00 322416 N 0 0 0
0:00:00.00 322646 N 0 0 0
0:00:00.00 322888 N 0 0 0
0:00:00.00 323123 N 0 0 0
0:00:00.00 323363 N 0 0 0
0:00:00.00 323602 N 0 0 0
0:00:00.00 323834 N 0 0 0
0:00:00.00 324068 N 0 0 0
0:00:00.00 324313 N 0 0 0
0:00:00.00 324554 N 0 0 0
0:00:00.00 324788 N 0 0 0
0:00:00.00 325019 N 0 0 0
0:00:00.00 325255 N 0 0 0
0:00:00.00 325487 N 0 0 0
0:00:00.00 325724 N 0 0 0
0:00:00.00 325960 N 0 0 0
0:00:00.00 326194 N 0 0 0
0:00:00.00 326425 N 0 0 0
0:00:00.00 326666 N 0 0 0
0:00:00.00 326905 N 0 0 0
0:00:00.00 327141 N 0 0 0
0:00:00.00 327375 N 0 0 0
0:00:00.00 327609 N 0 0 0
0:00:00.00 327843 N 0 0 0
0:00:00.00 328084 N 0 0 0
0:00:00.00 328327 N 0 0 0
0:00:00.00 328561 N 0 0 0
0:00:00.00 328792 N 0 0 0
0:00:00.00 329033 N 0 0 0
0:00:00.00 329278 N 0 0 0
0:00:00.00 329515 N 0 0 0
0:00:00.00 329746 N 0 0 0
0:00:00.00 329978 N 0 0 0
0:00:00.00 330212 N 0 0 0
0:00:00.00 330451 N 0 0 0
0:00:00.00 330696 N 0 0 0
0:00:00.00 330926 N 0 0 0
0:00:00.00 331155 N 0 0 0
0:00:00.00 331393 N 0 0 0
0:00:00.00 331636 N 0 0 0
0:00:00.00 331868 N 0 0 0
0:00:00.00 332096 N 0 0 0
0:00:00.00 332332 N 0 0 0
0:00:00.00 332564 N 0 0 0
0:00:00.00 332802 N 0 0 0
0:00:00.00 333043 N 0 0 0
0:00:00.00 333277 N 0 0 0
0:00:00.00 333508 N 0 0 0
0:00:00.00 333742 N 0 0 0
0:00:00.00 333986 N 0 0 0
0:00:00.00 334220 N 0 0 0
0:00:00.00 334451 N 0 0 0
0:00:00.00 334683 N 0 0 0
0:00:00.00 334919 N 0 0 0
0:00:00.00 335156 N 0 0 0
0:00:00.00 335390 N 0 0 0
0:00:00.00 335626 N 0 0 0
0:00:00.00 335857 N 0 0 0
0:00:00.00 336089 N 0 0 0
0:00:00.00 336330 N 0 0 0
0:00:00.00 336571 N 0 0 0
0:00:00.00 336807 N 0 0 0
0:00:00.00 337041 N 0 0 0
0:00:00.00 337277 N 0 0 0
0:00:00.00 337516 N 0 0 0
0:00:00.00 337757 N 0 0 0
0:00:00.00 337999 N 0 0 0
0:00:00.00 338240 N 0 0 0
0:00:00.00 338472 N 0 0 0
0:00:00.00 338715 N 0 0 0
0:00:00.00 338960 N 0 0 0
0:00:00.00 339201 N 0 0 0
0:00:00.00 339435 N 0 0 0
0:00:00.00 339671 N 0 0 0
0:00:00.00 339903 N 0 0 0
0:00:00.00 340146 N 0 0 0
0:00:00.00 340389 N 0 0 0
0:00:00.00 340623 N 0 0 0
0:00:00.00 340855 N 0 0 0
0:00:00.00 341100 N 0 0 0
0:00:00.00 341347 N 0 0 0
0:00:00.00 341586 N 0 0 0
0:00:00.00 341820 N 0 0 0
0:00:00.00 342056 N 0 0 0
0:00:00.00 342293 N 0 0 0
0:00:00.00 342535 N 0 0 0
0:00:00.00 342781 N 0 0 0
0:00:00.00 343013 N 0 0 0
0:00:00.00 343246 N 0 0 0
0:00:00.00 343485 N 0 0 0
0:00:00.00 343730 N 0 0 0
0:00:00.00 343966 N 0 0 0
0:00:00.00 344194 N 0 0 0
0:00:00.00 344428 N 0 0 0
0:00:00.00 344662 N 0 0 0
0:00:00.00 344898 N 0 0 0
0:00:00.00 345141 N 0 0 0
0:00:00.00 345375 N 0 0 0
0:00:00.00 345607 N 0 0 0
0:00:00.00 345839 N 0 0 0
0:00:00.00 346086 N 0 0 0
0:00:00.00 346320 N 0 0 0
0:00:00.00 346554 N 0 0 0
0:00:00.00 346788 N 0 0 0
0:00:00.00 347027 N 0 0 0
0:00:00.00 347263 N 0 0 0
0:00:00.00 347503 N 0 0 0
0:00:00.00 347742 N 0 0 0
0:00:00.00 347978 N 0 0 0
0:00:00.00 348210 N 0 0 0
0:00:00.00 348453 N 0 0 0
0:00:00.00 348692 N 0 0 0
0:00:00.00 348932 N 0 0 0
0:00:00.00 349164 N 0 0 0
0:00:00.00 349405 N 0 0 0
0:00:00.00 349645 N 0 0 0
0:00:00.00 349888 N 0 0 0
0:00:00.00 350129 N 0 0 0
0:00:00.00 350374 N 0 0 0
0:00:00.00 350611 N 0 0 0
0:00:00.00 350861 N 0 0 0
0:00:00.00 351108 N 0 0 0
0:00:00.00 351351 N 0 0 0
0:00:00.00 351590 N 0 0 0
0:00:00.00 351833 N 0 0 0
0:00:00.00 352076 N 0 0 0
0:00:00.00 352323 N 0 0 0
0:00:00.00 352564 N 0 0 0
0:00:00.00 352804 N 0 0 0
0:00:00.00 353039 N 0 0 0
0:00:00.00 353284 N 0 0 0
0:00:00.00 353522 N 0 0 0
0:00:00.00 353761 N 0 0 0
0:00:00.00 353997 N 0 0 0
0:00:00.00 354236 N 0 0 0
0:00:00.00 354470 N 0 0 0
0:00:00.00 354713 N 0 0 0
0:00:00.00 354955 N 0 0 0
0:00:00.00 355194 N 0 0 0
0:00:00.00 355426 N 0 0 0
0:00:00.00 355673 N 0 0 0
0:00:00.00 355918 N 0 0 0
0:00:00.00 356157 N 0 0 0
0:00:00.00 356391 N 0 0 0
0:00:00.00 356629 N 0 0 0
0:00:00.00 356864 N 0 0 0
0:00:00.00 357107 N 0 0 0
0:00:00.00 357345 N 0 0 0
0:00:00.00 357581 N 0 0 0
0:00:00.00 357811 N 0 0 0
0:00:00.00 358058 N 0 0 0
0:00:00.00 358301 N 0 0 0
0:00:00.00 358538 N 0 0 0
0:00:00.00 358769 N 0 0 0
0:00:00.00 359008 N 0 0 0
0:00:00.00 359242 N 0 0 0
0:00:00.00 359483 N 0 0 0
0:00:00.00 359726 N 0 0 0
0:00:00.00 359964 N 0 0 0
0:00:00.00 360194 N 0 0 0
0:00:00.00 360437 N 0 0 0
0:00:00.00 360686 N 0 0 0
0:00:00.00 360927 N 0 0 0
0:00:00.00 361159 N 0 0 0
0:00:00.00 361395 N 0 0 0
0:00:00.00 361629 N 0 0 0
0:00:00.00 361870 N 0 0 0
0:00:00.00 362113 N 0 0 0
0:00:00.00 362349 N 0 0 0
0:00:00.00 362583 N 0 0 0
0:00:00.00 362824 N 0 0 0
0:00:00.00 363069 N 0 0 0
0:00:00.00 363308 N 0 0 0
0:00:00.00 363542 N 0 0 0
0:00:00.00 363778 N 0 0 0
0:00:00.00 364014 N 0 0 0
0:00:00.00 364259 N 0 0 0
0:00:00.00 364505 N 0 0 0
0:00:00.00 364741 N 0 0 0
0:00:00.00 364973 N 0 0 0
0:00:00.00 365215 N 0 0 0
0:00:00.00 365459 N 0 0 0
0:00:00.00 365693 N 0 0 0
0:00:00.00 365922 N 0 0 0
0:00:00.00 366154 N 0 0 0
0:00:00.00 366386 N 0 0 0
0:00:00.00 366624 N 0 0 0
0:00:00.00 366867 N 0 0 0
0:00:00.00 367097 N 0 0 0
0:00:00.00 367328 N 0 0 0
0:00:00.00 367564 N 0 0 0
0:00:00.00 367810 N 0 0 0
0:00:00.00 368044 N 0 0 0
0:00:00.00 368276 N 0 0 0
0:00:00.00 368510 N 0 0 0
0:00:00.00 368748 N 0 0 0
0:00:00.00 368986 N 0 0 0
0:00:00.00 369229 N 0 0 0
0:00:00.00 369698 N 0 0 0
0:00:00.00 369932 N 0 0 0
0:00:00.00 370175 N 0 0 0
0:00:00.00 370408 N 0 0 0
0:00:00.00 370640 N 0 0 0
0:00:00.00 370868 N 0 0 0
0:00:00.00 371108 N 0 0 0
0:00:00.00 371338 N 0 0 0
0:00:00.00 371578 N 0 0 0
0:00:00.00 371812 N 0 0 0
0:00:00.00 372049 N 0 0 0
0:00:00.00 372280 N 0 0 0
0:00:00.00 372523 N 0 0 0
0:00:00.00 372766 N 0 0 0
0:00:00.00 373003 N 0 0 0
0:00:00.00 373228 N 0 0 0
0:00:00.00 373466 N 0 0 0
0:00:00.00 373696 N 0 0 0
0:00:00.00 373934 N 0 0 0
0:00:00.00 374173 N 0 0 0
0:00:00.00 374404 N 0 0 0
0:00:00.00 374630 N 0 0 0
0:00:00.00 374866 N 0 0 0
0:00:00.00 375107 N 0 0 0
0:00:00.00 375343 N 0 0 0
0:00:00.00 375570 N 0 0 0
0:00:00.00 375800 N 0 0 0
0:00:00.00 376033 N 0 0 0
0:00:00.00 376270 N 0 0 0
0:00:00.00 376510 N 0 0 0
0:00:00.00 376740 N 0 0 0
0:00:00.00 376970 N 0 0 0
0:00:00.00 377203 N 0 0 0
0:00:00.00 377444 N 0 0 0
0:00:00.00 377672 N 0 0 0
0:00:00.00 377903 N 0 0 0
0:00:00.00 378133 N 0 0 0
0:00:00.00 378365 N 0 0 0
0:00:00.00 378592 N 0 0 0
0:00:00.00 378830 N 0 0 0
0:00:00.00 379062 N 0 0 0
0:00:00.00 379294 N 0 0 0
0:00:00.00 379523 N 0 0 0
0:00:00.00 379764 N 0 0 0
0:00:00.00 380003 N 0 0 0
0:00:00.00 380241 N 0 0 0
0:00:00.00 380473 N 0 0 0
0:00:00.00 380711 N 0 0 0
0:00:00.00 380948 N 0 0 0
0:00:00.00 381193 N 0 0 0
0:00:00.00 381440 N 0 0 0
0:00:00.00 381677 N 0 0 0
0:00:00.00 381908 N 0 0 0
0:00:00.00 382153 N 0 0 0
0:00:00.00 382399 N 0 0 0
0:00:00.00 382639 N 0 0 0
0:00:00.00 382867 N 0 0 0
0:00:00.00 383105 N 0 0 0
0:00:00.00 383339 N 0 0 0
0:00:00.00 383582 N 0 0 0
0:00:00.00 383825 N 0 0 0
0:00:00.00 384064 N 0 0 0
0:00:00.00 384298 N 0 0 0
0:00:00.00 384541 N 0 0 0
0:00:00.00 384788 N 0 0 0
0:00:00.00 385033 N 0 0 0
0:00:00.00 385267 N 0 0 0
0:00:00.00 385508 N 0 0 0
0:00:00.00 385747 N 0 0 0
0:00:00.00 385992 N 0 0 0
0:00:00.00 386239 N 0 0 0
0:00:00.00 386476 N 0 0 0
0:00:00.00 386710 N 0 0 0
0:00:00.00 386957 N 0 0 0
0:00:00.00 387202 N 0 0 0
0:00:00.00 387446 N 0 0 0
0:00:00.00 387680 N 0 0 0
0:00:00.00 387920 N 0 0 0
0:00:00.00 388159 N 0 0 0
0:00:00.00 388409 N 0 0 0
0:00:00.00 388656 N 0 0 0
0:00:00.00 388897 N 0 0 0
0:00:00.00 389133 N 0 0 0
0:00:00.00 389378 N 0 0 0
0:00:00.00 389628 N 0 0 0
0:00:00.00 389871 N 0 0 0
0:00:00.00 390105 N 0 0 0
0:00:00.00 390344 N 0 0 0
0:00:00.00 390580 N 0 0 0
0:00:00.00 390825 N 0 0 0
0:00:00.00 391072 N 0 0 0
0:00:00.00 391307 N 0 0 0
0:00:00.00 391536 N 0 0 0
0:00:00.00 391781 N 0 0 0
0:00:00.00 392024 N 0 0 0
0:00:00.00 392261 N 0 0 0
0:00:00.00 392488 N 0 0 0
0:00:00.00 392724 N 0 0 0
0:00:00.00 392954 N 0 0 0
0:00:00.00 393192 N 0 0 0
0:00:00.00 393431 N 0 0 0
0:00:00.00 393665 N 0 0 0
0:00:00.00 393894 N 0 0 0
0:00:00.00 394137 N 0 0 0
0:00:00.00 394385 N 0 0 0
0:00:00.00 394623 N 0 0 0
0:00:00.00 394852 N 0 0 0
0:00:00.00 395091 N 0 0 0
0:00:00.00 395329 N 0 0 0
0:00:00.00 395572 N 0 0 0
0:00:00.00 395813 N 0 0 0
0:00:00.00 396050 N 0 0 0
0:00:00.00 396284 N 0 0 0
0:00:00.00 396524 N 0 0 0
0:00:00.00 396774 N 0 0 0
0:00:00.00 397015 N 0 0 0
0:00:00.00 397249 N 0 0 0
0:00:00.00 397487 N 0 0 0
0:00:00.00 397726 N 0 0 0
0:00:00.00 397971 N 0 0 0
0:00:00.00 398221 N 0 0 0
0:00:00.00 398462 N 0 0 0
0:00:00.00 398698 N 0 0 0
0:00:00.00 398943 N 0 0 0
0:00:00.00 399193 N 0 0 0
0:00:00.00 399436 N 0 0 0
0:00:00.00 399668 N 0 0 0
0:00:00.00 399906 N 0 0 0
0:00:00.00 400144 N 0 0 0
0:00:00.00 400390 N 0 0 0
0:00:00.00 400637 N 0 0 0
0:00:00.00 400873 N 0 0 0
0:00:00.00 401107 N 0 0 0
0:00:00.00 401350 N 0 0 0
0:00:00.00 401598 N 0 0 0
0:00:00.00 401836 N 0 0 0
0:00:00.00 402068 N 0 0 0
0:00:00.00 402307 N 0 0 0
0:00:00.00 402543 N 0 0 0
0:00:00.00 402786 N 0 0 0
0:00:00.00 403031 N 0 0 0
0:00:00.00 403265 N 0 0 0
0:00:00.00 403497 N 0 0 0
0:00:00.00 403738 N 0 0 0
0:00:00.00 403983 N 0 0 0
0:00:00.00 404222 N 0 0 0
0:00:00.00 404456 N 0 0 0
0:00:00.00 404694 N 0 0 0
0:00:00.00 404932 N 0 0 0
0:00:00.00 405175 N 0 0 0
0:00:00.00 405418 N 0 0 0
0:00:00.00 405657 N 0 0 0
0:00:00.00 405893 N 0 0 0
0:00:00.00 406132 N 0 0 0
0:00:00.00 406381 N 0 0 0
0:00:00.00 406622 N 0 0 0
0:00:00.00 406858 N 0 0 0
0:00:00.00 407097 N 0 0 0
0:00:00.00 407338 N 0 0 0
0:00:00.00 407583 N 0 0 0
0:00:00.00 407826 N 0 0 0
0:00:00.00 408065 N 0 0 0
0:00:00.00 408301 N 0 0 0
0:00:00.00 408542 N 0 0 0
0:00:00.00 408793 N 0 0 0
0:00:00.00 409034 N 0 0 0
0:00:00.00 409266 N 0 0 0
0:00:00.00 409504 N 0 0 0
0:00:00.00 409741 N 0 0 0
0:00:00.00 409986 N 0 0 0
0:00:00.00 410229 N 0 0 0
0:00:00.00 410463 N 0 0 0
0:00:00.00 410699 N 0 0 0
0:00:00.00 410938 N 0 0 0
0:00:00.00 411187 N 0 0 0
0:00:00.00 411426 N 0 0 0
0:00:00.00 411662 N 0 0 0
0:00:00.00 411898 N 0 0 0
0:00:00.00 412135 N 0 0 0
0:00:00.00 412375 N 0 0 0
0:00:00.00 412614 N 0 0 0
0:00:00.00 412852 N 0 0 0
0:00:00.00 413087 N 0 0 0
0:00:00.00 413320 N 0 0 0
0:00:00.00 413559 N 0 0 0
0:00:00.00 413795 N 0 0 0
0:00:00.00 414031 N 0 0 0
0:00:00.00 414263 N 0 0 0
0:00:00.00 414497 N 0 0 0
0:00:00.00 414727 N 0 0 0
0:00:00.00 414967 N 0 0 0
0:00:00.00 415210 N 0 0 0
0:00:00.00 415444 N 0 0 0
0:00:00.00 415674 N 0 0 0
0:00:00.00 415915 N 0 0 0
0:00:00.00 416156 N 0 0 0
0:00:00.00 416392 N 0 0 0
0:00:00.00 416619 N 0 0 0
0:00:00.00 416855 N 0 0 0
0:00:00.00 417087 N 0 0 0
0:00:00.00 417326 N 0 0 0
0:00:00.00 417568 N 0 0 0
0:00:00.00 417802 N 0 0 0
0:00:00.00 418028 N 0 0 0
0:00:00.00 418264 N 0 0 0
0:00:00.00 418511 N 0 0 0
0:00:00.00 418748 N 0 0 0
0:00:00.00 418981 N 0 0 0
0:00:00.00 419220 N 0 0 0
0:00:00.00 419461 N 0 0 0
0:00:00.00 419710 N 0 0 0
0:00:00.00 419960 N 0 0 0
0:00:00.00 420199 N 0 0 0
0:00:00.00 420437 N 0 0 0
0:00:00.00 420680 N 0 0 0
0:00:00.00 420930 N 0 0 0
0:00:00.00 421173 N 0 0 0
0:00:00.00 421405 N 0 0 0
0:00:00.00 421645 N 0 0 0
0:00:00.00 421884 N 0 0 0
0:00:00.00 422129 N 0 0 0
0:00:00.00 422375 N 0 0 0
0:00:00.00 422611 N 0 0 0
0:00:00.00 422849 N 0 0 0
0:00:00.00 423092 N 0 0 0
0:00:00.00 423340 N 0 0 0
0:00:00.00 423585 N 0 0 0
0:00:00.00 423821 N 0 0 0
0:00:00.00 424060 N 0 0 0
0:00:00.00 424300 N 0 0 0
0:00:00.00 424548 N 0 0 0
0:00:00.00 424796 N 0 0 0
0:00:00.00 425034 N 0 0 0
0:00:00.00 425270 N 0 0 0
0:00:00.00 425516 N 0 0 0
0:00:00.00 425765 N 0 0 0
0:00:00.00 426006 N 0 0 0
0:00:00.00 426238 N 0 0 0
0:00:00.00 426476 N 0 0 0
0:00:00.00 426715 N 0 0 0
0:00:00.00 426956 N 0 0 0
0:00:00.00 427203 N 0 0 0
0:00:00.00 427441 N 0 0 0
0:00:00.00 427675 N 0 0 0
0:00:00.00 427919 N 0 0 0
0:00:00.00 428166 N 0 0 0
0:00:00.00 428404 N 0 0 0
0:00:00.00 428636 N 0 0 0
0:00:00.00 428873 N 0 0 0
0:00:00.00 429109 N 0 0 0
0:00:00.00 429349 N 0 0 0
0:00:00.00 429593 N 0 0 0
0:00:00.00 429831 N 0 0 0
0:00:00.00 430063 N 0 0 0
0:00:00.00 430304 N 0 0 0
0:00:00.00 430555 N 0 0 0
0:00:00.00 430794 N 0 0 0
0:00:00.00 431026 N 0 0 0
0:00:00.00 431264 N 0 0 0
0:00:00.00 431501 N 0 0 0
0:00:00.00 431744 N 0 0 0
0:00:00.00 431995 N 0 0 0
0:00:00.00 432230 N 0 0 0
0:00:00.00 432466 N 0 0 0
0:00:00.00 432709 N 0 0 0
0:00:00.00 432961 N 0 0 0
0:00:00.00 433204 N 0 0 0
0:00:00.00 433435 N 0 0 0
0:00:00.00 433670 N 0 0 0
0:00:00.00 433908 N 0 0 0
0:00:00.00 434149 N 0 0 0
0:00:00.00 434396 N 0 0 0
0:00:00.00 434632 N 0 0 0
0:00:00.00 434869 N 0 0 0
0:00:00.00 435114 N 0 0 0
0:00:00.00 435368 N 0 0 0
0:00:00.00 435616 N 0 0 0
0:00:00.00 435859 N 0 0 0
0:00:00.00 436104 N 0 0 0
0:00:00.00 436347 N 0 0 0
0:00:00.00 436597 N 0 0 0
0:00:00.00 436846 N 0 0 0
0:00:00.00 437087 N 0 0 0
0:00:00.00 437326 N 0 0 0
0:00:00.00 437576 N 0 0 0
0:00:00.00 437823 N 0 0 0
0:00:00.00 438066 N 0 0 0
0:00:00.00 438309 N 0 0 0
0:00:00.00 438554 N 0 0 0
0:00:00.00 438795 N 0 0 0
0:00:00.00 439040 N 0 0 0
0:00:00.00 439285 N 0 0 0
0:00:00.00 439524 N 0 0 0
0:00:00.00 439760 N 0 0 0
0:00:00.00 440006 N 0 0 0
0:00:00.00 440251 N 0 0 0
0:00:00.00 440494 N 0 0 0
0:00:00.00 440728 N 0 0 0
0:00:00.00 440968 N 0 0 0
0:00:00.00 441205 N 0 0 0
0:00:00.00 441446 N 0 0 0
0:00:00.00 441691 N 0 0 0
0:00:00.00 441929 N 0 0 0
0:00:00.00 442161 N 0 0 0
0:00:00.00 442402 N 0 0 0
0:00:00.00 442647 N 0 0 0
0:00:00.00 442886 N 0 0 0
0:00:00.00 443120 N 0 0 0
0:00:00.00 443353 N 0 0 0
0:00:00.00 443587 N 0 0 0
0:00:00.00 443824 N 0 0 0
0:00:00.00 444062 N 0 0 0
0:00:00.00 444296 N 0 0 0
0:00:00.00 444524 N 0 0 0
0:00:00.00 444762 N 0 0 0
0:00:00.00 445007 N 0 0 0
0:00:00.00 445243 N 0 0 0
0:00:00.00 445475 N 0 0 0
0:00:00.00 445709 N 0 0 0
0:00:00.00 445945 N 0 0 0
0:00:00.00 446186 N 0 0 0
0:00:00.00 446429 N 0 0 0
0:00:00.00 446661 N 0 0 0
0:00:00.00 446893 N 0 0 0
0:00:00.00 447127 N 0 0 0
0:00:00.00 447370 N 0 0 0
0:00:00.00 447601 N 0 0 0
0:00:00.00 447833 N 0 0 0
0:00:00.00 448063 N 0 0 0
0:00:00.00 448297 N 0 0 0
0:00:00.00 448533 N 0 0 0
0:00:00.00 448774 N 0 0 0
0:00:00.00 449010 N 0 0 0
0:00:00.00 449244 N 0 0 0
0:00:00.00 449478 N 0 0 0
0:00:00.00 449725 N 0 0 0
0:00:00.00 449962 N 0 0 0
0:00:00.00 450198 N 0 0 0
0:00:00.00 450432 N 0 0 0
0:00:00.00 450671 N 0 0 0
0:00:00.00 450904 N 0 0 0
0:00:00.00 451145 N 0 0 0
0:00:00.00 451382 N 0 0 0
0:00:00.00 451618 N 0 0 0
0:00:00.00 451850 N 0 0 0
0:00:00.00 452092 N 0 0 0
0:00:00.00 452331 N 0 0 0
0:00:00.00 452570 N 0 0 0
0:00:00.00 452806 N 0 0 0
0:00:00.00 453049 N 0 0 0
0:00:00.00 453285 N 0 0 0
0:00:00.00 453528 N 0 0 0
0:00:00.00 453769 N 0 0 0
0:00:00.00 454007 N 0 0 0
0:00:00.00 454241 N 0 0 0
0:00:00.00 454482 N 0 0 0
0:00:00.00 454725 N 0 0 0
0:00:00.00 454963 N 0 0 0
0:00:00.00 455195 N 0 0 0
0:00:00.00 455429 N 0 0 0
0:00:00.00 455665 N 0 0 0
0:00:00.00 455906 N 0 0 0
0:00:00.00 456151 N 0 0 0
0:00:00.00 456385 N 0 0 0
0:00:00.00 456615 N 0 0 0
0:00:00.00 456858 N 0 0 0
0:00:00.00 457105 N 0 0 0
0:00:00.00 457349 N 0 0 0
0:00:00.00 457585 N 0 0 0
0:00:00.00 457825 N 0 0 0
0:00:00.00 458066 N 0 0 0
0:00:00.00 458312 N 0 0 0
0:00:00.00 458561 N 0 0 0
0:00:00.00 458800 N 0 0 0
0:00:00.00 459040 N 0 0 0
0:00:00.00 459286 N 0 0 0
0:00:00.00 459531 N 0 0 0
0:00:00.00 459772 N 0 0 0
0:00:00.00 460006 N 0 0 0
0:00:00.00 460242 N 0 0 0
0:00:00.00 460476 N 0 0 0
0:00:00.00 460717 N 0 0 0
0:00:00.00 460960 N 0 0 0
0:00:00.00 461194 N 0 0 0
0:00:00.00 461428 N 0 0 0
0:00:00.00 461675 N 0 0 0
0:00:00.00 461921 N 0 0 0
0:00:00.00 462164 N 0 0 0
0:00:00.00 462402 N 0 0 0
0:00:00.00 462641 N 0 0 0
0:00:00.00 462881 N 0 0 0
0:00:00.00 463126 N 0 0 0
0:00:00.00 463376 N 0 0 0
0:00:00.00 463619 N 0 0 0
0:00:00.00 463855 N 0 0 0
0:00:00.00 464101 N 0 0 0
0:00:00.00 464351 N 0 0 0
0:00:00.00 464594 N 0 0 0
0:00:00.00 464834 N 0 0 0
0:00:00.00 465320 N 0 0 0
0:00:00.00 465566 N 0 0 0
0:00:00.00 465811 N 0 0 0
0:00:00.00 466047 N 0 0 0
0:00:00.00 466283 N 0 0 0
0:00:00.00 466526 N 0 0 0
0:00:00.00 466765 N 0 0 0
0:00:00.00 467005 N 0 0 0
0:00:00.00 467237 N 0 0 0
0:00:00.00 467476 N 0 0 0
0:00:00.00 467714 N 0 0 0
0:00:00.00 467957 N 0 0 0
0:00:00.00 468196 N 0 0 0
0:00:00.00 468436 N 0 0 0
0:00:00.00 468671 N 0 0 0
0:00:00.00 468918 N 0 0 0
0:00:00.00 469163 N 0 0 0
0:00:00.00 469404 N 0 0 0
0:00:00.00 469640 N 0 0 0
0:00:00.00 469883 N 0 0 0
0:00:00.00 470122 N 0 0 0
0:00:00.00 470367 N 0 0 0
0:00:00.00 470610 N 0 0 0
0:00:00.00 470848 N 0 0 0
0:00:00.00 471085 N 0 0 0
0:00:00.00 471334 N 0 0 0
0:00:00.00 471577 N 0 0 0
0:00:00.00 471820 N 0 0 0
0:00:00.00 472057 N 0 0 0
0:00:00.00 472302 N 0 0 0
0:00:00.00 472540 N 0 0 0
0:00:00.00 472783 N 0 0 0
0:00:00.00 473027 N 0 0 0
0:00:00.00 473267 N 0 0 0
0:00:00.00 473501 N 0 0 0
0:00:00.00 473746 N 0 0 0
0:00:00.00 473987 N 0 0 0
0:00:00.00 474226 N 0 0 0
0:00:00.00 474460 N 0 0 0
0:00:00.00 474701 N 0 0 0
0:00:00.00 474935 N 0 0 0
0:00:00.00 475177 N 0 0 0
0:00:00.00 475420 N 0 0 0
0:00:00.00 475655 N 0 0 0
0:00:00.00 475891 N 0 0 0
0:00:00.00 476138 N 0 0 0
0:00:00.00 476384 N 0 0 0
0:00:00.00 476624 N 0 0 0
0:00:00.00 476858 N 0 0 0
0:00:00.00 477099 N 0 0 0
0:00:00.00 477337 N 0 0 0
0:00:00.00 477580 N 0 0 0
0:00:00.00 477823 N 0 0 0
0:00:00.00 478062 N 0 0 0
0:00:00.00 478294 N 0 0 0
0:00:00.00 478539 N 0 0 0
0:00:00.00 478782 N 0 0 0
0:00:00.00 479023 N 0 0 0
0:00:00.00 479259 N 0 0 0
0:00:00.00 479500 N 0 0 0
0:00:00.00 479740 N 0 0 0
0:00:00.00 479984 N 0 0 0
0:00:00.00 480235 N 0 0 0
0:00:00.00 480479 N 0 0 0
0:00:00.00 480722 N 0 0 0
0:00:00.00 480973 N 0 0 0
0:00:00.00 481221 N 0 0 0
0:00:00.00 481469 N 0 0 0
0:00:00.00 481711 N 0 0 0
0:00:00.00 481957 N 0 0 0
0:00:00.00 482198 N 0 0 0
0:00:00.00 482449 N 0 0 0
0:00:00.00 482695 N 0 0 0
0:00:00.00 482938 N 0 0 0
0:00:00.00 483179 N 0 0 0
0:00:00.00 483431 N 0 0 0
0:00:00.00 483676 N 0 0 0
0:00:00.00 483919 N 0 0 0
0:00:00.00 484157 N 0 0 0
0:00:00.00 484403 N 0 0 0
0:00:00.00 484646 N 0 0 0
0:00:00.00 484893 N 0 0 0
0:00:00.00 485134 N 0 0 0
0:00:00.00 485377 N 0 0 0
0:00:00.00 485613 N 0 0 0
0:00:00.00 485863 N 0 0 0
0:00:00.00 486101 N 0 0 0
0:00:00.00 486338 N 0 0 0
0:00:00.00 486574 N 0 0 0
0:00:00.00 486815 N 0 0 0
0:00:00.00 487051 N 0 0 0
0:00:00.00 487296 N 0 0 0
0:00:00.00 487535 N 0 0 0
0:00:00.00 487775 N 0 0 0
0:00:00.00 488012 N 0 0 0
0:00:00.00 488259 N 0 0 0
0:00:00.00 488497 N 0 0 0
0:00:00.00 488732 N 0 0 0
0:00:00.00 488966 N 0 0 0
0:00:00.00 489211 N 0 0 0
0:00:00.00 489447 N 0 0 0
0:00:00.00 489692 N 0 0 0
0:00:00.00 489931 N 0 0 0
0:00:00.00 490176 N 0 0 0
0:00:00.00 490417 N 0 0 0
0:00:00.00 490671 N 0 0 0
0:00:00.00 490918 N 0 0 0
0:00:00.00 491159 N 0 0 0
0:00:00.00 491393 N 0 0 0
0:00:00.00 491639 N 0 0 0
0:00:00.00 491882 N 0 0 0
0:00:00.00 492129 N 0 0 0
0:00:00.00 492365 N 0 0 0
0:00:00.00 492602 N 0 0 0
0:00:00.00 492844 N 0 0 0
0:00:00.00 493097 N 0 0 0
0:00:00.00 493340 N 0 0 0
0:00:00.00 493583 N 0 0 0
0:00:00.00 493825 N 0 0 0
0:00:00.00 494069 N 0 0 0
0:00:00.00 494316 N 0 0 0
0:00:00.00 494566 N 0 0 0
0:00:00.00 494807 N 0 0 0
0:00:00.00 495049 N 0 0 0
0:00:00.00 495293 N 0 0 0
0:00:00.00 495545 N 0 0 0
0:00:00.00 495787 N 0 0 0
0:00:00.00 496026 N 0 0 0
0:00:00.00 496265 N 0 0 0
0:00:00.00 496508 N 0 0 0
0:00:00.00 496753 N 0 0 0
0:00:00.00 497003 N 0 0 0
0:00:00.00 497241 N 0 0 0
0:00:00.00 497475 N 0 0 0
0:00:00.00 497716 N 0 0 0
0:00:00.00 497966 N 0 0 0
0:00:00.00 498200 N 0 0 0
0:00:00.00 498431 N 0 0 0
0:00:00.00 498665 N 0 0 0
0:00:00.00 498897 N 0 0 0
0:00:00.00 499135 N 0 0 0
0:00:00.00 499376 N 0 0 0
0:00:00.00 499604 N 0 0 0
0:00:00.00 499831 N 0 0 0
0:00:00.00 500058 N 0 0 0
0:00:00.00 500297 N 0 0 0
0:00:00.00 500524 N 0 0 0
0:00:00.00 500751 N 0 0 0
0:00:00.00 500974 N 0 0 0
0:00:00.00 501206 N 0 0 0
0:00:00.00 501430 N 0 0 0
0:00:00.00 501662 N 0 0 0
0:00:00.00 501889 N 0 0 0
0:00:00.00 502119 N 0 0 0
0:00:00.00 502340 N 0 0 0
0:00:00.00 502574 N 0 0 0
0:00:00.00 502807 N 0 0 0
0:00:00.00 503035 N 0 0 0
0:00:00.00 503258 N 0 0 0
0:00:00.00 503485 N 0 0 0
0:00:00.00 503714 N 0 0 0
0:00:00.00 503948 N 0 0 0
0:00:00.00 504184 N 0 0 0
0:00:00.00 504410 N 0 0 0
0:00:00.00 504641 N 0 0 0
0:00:00.00 504873 N 0 0 0
0:00:00.00 505112 N 0 0 0
0:00:00.00 505343 N 0 0 0
0:00:00.00 505571 N 0 0 0
0:00:00.00 505798 N 0 0 0
0:00:00.00 506030 N 0 0 0
0:00:00.00 506261 N 0 0 0
0:00:00.00 506495 N 0 0 0
0:00:00.00 506723 N 0 0 0
0:00:00.00 506948 N 0 0 0
0:00:00.00 507170 N 0 0 0
0:00:00.00 507402 N 0 0 0
0:00:00.00 507632 N 0 0 0
0:00:00.00 507859 N 0 0 0
0:00:00.00 508079 N 0 0 0
0:00:00.00 508300 N 0 0 0
0:00:00.00 508520 N 0 0 0
0:00:00.00 508747 N 0 0 0
0:00:00.00 508977 N 0 0 0
0:00:00.00 509198 N 0 0 0
0:00:00.00 509420 N 0 0 0
0:00:00.00 509639 N 0 0 0
0:00:00.00 509875 N 0 0 0
0:00:00.00 510100 N 0 0 0
0:00:00.00 510325 N 0 0 0
0:00:00.00 510545 N 0 0 0
0:00:00.00 510772 N 0 0 0
0:00:00.00 510995 N 0 0 0
0:00:00.00 511220 N 0 0 0
0:00:00.00 511450 N 0 0 0
0:00:00.00 511672 N 0 0 0
0:00:00.00 511889 N 0 0 0
0:00:00.00 512111 N 0 0 0
0:00:00.00 512343 N 0 0 0
0:00:00.00 512563 N 0 0 0
0:00:00.00 512782 N 0 0 0
0:00:00.00 512996 N 0 0 0
0:00:00.00 513223 N 0 0 0
0:00:00.00 513443 N 0 0 0
0:00:00.00 513671 N 0 0 0
0:00:00.00 513900 N 0 0 0
0:00:00.00 514123 N 0 0 0
0:00:00.00 514346 N 0 0 0
0:00:00.00 514575 N 0 0 0
0:00:00.00 514811 N 0 0 0
0:00:00.00 515039 N 0 0 0
0:00:00.00 515263 N 0 0 0
0:00:00.00 515488 N 0 0 0
0:00:00.00 515716 N 0 0 0
0:00:00.00 515950 N 0 0 0
0:00:00.00 516184 N 0 0 0
0:00:00.00 516413 N 0 0 0
0:00:00.00 516643 N 0 0 0
0:00:00.00 516868 N 0 0 0
0:00:00.00 517104 N 0 0 0
0:00:00.00 517338 N 0 0 0
0:00:00.00 517572 N 0 0 0
0:00:00.00 517797 N 0 0 0
0:00:00.00 518033 N 0 0 0
0:00:00.00 518263 N 0 0 0
0:00:00.00 518503 N 0 0 0
0:00:00.00 518738 N 0 0 0
0:00:00.00 518971 N 0 0 0
0:00:00.00 519197 N 0 0 0
0:00:00.00 519435 N 0 0 0
0:00:00.00 519671 N 0 0 0
0:00:00.00 519905 N 0 0 0
0:00:00.00 520132 N 0 0 0
0:00:00.00 520366 N 0 0 0
0:00:00.00 520598 N 0 0 0
0:00:00.00 520835 N 0 0 0
0:00:00.00 521080 N 0 0 0
0:00:00.00 521314 N 0 0 0
0:00:00.00 521548 N 0 0 0
0:00:00.00 521791 N 0 0 0
0:00:00.00 522043 N 0 0 0
0:00:00.00 522288 N 0 0 0
0:00:00.00 522526 N 0 0 0
0:00:00.00 522769 N 0 0 0
0:00:00.00 523012 N 0 0 0
0:00:00.00 523264 N 0 0 0
0:00:00.00 523516 N 0 0 0
0:00:00.00 523766 N 0 0 0
0:00:00.00 524005 N 0 0 0
0:00:00.00 524252 N 0 0 0
0:00:00.00 524506 N 0 0 0
0:00:00.00 524752 N 0 0 0
0:00:00.00 524988 N 0 0 0
0:00:00.00 525233 N 0 0 0
0:00:00.00 525474 N 0 0 0
0:00:00.00 525721 N 0 0 0
0:00:00.00 525964 N 0 0 0
0:00:00.00 526208 N 0 0 0
0:00:00.00 526446 N 0 0 0
0:00:00.00 526696 N 0 0 0
0:00:00.00 526943 N 0 0 0
0:00:00.00 527188 N 0 0 0
0:00:00.00 527425 N 0 0 0
0:00:00.00 527672 N 0 0 0
0:00:00.00 527913 N 0 0 0
0:00:00.00 528161 N 0 0 0
0:00:00.00 528404 N 0 0 0
0:00:00.00 528647 N 0 0 0
0:00:00.00 528887 N 0 0 0
0:00:00.00 529142 N 0 0 0
0:00:00.00 529385 N 0 0 0
0:00:00.00 529628 N 0 0 0
0:00:00.00 529866 N 0 0 0
0:00:00.00 530109 N 0 0 0
0:00:00.00 530350 N 0 0 0
0:00:00.00 530595 N 0 0 0
0:00:00.00 530834 N 0 0 0
0:00:00.00 531076 N 0 0 0
0:00:00.00 531313 N 0 0 0
0:00:00.00 531563 N 0 0 0
0:00:00.00 531801 N 0 0 0
0:00:00.00 532039 N 0 0 0
0:00:00.00 532280 N 0 0 0
0:00:00.00 532521 N 0 0 0
0:00:00.00 532762 N 0 0 0
0:00:00.00 533007 N 0 0 0
0:00:00.00 533246 N 0 0 0
0:00:00.00 533480 N 0 0 0
0:00:00.00 533718 N 0 0 0
0:00:00.00 533963 N 0 0 0
0:00:00.00 534197 N 0 0 0
0:00:00.00 534427 N 0 0 0
0:00:00.00 534656 N 0 0 0
0:00:00.00 534895 N 0 0 0
0:00:00.00 535131 N 0 0 0
0:00:00.00 535369 N 0 0 0
0:00:00.00 535604 N 0 0 0
0:00:00.00 535842 N 0 0 0
0:00:00.00 536076 N 0 0 0
0:00:00.00 536323 N 0 0 0
0:00:00.00 536564 N 0 0 0
0:00:00.00 536803 N 0 0 0
0:00:00.00 537041 N 0 0 0
0:00:00.00 537286 N 0 0 0
0:00:00.00 537529 N 0 0 0
0:00:00.00 537777 N 0 0 0
0:00:00.00 538016 N 0 0 0
0:00:00.00 538259 N 0 0 0
0:00:00.00 538499 N 0 0 0
0:00:00.00 538751 N 0 0 0
0:00:00.00 538994 N 0 0 0
0:00:00.00 539239 N 0 0 0
0:00:00.00 539482 N 0 0 0
0:00:00.00 539730 N 0 0 0
0:00:00.00 539978 N 0 0 0
0:00:00.00 540234 N 0 0 0
0:00:00.00 540479 N 0 0 0
0:00:00.00 540720 N 0 0 0
0:00:00.00 540970 N 0 0 0
0:00:00.00 541228 N 0 0 0
0:00:00.00 541474 N 0 0 0
0:00:00.00 541712 N 0 0 0
0:00:00.00 541955 N 0 0 0
0:00:00.00 542194 N 0 0 0
0:00:00.00 542441 N 0 0 0
0:00:00.00 542689 N 0 0 0
0:00:00.00 542925 N 0 0 0
0:00:00.00 543159 N 0 0 0
0:00:00.00 543400 N 0 0 0
0:00:00.00 543649 N 0 0 0
0:00:00.00 543888 N 0 0 0
0:00:00.00 544120 N 0 0 0
0:00:00.00 544358 N 0 0 0
0:00:00.00 544594 N 0 0 0
0:00:00.00 544837 N 0 0 0
0:00:00.00 545083 N 0 0 0
0:00:00.00 545321 N 0 0 0
0:00:00.00 545555 N 0 0 0
0:00:00.00 545796 N 0 0 0
0:00:00.00 546043 N 0 0 0
0:00:00.00 546280 N 0 0 0
0:00:00.00 546509 N 0 0 0
0:00:00.00 546743 N 0 0 0
0:00:00.00 546977 N 0 0 0
0:00:00.00 547216 N 0 0 0
0:00:00.00 547454 N 0 0 0
0:00:00.00 547690 N 0 0 0
0:00:00.00 547925 N 0 0 0
0:00:00.00 548161 N 0 0 0
0:00:00.00 548410 N 0 0 0
0:00:00.00 548647 N 0 0 0
0:00:00.00 548885 N 0 0 0
0:00:00.00 549121 N 0 0 0
0:00:00.00 549364 N 0 0 0
0:00:00.00 549608 N 0 0 0
0:00:00.00 549855 N 0 0 0
0:00:00.00 550094 N 0 0 0
0:00:00.00 550334 N 0 0 0
0:00:00.00 550571 N 0 0 0
0:00:00.00 550822 N 0 0 0
0:00:00.00 551061 N 0 0 0
0:00:00.00 551299 N 0 0 0
0:00:00.00 551534 N 0 0 0
0:00:00.00 551774 N 0 0 0
0:00:00.00 552015 N 0 0 0
0:00:00.00 552260 N 0 0 0
0:00:00.00 552499 N 0 0 0
0:00:00.00 552737 N 0 0 0
0:00:00.00 552980 N 0 0 0
0:00:00.00 553232 N 0 0 0
0:00:00.00 553473 N 0 0 0
0:00:00.00 553714 N 0 0 0
0:00:00.00 553955 N 0 0 0
0:00:00.00 554200 N 0 0 0
0:00:00.00 554447 N 0 0 0
0:00:00.00 554690 N 0 0 0
0:00:00.00 554931 N 0 0 0
0:00:00.00 555169 N 0 0 0
0:00:00.00 555410 N 0 0 0
0:00:00.00 555658 N 0 0 0
0:00:00.00 555898 N 0 0 0
0:00:00.00 556130 N 0 0 0
0:00:00.00 556369 N 0 0 0
0:00:00.00 556609 N 0 0 0
0:00:00.00 556850 N 0 0 0
0:00:00.00 557095 N 0 0 0
0:00:00.00 557330 N 0 0 0
0:00:00.00 557568 N 0 0 0
0:00:00.00 557807 N 0 0 0
0:00:00.00 558056 N 0 0 0
0:00:00.00 558297 N 0 0 0
0:00:00.00 558533 N 0 0 0
0:00:00.00 558767 N 0 0 0
0:00:00.00 559004 N 0 0 0
0:00:00.00 559246 N 0 0 0
0:00:00.00 559487 N 0 0 0
0:00:00.00 559721 N 0 0 0
0:00:00.00 559953 N 0 0 0
0:00:00.00 560185 N 0 0 0
0:00:00.00 560434 N 0 0 0
0:00:00.00 560669 N 0 0 0
0:00:00.00 560903 N 0 0 0
0:00:00.00 561136 N 0 0 0
0:00:00.00 561375 N 0 0 0
0:00:00.00 561616 N 0 0 0
0:00:00.00 561856 N 0 0 0
0:00:00.00 562090 N 0 0 0
0:00:00.00 562325 N 0 0 0
0:00:00.00 562561 N 0 0 0
0:00:00.00 562808 N 0 0 0
0:00:00.00 563044 N 0 0 0
0:00:00.00 563279 N 0 0 0
0:00:00.00 563513 N 0 0 0
0:00:00.00 563753 N 0 0 0
0:00:00.00 563990 N 0 0 0
0:00:00.00 564232 N 0 0 0
0:00:00.00 564467 N 0 0 0
0:00:00.00 564701 N 0 0 0
0:00:00.00 564934 N 0 0 0
0:00:00.00 565177 N 0 0 0
0:00:00.00 565411 N 0 0 0
0:00:00.00 565646 N 0 0 0
0:00:00.00 565879 N 0 0 0
0:00:00.00 566116 N 0 0 0
0:00:00.00 566348 N 0 0 0
0:00:00.00 566590 N 0 0 0
0:00:00.00 566827 N 0 0 0
0:00:00.00 567065 N 0 0 0
0:00:00.00 567295 N 0 0 0
0:00:00.00 567540 N 0 0 0
0:00:00.00 567778 N 0 0 0
0:00:00.00 568015 N 0 0 0
0:00:00.00 568246 N 0 0 0
0:00:00.00 568485 N 0 0 0
0:00:00.00 568717 N 0 0 0
0:00:00.00 568955 N 0 0 0
0:00:00.00 569189 N 0 0 0
0:00:00.00 569430 N 0 0 0
0:00:00.00 569662 N 0 0 0
0:00:00.00 569907 N 0 0 0
0:00:00.00 570148 N 0 0 0
0:00:00.00 570391 N 0 0 0
0:00:00.00 570623 N 0 0 0
0:00:00.00 570866 N 0 0 0
0:00:00.00 571106 N 0 0 0
0:00:00.00 571352 N 0 0 0
0:00:00.00 571594 N 0 0 0
0:00:00.00 571837 N 0 0 0
0:00:00.00 572072 N 0 0 0
0:00:00.00 572317 N 0 0 0
0:00:00.00 572560 N 0 0 0
0:00:00.00 572803 N 0 0 0
0:00:00.00 573039 N 0 0 0
0:00:00.00 573277 N 0 0 0
0:00:00.00 573511 N 0 0 0
0:00:00.00 573757 N 0 0 0
0:00:00.00 573997 N 0 0 0
0:00:00.00 574234 N 0 0 0
0:00:00.00 574468 N 0 0 0
0:00:00.00 574713 N 0 0 0
0:00:00.00 574954 N 0 0 0
0:00:00.00 575199 N 0 0 0
0:00:00.00 575433 N 0 0 0
0:00:00.00 575674 N 0 0 0
0:00:00.00 575908 N 0 0 0
0:00:00.00 576155 N 0 0 0
0:00:00.00 576400 N 0 0 0
0:00:00.00 576637 N 0 0 0
0:00:00.00 576869 N 0 0 0
0:00:00.00 577118 N 0 0 0
0:00:00.00 577364 N 0 0 0
0:00:00.00 577606 N 0 0 0
0:00:00.00 577840 N 0 0 0
0:00:00.00 578081 N 0 0 0
0:00:00.00 578318 N 0 0 0
0:00:00.00 578561 N 0 0 0
0:00:00.00 578804 N 0 0 0
0:00:00.00 579047 N 0 0 0
0:00:00.00 579281 N 0 0 0
0:00:00.00 579530 N 0 0 0
0:00:00.00 579778 N 0 0 0
0:00:00.00 580023 N 0 0 0
0:00:00.00 580259 N 0 0 0
0:00:00.00 580502 N 0 0 0
0:00:00.00 580738 N 0 0 0
0:00:00.00 580984 N 0 0 0
0:00:00.00 581229 N 0 0 0
0:00:00.00 581470 N 0 0 0
0:00:00.00 581704 N 0 0 0
0:00:00.00 581949 N 0 0 0
0:00:00.00 582190 N 0 0 0
0:00:00.00 582431 N 0 0 0
0:00:00.00 582667 N 0 0 0
0:00:00.00 582903 N 0 0 0
0:00:00.00 583139 N 0 0 0
0:00:00.00 583382 N 0 0 0
0:00:00.00 583625 N 0 0 0
0:00:00.00 583864 N 0 0 0
0:00:00.00 584098 N 0 0 0
0:00:00.00 584343 N 0 0 0
0:00:00.00 584588 N 0 0 0
0:00:00.00 584831 N 0 0 0
0:00:00.00 585063 N 0 0 0
0:00:00.00 585304 N 0 0 0
0:00:00.00 585542 N 0 0 0
0:00:00.00 585787 N 0 0 0
0:00:00.00 586031 N 0 0 0
0:00:00.00 586271 N 0 0 0
0:00:00.00 586503 N 0 0 0
0:00:00.00 586748 N 0 0 0
0:00:00.00 586989 N 0 0 0
0:00:00.00 587230 N 0 0 0
0:00:00.00 587464 N 0 0 0
0:00:00.00 587704 N 0 0 0
0:00:00.00 587938 N 0 0 0
0:00:00.00 588186 N 0 0 0
0:00:00.00 588433 N 0 0 0
0:00:00.00 588674 N 0 0 0
0:00:00.00 588910 N 0 0 0
0:00:00.00 589158 N 0 0 0
0:00:00.00 589403 N 0 0 0
0:00:00.00 589648 N 0 0 0
0:00:00.00 589887 N 0 0 0
0:00:00.00 590132 N 0 0 0
0:00:00.00 590368 N 0 0 0
0:00:00.00 590612 N 0 0 0
0:00:00.00 590859 N 0 0 0
0:00:00.00 591100 N 0 0 0
0:00:00.00 591334 N 0 0 0
0:00:00.00 591583 N 0 0 0
0:00:00.00 591829 N 0 0 0
0:00:00.00 592072 N 0 0 0
0:00:00.00 592306 N 0 0 0
0:00:00.00 592549 N 0 0 0
0:00:00.00 592790 N 0 0 0
0:00:00.00 593037 N 0 0 0
0:00:00.00 593278 N 0 0 0
0:00:00.00 593518 N 0 0 0
0:00:00.00 593753 N 0 0 0
0:00:00.00 594002 N 0 0 0
0:00:00.00 594245 N 0 0 0
0:00:00.00 594484 N 0 0 0
0:00:00.00 594716 N 0 0 0
0:00:00.00 594954 N 0 0 0
0:00:00.00 595188 N 0 0 0
0:00:00.00 595427 N 0 0 0
0:00:00.00 595663 N 0 0 0
0:00:00.00 595897 N 0 0 0
0:00:00.00 596133 N 0 0 0
0:00:00.00 596376 N 0 0 0
0:00:00.00 596615 N 0 0 0
0:00:00.00 596855 N 0 0 0
0:00:00.00 597091 N 0 0 0
0:00:00.00 597330 N 0 0 0
0:00:00.00 597566 N 0 0 0
0:00:00.00 597811 N 0 0 0
0:00:00.00 598052 N 0 0 0
0:00:00.00 598291 N 0 0 0
0:00:00.00 598525 N 0 0 0
0:00:00.00 598772 N 0 0 0
0:00:00.00 599009 N 0 0 0
0:00:00.00 599247 N 0 0 0
0:00:00.00 599479 N 0 0 0
0:00:00.00 599719 N 0 0 0
0:00:00.00 599954 N 0 0 0
0:00:00.00 600199 N 0 0 0
0:00:00.00 600442 N 0 0 0
0:00:00.00 600685 N 0 0 0
0:00:00.00 600921 N 0 0 0
0:00:00.00 601173 N 0 0 0
0:00:00.00 601421 N 0 0 0
0:00:00.00 601666 N 0 0 0
0:00:00.00 601907 N 0 0 0
0:00:00.00 602156 N 0 0 0
0:00:00.00 602401 N 0 0 0
0:00:00.00 602647 N 0 0 0
0:00:00.00 602894 N 0 0 0
0:00:00.00 603137 N 0 0 0
0:00:00.00 603376 N 0 0 0
0:00:00.00 603628 N 0 0 0
0:00:00.00 603869 N 0 0 0
0:00:00.00 604109 N 0 0 0
0:00:00.00 604350 N 0 0 0
0:00:00.00 604595 N 0 0 0
0:00:00.00 604841 N 0 0 0
0:00:00.00 605090 N 0 0 0
0:00:00.00 605331 N 0 0 0
0:00:00.00 605570 N 0 0 0
0:00:00.00 605817 N 0 0 0
0:00:00.00 606067 N 0 0 0
0:00:00.00 606312 N 0 0 0
0:00:00.00 606546 N 0 0 0
0:00:00.00 606787 N 0 0 0
0:00:00.00 607025 N 0 0 0
0:00:00.00 607275 N 0 0 0
0:00:00.00 607520 N 0 0 0
0:00:00.00 607756 N 0 0 0
0:00:00.00 607991 N 0 0 0
0:00:00.00 608233 N 0 0 0
0:00:00.00 608479 N 0 0 0
0:00:00.00 608720 N 0 0 0
0:00:00.00 608954 N 0 0 0
0:00:00.00 609192 N 0 0 0
0:00:00.00 609428 N 0 0 0
0:00:00.00 609673 N 0 0 0
0:00:00.00 609919 N 0 0 0
0:00:00.00 610159 N 0 0 0
0:00:00.00 610391 N 0 0 0
0:00:00.00 610632 N 0 0 0
0:00:00.00 610879 N 0 0 0
0:00:00.00 611116 N 0 0 0
0:00:00.00 611348 N 0 0 0
0:00:00.00 611582 N 0 0 0
0:00:00.00 611818 N 0 0 0
0:00:00.00 612058 N 0 0 0
0:00:00.00 612295 N 0 0 0
0:00:00.00 612529 N 0 0 0
0:00:00.00 612761 N 0 0 0
0:00:00.00 612995 N 0 0 0
0:00:00.00 613242 N 0 0 0
0:00:00.00 613476 N 0 0 0
0:00:00.00 613710 N 0 0 0
0:00:00.00 613944 N 0 0 0
0:00:00.00 614183 N 0 0 0
0:00:00.00 614421 N 0 0 0
0:00:00.00 614660 N 0 0 0
0:00:00.00 614896 N 0 0 0
0:00:00.00 615134 N 0 0 0
0:00:00.00 615364 N 0 0 0
0:00:00.00 615847 N 0 0 0
0:00:00.00 616084 N 0 0 0
0:00:00.00 616313 N 0 0 0
0:00:00.00 616545 N 0 0 0
0:00:00.00 616775 N 0 0 0
0:00:00.00 617013 N 0 0 0
0:00:00.00 617251 N 0 0 0
0:00:00.00 617486 N 0 0 0
0:00:00.00 617713 N 0 0 0
0:00:00.00 617953 N 0 0 0
0:00:00.00 618192 N 0 0 0
0:00:00.00 618430 N 0 0 0
0:00:00.00 618658 N 0 0 0
0:00:00.00 618892 N 0 0 0
0:00:00.00 619123 N 0 0 0
0:00:00.00 619362 N 0 0 0
0:00:00.00 619600 N 0 0 0
0:00:00.00 619834 N 0 0 0
0:00:00.00 620064 N 0 0 0
0:00:00.00 620305 N 0 0 0
0:00:00.00 620546 N 0 0 0
0:00:00.00 620782 N 0 0 0
0:00:00.00 620989 N 0 0 0
0:00:00.00 621250 N 0 0 0
0:00:00.00 621488 N 0 0 0
0:00:00.00 621734 N 0 0 0
0:00:00.00 621981 N 0 0 0
0:00:00.00 622219 N 0 0 0
0:00:00.00 622454 N 0 0 0
0:00:00.00 622697 N 0 0 0
0:00:00.00 622946 N 0 0 0
0:00:00.00 623189 N 0 0 0
0:00:00.00 623423 N 0 0 0
0:00:00.00 623662 N 0 0 0
0:00:00.00 623900 N 0 0 0
0:00:00.00 624146 N 0 0 0
0:00:00.00 624395 N 0 0 0
0:00:00.00 624636 N 0 0 0
0:00:00.00 624872 N 0 0 0
0:00:00.00 625118 N 0 0 0
0:00:00.00 625372 N 0 0 0
0:00:00.00 625621 N 0 0 0
0:00:00.00 625860 N 0 0 0
0:00:00.00 626107 N 0 0 0
0:00:00.00 626348 N 0 0 0
0:00:00.00 626600 N 0 0 0
0:00:00.00 626850 N 0 0 0
0:00:00.00 627095 N 0 0 0
0:00:00.00 627336 N 0 0 0
0:00:00.00 627590 N 0 0 0
0:00:00.00 627838 N 0 0 0
0:00:00.00 628081 N 0 0 0
0:00:00.00 628319 N 0 0 0
0:00:00.00 628562 N 0 0 0
0:00:00.00 628803 N 0 0 0
0:00:00.00 629048 N 0 0 0
0:00:00.00 629285 N 0 0 0
0:00:00.00 629523 N 0 0 0
0:00:00.00 629761 N 0 0 0
0:00:00.00 630005 N 0 0 0
0:00:00.00 630243 N 0 0 0
0:00:00.00 630479 N 0 0 0
0:00:00.00 630711 N 0 0 0
0:00:00.00 630949 N 0 0 0
0:00:00.00 631181 N 0 0 0
0:00:00.00 631418 N 0 0 0
0:00:00.00 631652 N 0 0 0
0:00:00.00 631886 N 0 0 0
0:00:00.00 632117 N 0 0 0
0:00:00.00 632354 N 0 0 0
0:00:00.00 632590 N 0 0 0
0:00:00.00 632824 N 0 0 0
0:00:00.00 633053 N 0 0 0
0:00:00.00 633283 N 0 0 0
0:00:00.00 633512 N 0 0 0
0:00:00.00 633753 N 0 0 0
0:00:00.00 633992 N 0 0 0
0:00:00.00 634225 N 0 0 0
0:00:00.00 634455 N 0 0 0
0:00:00.00 634694 N 0 0 0
0:00:00.00 634941 N 0 0 0
0:00:00.00 635180 N 0 0 0
0:00:00.00 635411 N 0 0 0
0:00:00.00 635652 N 0 0 0
0:00:00.00 635891 N 0 0 0
0:00:00.00 636138 N 0 0 0
0:00:00.00 636386 N 0 0 0
0:00:00.00 636629 N 0 0 0
0:00:00.00 636863 N 0 0 0
0:00:00.00 637114 N 0 0 0
0:00:00.00 637360 N 0 0 0
0:00:00.00 637605 N 0 0 0
0:00:00.00 637843 N 0 0 0
0:00:00.00 638086 N 0 0 0
0:00:00.00 638327 N 0 0 0
0:00:00.00 638575 N 0 0 0
0:00:00.00 638820 N 0 0 0
0:00:00.00 639067 N 0 0 0
0:00:00.00 639308 N 0 0 0
0:00:00.00 639558 N 0 0 0
0:00:00.00 639805 N 0 0 0
0:00:00.00 640051 N 0 0 0
0:00:00.00 640296 N 0 0 0
0:00:00.00 640543 N 0 0 0
0:00:00.00 640787 N 0 0 0
0:00:00.00 641038 N 0 0 0
0:00:00.00 641282 N 0 0 0
0:00:00.00 641524 N 0 0 0
0:00:00.00 641768 N 0 0 0
0:00:00.00 642022 N 0 0 0
0:00:00.00 642269 N 0 0 0
0:00:00.00 642510 N 0 0 0
0:00:00.00 642748 N 0 0 0
0:00:00.00 642989 N 0 0 0
0:00:00.00 643234 N 0 0 0
0:00:00.00 643482 N 0 0 0
0:00:00.00 643720 N 0 0 0
0:00:00.00 643957 N 0 0 0
0:00:00.00 644198 N 0 0 0
0:00:00.00 644452 N 0 0 0
0:00:00.00 644692 N 0 0 0
0:00:00.00 644929 N 0 0 0
0:00:00.00 645169 N 0 0 0
0:00:00.00 645412 N 0 0 0
0:00:00.00 645655 N 0 0 0
0:00:00.00 645901 N 0 0 0
0:00:00.00 646144 N 0 0 0
0:00:00.00 646382 N 0 0 0
0:00:00.00 646623 N 0 0 0
0:00:00.00 646873 N 0 0 0
0:00:00.00 647114 N 0 0 0
0:00:00.00 647348 N 0 0 0
0:00:00.00 647588 N 0 0 0
0:00:00.00 647829 N 0 0 0
0:00:00.00 648072 N 0 0 0
0:00:00.00 648319 N 0 0 0
0:00:00.00 648558 N 0 0 0
0:00:00.00 648799 N 0 0 0
0:00:00.00 649042 N 0 0 0
0:00:00.00 649294 N 0 0 0
0:00:00.00 649539 N 0 0 0
0:00:00.00 649773 N 0 0 0
